# k  (h/Mpc)    Pcb(k)  (Mpc/h)^3    Pcb_linear(k) (Mpc/h)^3   ShotnoiseSubtracted = true
      0.0200456         359.793         364.708 
      0.0350414         264.777          265.13 
      0.0492313         193.426         192.638 
      0.0637834          160.91         160.139 
      0.0800726         127.544         127.098 
       0.096163         92.2706         92.2207 
       0.111083         73.3872         73.5576 
       0.126058         65.2887          65.187 
       0.142273         55.4292         55.2278 
       0.158546         43.9674         43.6183 
        0.17375         36.7053         36.7484 
       0.188953           33.36         33.2749 
       0.204907         29.9796         29.4415 
       0.220756         25.1674         24.9093 
        0.23588         21.8945         21.6689 
         0.2514         19.7529          19.686 
       0.267535         17.9082         17.8124 
       0.283568         15.8576         15.7082 
       0.299022         14.1968         13.9952 
       0.314451         12.7912         12.7906 
       0.330372         11.8087          11.734 
       0.346141         10.7278         10.6504 
       0.361624         9.79941         9.67972 
       0.377134         9.07032         8.90687 
       0.392932         8.18734         8.24135 
       0.408854         7.72231         7.59694 
       0.424564         7.08354         7.00221 
       0.440253         6.56723         6.49186 
       0.455999         6.15965         6.04809 
       0.471626          5.7694         5.64027 
        0.48727         5.34817         5.25878 
       0.502856          4.9813         4.91606 
       0.518488          4.7367         4.61027 
       0.534347         4.48258           4.326 
       0.550082         4.12823         4.06388 
       0.565732         3.82708         3.82408 
       0.581496         3.69043         3.60445 
       0.597222         3.50209         3.40303 
       0.612804         3.28313         3.21781 
       0.628434         3.14526         3.04518 
       0.644267         2.96572         2.88378 
       0.660051          2.7997         2.73503 
       0.675724         2.66773         2.59767 
       0.691403         2.55444         2.46963 
       0.707174         2.41636          2.3495 
       0.722871           2.295         2.23784 
        0.73838         2.20703         2.13463 
       0.754018         2.12485         2.03715 
       0.769845         2.01464          1.9447 
        0.78569         1.92844          1.8579 
       0.801365         1.83978         1.77727 
       0.817031         1.76928          1.7015 
       0.832809         1.69451         1.62969 
       0.848511          1.6135         1.56236 
       0.864097         1.54233         1.49932 
       0.879701         1.48281         1.43971 
       0.895507           1.433         1.38265 
       0.911279         1.38773         1.32882 
        0.92691         1.33045         1.27832 
       0.942635         1.27779         1.23017 
       0.958396         1.22598         1.18441 
       0.974128          1.1832         1.14107 
       0.989692         1.14885         1.10034 
        1.00528         1.10486         1.06155 
        1.02113         1.05771         1.02402 
        1.03692         1.03278        0.988458 
        1.05264        0.994856        0.954752 
        1.06832        0.964607        0.922677 
        1.08405        0.921223        0.891997 
        1.09979        0.894649        0.862699 
        1.11537        0.872453        0.835012 
        1.13105         0.84563         0.80838 
        1.14679        0.823254        0.782811 
        1.16256        0.787957        0.758302 
        1.17828         0.76606        0.734928 
        1.19395        0.741495        0.712621 
         1.2097        0.713442        0.691129 
        1.22537         0.70019        0.670631 
          1.241        0.679135        0.651029 
        1.25666        0.666796        0.632165 
        1.27241        0.638633        0.613962 
        1.28819        0.620574        0.596448 
        1.30392        0.606502         0.57967 
        1.31957        0.590192        0.563614 
        1.33529        0.571743        0.548109 
        1.35108        0.555733        0.533128 
        1.36674        0.535702        0.518816 
         1.3824        0.528816        0.505044 
        1.39811        0.512158        0.491727 
        1.41389        0.500215        0.478841 
        1.42964        0.488989         0.46644 
        1.44531        0.472076         0.45454 
        1.46101        0.463683        0.443031 
        1.47667        0.445877        0.431956 
        1.49229         0.44002         0.42129 
        1.50793        0.426243        0.410973 
        1.52367        0.417864        0.400936 
        1.53953        0.406259        0.391168 
        1.55526        0.397555        0.381804 
        1.57092        0.385817        0.372786 
        1.58662        0.378714        0.364039 
        1.60235        0.370503        0.355556 
        1.61809        0.358162        0.347339 
        1.63369        0.355718        0.339456 
        1.64941        0.344503        0.331762 
        1.66519        0.336177        0.324278 
        1.68085         0.32716         0.31708 
        1.69652        0.320409        0.310098 
        1.71228         0.31503        0.303288 
        1.72806        0.305361        0.296676 
        1.74368        0.301784        0.290329 
        1.75933        0.293705        0.284155 
        1.77505        0.287206        0.278132 
        1.79081        0.282105        0.272274 
         1.8065        0.273307        0.266609 
        1.82218        0.269509        0.261111 
        1.83797        0.262964        0.255731 
        1.85367        0.259263        0.250532 
        1.86928        0.253481        0.245509 
        1.88497        0.248208        0.240597 
        1.90073        0.242457        0.235801 
        1.91647        0.238191         0.23114 
        1.93218        0.232448        0.226616 
        1.94787        0.228094        0.222219 
        1.96363        0.223724        0.217922 
        1.97935        0.218247        0.213747 
        1.99499        0.214893        0.209706 
        2.01064        0.210822        0.205763 
         2.0264        0.205694        0.201897 
        2.04216        0.203664        0.198133 
        2.05781         0.19898        0.194488 
        2.07353        0.193901        0.190922 
        2.08928        0.190309        0.187438 
        2.10499         0.18721         0.18405 
        2.12065        0.184676        0.180757 
        2.13633        0.180556        0.177541 
        2.15211        0.177904        0.174383 
        2.16785        0.173946         0.17131 
        2.18349        0.169802        0.168331 
        2.19916        0.168371        0.165416 
        2.21489        0.164731        0.162561 
        2.23063        0.162287        0.159772 
         2.2463        0.158947         0.15706 
        2.26194        0.155544        0.154418 
        2.27765        0.153031        0.151824 
        2.29341        0.150752        0.149282 
        2.30914        0.147839        0.146804 
        2.32486        0.145173        0.144384 
        2.34061        0.142892        0.142014 
        2.35635         0.14012          0.1397 
        2.37203        0.137781        0.137445 
        2.38768        0.135445        0.135244 
        2.40339        0.133414        0.133084 
        2.41914        0.131511        0.130966 
        2.43483        0.128937        0.128902 
         2.4505        0.126098        0.126886 
        2.46622        0.124161        0.124906 
        2.48195          0.1222        0.122968 
        2.49759         0.12109        0.121081 
        2.51328        0.118949        0.119229 
        2.52906         0.11681        0.117405 
        2.54479        0.114536        0.115625 
        2.56049        0.112603        0.113886 
        2.57618        0.110859        0.112184 
        2.59189        0.109489        0.110514 
        2.60758        0.108101        0.108881 
        2.62325        0.105866        0.107282 
        2.63898         0.10441        0.105711 
        2.65468        0.102302        0.104174 
        2.67044        0.101289        0.102661 
        2.68618       0.0996664        0.101182 
        2.70184       0.0978634       0.0997376 
        2.71755       0.0960798       0.0983179 
        2.73329       0.0951179       0.0969237 
        2.74897       0.0939326       0.0955612 
        2.76462       0.0921146       0.0942278 
        2.78034       0.0908994       0.0929144 
        2.79607       0.0891862       0.0916246 
        2.81179       0.0884956       0.0903608 
        2.82749        0.086824       0.0891223 
        2.84321       0.0855541       0.0879056 
        2.85893       0.0845918        0.086712 
        2.87462       0.0835379       0.0855426 
        2.89033       0.0821305       0.0843937 
        2.90605       0.0806317       0.0832649 
        2.92176       0.0798261       0.0821573 
        2.93747       0.0784786       0.0810704 
        2.95318       0.0774152        0.080003 
        2.96891       0.0763192       0.0789544 
        2.98456       0.0754128       0.0779291 
        3.00023       0.0742558       0.0769206 
        3.01596       0.0732931       0.0759268 
        3.03164       0.0725918       0.0749534 
        3.04738       0.0712308       0.0739942 
         3.0631       0.0703157       0.0730521 
        3.07883       0.0693605       0.0721264 
        3.09456       0.0684957       0.0712169 
        3.11026       0.0674663       0.0703244 
        3.12596       0.0667501       0.0694473 
        3.14163        0.065728       0.0685873 
        3.15734       0.0650736       0.0677398 
        3.17308        0.064293       0.0669045 
        3.18879         0.06336       0.0660857 
        3.20447       0.0625165       0.0652817 
         3.2202       0.0620205       0.0644886 
         3.2359       0.0610935       0.0637101 
        3.25157        0.060181       0.0629463 
        3.26729       0.0593553       0.0621927 
        3.28304       0.0589906         0.06145 
        3.29877       0.0581159       0.0607203 
        3.31446       0.0573929       0.0600042 
        3.33014       0.0569956       0.0593001 
        3.34585       0.0561049       0.0586063 
        3.36158       0.0554796       0.0579226 
        3.37727       0.0548594       0.0572519 
        3.39294       0.0542242       0.0565925 
        3.40867       0.0535124        0.055941 
        3.42439       0.0529427       0.0553002 
        3.44008       0.0522101       0.0546707 
        3.45578       0.0518741       0.0540504 
        3.47153       0.0511733       0.0534385 
        3.48724       0.0507919       0.0528371 
        3.50292       0.0500739       0.0522463 
        3.51859       0.0494364       0.0516648 
        3.53431       0.0490204       0.0510904 
        3.55007       0.0485682       0.0505234 
        3.56577       0.0480413       0.0499671 
        3.58146        0.047578       0.0494195 
        3.59719       0.0472107       0.0488788 
        3.61292       0.0466074       0.0483464 
        3.62859       0.0460297       0.0478239 
        3.64429       0.0456511       0.0473082 
        3.66003       0.0451689       0.0467984 
        3.67578       0.0446835       0.0462964 
        3.69146       0.0442495       0.0458036 
        3.70712       0.0440093       0.0453189 
        3.72284       0.0436169       0.0448394 
        3.73853       0.0430477       0.0443677 
        3.75422       0.0428057       0.0439025 
        3.76993       0.0421942       0.0434437 
        3.78564       0.0419474       0.0429916 
        3.80137       0.0414407       0.0425451 
        3.81707       0.0410942        0.042106 
        3.83279       0.0408328       0.0416727 
        3.84853       0.0404577       0.0412448 
        3.86424       0.0400924       0.0408237 
        3.87992       0.0396844       0.0404091 
        3.89561       0.0393272       0.0400003 
        3.91134       0.0390145       0.0395963 
        3.92704       0.0386393       0.0391983 
        3.94273       0.0382493       0.0388062 
        3.95845       0.0379632       0.0384187 
        3.97418       0.0376154       0.0380365 
        3.98988       0.0372189       0.0376599 
        4.00554       0.0369055       0.0372895 
        4.02125       0.0364176        0.036923 
        4.03698       0.0358474       0.0365609 
        4.05268       0.0354375       0.0362044 
        4.06839       0.0349285       0.0358524 
         4.0841       0.0344123       0.0355052 
        4.09983       0.0339005       0.0351621 
        4.11555       0.0334089       0.0348237 
        4.13124       0.0329821       0.0344907 
        4.14693       0.0324562       0.0341617 
        4.16266        0.032078       0.0338363 
        4.17839       0.0317145       0.0335153 
        4.19408       0.0313091       0.0331991 
        4.20977       0.0308836        0.032887 
        4.22551       0.0304395       0.0325781 
        4.24123       0.0301335       0.0322734 
        4.25691       0.0297321       0.0319735 
        4.27259       0.0294055       0.0316773 
        4.28831       0.0291622       0.0313843 
        4.30404       0.0288628       0.0310947 
        4.31974        0.028604       0.0308094 
        4.33543       0.0283472       0.0305278 
        4.35116       0.0280763        0.030249 
        4.36688       0.0278284       0.0299739 
        4.38255       0.0275331       0.0297032 
        4.39825       0.0273675       0.0294352 
        4.41398       0.0272744         0.02917 
         4.4297       0.0270785       0.0289084 
        4.44541       0.0268449         0.02865 
        4.46111       0.0266787        0.028395 
        4.47683       0.0265894       0.0281428 
        4.49251       0.0263697       0.0278943 
        4.50819       0.0262688       0.0276488 
         4.5239       0.0261061        0.027406 
        4.53962       0.0260371       0.0271657 
        4.55535       0.0259736       0.0269282 
        4.57106       0.0259458       0.0266939 
        4.58678       0.0257547       0.0264623 
         4.6025       0.0257831       0.0262334 
        4.61821       0.0257999       0.0260072 
        4.63391       0.0257513        0.025784 
         4.6496       0.0256592       0.0255636 
        4.66532       0.0257244       0.0253453 
        4.68103       0.0257013       0.0251297 
        4.69673       0.0257218       0.0249168 
        4.71241        0.025771       0.0247066 
        4.72811       0.0257595       0.0244985 
        4.74384       0.0258574       0.0242924 
        4.75955       0.0259392       0.0240891 
        4.77525       0.0260318       0.0238882 
        4.79096       0.0260243       0.0236894 
        4.80669       0.0261956       0.0234927 
         4.8224         0.02636       0.0232985 
        4.83809       0.0265038       0.0231067 
        4.85379       0.0265993       0.0229169 
         4.8695       0.0268101       0.0227291 
        4.88521        0.026887       0.0225435 
        4.90093       0.0271887       0.0223599 
        4.91663       0.0273685       0.0221785 
        4.93234       0.0273991       0.0219989 
        4.94807       0.0276279       0.0218213 
        4.96377       0.0279906       0.0216459 
        4.97943       0.0282998       0.0214728 
        4.99514        0.028364       0.0213011 
        5.01086       0.0287506       0.0211312 
        5.02654       0.0289448       0.0209636 
        5.04227        0.029316       0.0207973 
          5.058       0.0296382       0.0206327 
        5.07371       0.0298296       0.0204702 
        5.08942        0.030258       0.0203095 
        5.10513       0.0307416       0.0201505 
        5.12084       0.0309861        0.019993 
        5.13656       0.0313696       0.0198374 
        5.15225       0.0318669       0.0196836 
        5.16796       0.0321818       0.0195312 
        5.18369       0.0326238       0.0193802 
         5.1994       0.0331372       0.0192312 
        5.21509       0.0334954       0.0190838 
        5.23079       0.0340176       0.0189378 
        5.24649       0.0345316       0.0187935 
        5.26217       0.0350844       0.0186508 
        5.27788        0.035586       0.0185093 
        5.29359       0.0362346       0.0183693 
        5.30933       0.0366982       0.0182305 
        5.32504        0.037334       0.0180934 
        5.34073       0.0380295       0.0179578 
        5.35646       0.0386111       0.0178234 
        5.37218       0.0391999       0.0176903 
        5.38789       0.0401788       0.0175588 
        5.40357        0.040633       0.0174288 
        5.41929       0.0414829       0.0172998 
        5.43502       0.0419923        0.017172 
         5.4507       0.0427965       0.0170459 
        5.46639       0.0437545       0.0169211 
        5.48212       0.0444798       0.0167972 
        5.49786       0.0454268       0.0166743 
        5.51353        0.046458       0.0165534 
        5.52921       0.0471045       0.0164334 
        5.54495       0.0482107       0.0163144 
        5.56066        0.049155       0.0161966 
        5.57637       0.0499274         0.01608 
        5.59207         0.05119       0.0159647 
        5.60778       0.0522145       0.0158504 
        5.62346       0.0533084       0.0157375 
        5.63916       0.0543731       0.0156255 
        5.65487       0.0554134       0.0155146 
         5.6706       0.0563895       0.0154046 
        5.68633       0.0579788       0.0152956 
        5.70203       0.0588274       0.0151879 
        5.71773       0.0603597       0.0150812 
        5.73344       0.0615331       0.0149756 
        5.74916       0.0631653       0.0148708 
        5.76486       0.0644859       0.0147672 
        5.78054       0.0656551       0.0146647 
        5.79626       0.0670795       0.0145629 
          5.812       0.0688738        0.014462 
         5.8277       0.0700119       0.0143623 
        5.84339       0.0715964       0.0142636 
        5.85911       0.0734518       0.0141656 
        5.87484       0.0748813       0.0140685 
        5.89053       0.0767689       0.0139726 
        5.90623       0.0789511       0.0138775 
        5.92195       0.0807244       0.0137831 
        5.93767       0.0825725       0.0136896 
        5.95336       0.0841117       0.0135972 
        5.96905       0.0866854       0.0135056 
        5.98476       0.0883221       0.0134148 
        6.00048       0.0898614       0.0133248 
        6.01617       0.0925983       0.0132357 
        6.03185        0.094736       0.0131475 
        6.04756       0.0971841       0.0130599 
        6.06331       0.0990538        0.012973 
        6.07903        0.101474        0.012887 
        6.09473        0.104243       0.0128019 
        6.11044        0.106938       0.0127174 
        6.12616         0.10943       0.0126338 
        6.14186         0.11232       0.0125509 
        6.15755        0.114748       0.0124689 
        6.17326        0.117868       0.0123874 
        6.18898        0.120475       0.0123067 
        6.20467        0.123762       0.0122269 
        6.22036        0.126176       0.0121477 
         6.2361        0.129491       0.0120691 
         6.2518        0.132363       0.0119912 
        6.26748        0.135186       0.0119142 
        6.28319         0.13937       0.0118377 
        6.29893        0.142604       0.0117618 
        6.31463        0.146019       0.0116867 
        6.33033        0.149314       0.0116123 
        6.34604        0.154078       0.0115384 
        6.36177        0.156505       0.0114652 
        6.37747        0.161568       0.0113927 
