# k  (h/Mpc)    Pcb(k)  (Mpc/h)^3    Pcb_linear(k) (Mpc/h)^3   ShotnoiseSubtracted = true
      0.0200456         24934.1         25392.8 
      0.0350414         19061.2         18459.7 
      0.0492313         13076.8         13412.5 
      0.0637834         10536.8         11149.7 
      0.0800726         8260.85          8849.2 
       0.096163         6680.76         6420.87 
       0.111083         5441.15         5121.45 
       0.126058         4494.04         4538.65 
       0.142273         3951.06         3845.23 
       0.158546         3240.03         3036.93 
        0.17375         2914.88         2558.61 
       0.188953         2780.33         2316.76 
       0.204907         2393.39         2049.86 
       0.220756         2170.48         1734.31 
        0.23588         1938.58          1508.7 
         0.2514         1762.87         1370.64 
       0.267535         1695.42         1240.19 
       0.283568         1519.71         1093.68 
       0.299022         1446.59         974.413 
       0.314451         1509.62         890.548 
       0.330372         1349.87         816.977 
       0.346141          1239.5         741.531 
       0.361624         1188.12         673.951 
       0.377134         1143.71         620.141 
       0.392932         1084.58         573.804 
       0.408854         1044.24         528.937 
       0.424564         1022.68         487.528 
       0.440253         954.827         451.995 
       0.455999         912.506         421.098 
       0.471626         924.346         392.704 
        0.48727         874.364         366.142 
       0.502856         848.221         342.281 
       0.518488         816.195          320.99 
       0.534347         789.644         301.197 
       0.550082          753.85         282.948 
       0.565732          739.74         266.251 
       0.581496         723.414          250.96 
       0.597222         711.879         236.936 
       0.612804         692.886          224.04 
       0.628434         665.028         212.021 
       0.644267         647.799         200.783 
       0.660051         640.735         190.426 
       0.675724         628.958         180.863 
       0.691403         606.237         171.948 
       0.707174         590.986         163.584 
       0.722871         587.293         155.809 
        0.73838         570.466         148.623 
       0.754018         559.881         141.836 
       0.769845          551.09         135.399 
        0.78569          538.58         129.356 
       0.801365         522.066         123.743 
       0.817031         516.199         118.467 
       0.832809         507.206         113.467 
       0.848511         498.757         108.779 
       0.864097         489.371          104.39 
       0.879701         490.328          100.24 
       0.895507         470.915         96.2672 
       0.911279         465.734         92.5192 
        0.92691         458.206         89.0028 
       0.942635         451.683         85.6506 
       0.958396         439.928         82.4647 
       0.974128         432.494         79.4473 
       0.989692         422.269         76.6113 
        1.00528         416.269         73.9102 
        1.02113         409.103         71.2975 
        1.03692         403.171         68.8213 
        1.05264         398.099         66.4746 
        1.06832         388.451         64.2414 
        1.08405         387.142         62.1053 
        1.09979         377.673         60.0654 
        1.11537         369.082         58.1377 
        1.13105         364.494         56.2834 
        1.14679         357.894         54.5032 
        1.16256         355.682         52.7968 
        1.17828         350.111         51.1693 
        1.19395          341.56         49.6162 
         1.2097         337.082         48.1199 
        1.22537         332.565         46.6927 
          1.241         325.624         45.3279 
        1.25666         322.333         44.0145 
        1.27241         318.897         42.7471 
        1.28819         310.299         41.5276 
        1.30392         309.459         40.3595 
        1.31957         302.296         39.2416 
        1.33529         297.705         38.1621 
        1.35108           296.8          37.119 
        1.36674         288.979         36.1225 
         1.3824         284.103         35.1637 
        1.39811         280.478         34.2365 
        1.41389         275.675         33.3393 
        1.42964         271.451         32.4759 
        1.44531         267.411         31.6474 
        1.46101         262.219          30.846 
        1.47667         260.303         30.0749 
        1.49229         256.761         29.3323 
        1.50793         251.848          28.614 
        1.52367         247.787         27.9152 
        1.53953         244.734         27.2351 
        1.55526         240.593         26.5831 
        1.57092          238.54         25.9552 
        1.58662         233.522         25.3462 
        1.60235         230.199         24.7555 
        1.61809         228.323         24.1835 
        1.63369         223.916         23.6346 
        1.64941         220.978         23.0989 
        1.66519         217.633         22.5779 
        1.68085         213.761         22.0767 
        1.69652          211.16         21.5906 
        1.71228          207.91         21.1164 
        1.72806         205.435         20.6561 
        1.74368         202.633         20.2142 
        1.75933         200.836         19.7843 
        1.77505         197.636         19.3649 
        1.79081         194.816          18.957 
         1.8065         193.728         18.5626 
        1.82218         188.458         18.1798 
        1.83797         186.942         17.8052 
        1.85367         184.294         17.4433 
        1.86928         181.084         17.0935 
        1.88497         179.205         16.7515 
        1.90073         177.628         16.4176 
        1.91647          174.65         16.0931 
        1.93218         171.553         15.7781 
        1.94787         169.131          15.472 
        1.96363         168.159         15.1728 
        1.97935         165.828         14.8822 
        1.99499         163.537         14.6008 
        2.01064         160.106         14.3263 
         2.0264         159.365         14.0571 
        2.04216         156.355          13.795 
        2.05781         154.421         13.5412 
        2.07353         153.373          13.293 
        2.08928          151.46         13.0504 
        2.10499         148.883         12.8145 
        2.12065         147.368         12.5852 
        2.13633         145.201         12.3613 
        2.15211         143.258         12.1414 
        2.16785         141.854         11.9275 
        2.18349         140.085           11.72 
        2.19916         138.363         11.5171 
        2.21489         136.044         11.3183 
        2.23063         134.448         11.1241 
         2.2463         132.714         10.9353 
        2.26194         131.549         10.7514 
        2.27765         129.453         10.5707 
        2.29341         128.289         10.3938 
        2.30914         126.379         10.2212 
        2.32486         125.099         10.0527 
        2.34061          122.88         9.88773 
        2.35635         121.848         9.72658 
        2.37203         120.397         9.56959 
        2.38768         119.215         9.41639 
        2.40339         117.323         9.26599 
        2.41914         115.611         9.11853 
        2.43483         114.443         8.97481 
         2.4505         113.695         8.83442 
        2.46622         111.443         8.69655 
        2.48195         110.415         8.56162 
        2.49759           108.6         8.43028 
        2.51328         107.585         8.30135 
        2.52906         106.597          8.1743 
        2.54479         105.073         8.05039 
        2.56049         103.776         7.92929 
        2.57618         102.551         7.81078 
        2.59189         101.906         7.69452 
        2.60758          100.29         7.58081 
        2.62325         99.0669         7.46954 
        2.63898          97.711         7.36011 
        2.65468         96.8856         7.25311 
        2.67044         95.9984         7.14778 
        2.68618         94.5284         7.04478 
        2.70184         93.6626         6.94423 
        2.71755         92.4752         6.84538 
        2.73329         91.1044         6.74831 
        2.74897           90.26         6.65344 
        2.76462         89.7772         6.56061 
        2.78034         88.6643         6.46916 
        2.79607         87.2584         6.37936 
        2.81179         86.4428         6.29137 
        2.82749         85.7704         6.20514 
        2.84321         84.3884         6.12042 
        2.85893         83.3128         6.03732 
        2.87462         82.6434          5.9559 
        2.89033         81.6714         5.87591 
        2.90605         80.7192         5.79731 
        2.92176         80.0905          5.7202 
        2.93747         79.1382         5.64453 
        2.95318         78.0134         5.57021 
        2.96891         77.6666          5.4972 
        2.98456         76.2319         5.42581 
        3.00023         75.6068         5.35559 
        3.01596         75.1606          5.2864 
        3.03164         73.9765         5.21863 
        3.04738         73.6176         5.15184 
         3.0631         72.5958         5.08625 
        3.07883         71.8404          5.0218 
        3.09456         70.9058         4.95847 
        3.11026         70.5259         4.89634 
        3.12596         69.4971         4.83527 
        3.14163         68.9382         4.77539 
        3.15734         67.9697         4.71638 
        3.17308         67.5208         4.65823 
        3.18879         66.7823         4.60121 
        3.20447         66.2215         4.54524 
         3.2202         65.1549         4.49002 
         3.2359         64.7246         4.43581 
        3.25157         64.0282         4.38264 
        3.26729         63.1886         4.33017 
        3.28304         62.5474         4.27845 
        3.29877         62.0631         4.22765 
        3.31446         61.2517         4.17779 
        3.33014         60.7641         4.12877 
        3.34585         60.0165         4.08047 
        3.36158         59.5595         4.03286 
        3.37727         58.9525         3.98616 
        3.39294         58.2593         3.94025 
        3.40867          57.891         3.89489 
        3.42439         57.0315         3.85028 
        3.44008         56.5079         3.80644 
        3.45578         56.0479         3.76326 
        3.47153         55.5084         3.72065 
        3.48724         54.8982         3.67878 
        3.50292         54.4898         3.63765 
        3.51859         53.8747         3.59716 
        3.53431         53.2947         3.55717 
        3.55007         52.6104         3.51769 
        3.56577         52.1259         3.47896 
        3.58146          51.701         3.44083 
        3.59719          51.278         3.40319 
        3.61292         50.6961         3.36612 
        3.62859         50.3124         3.32974 
        3.64429         49.8152         3.29383 
        3.66003           49.25         3.25834 
        3.67578          48.757         3.22339 
        3.69146         48.3811         3.18908 
        3.70712         47.8553         3.15533 
        3.72284         47.3571         3.12194 
        3.73853         47.0482          3.0891 
        3.75422         46.6351         3.05671 
        3.76993         46.1683         3.02476 
        3.78564         45.7095         2.99329 
        3.80137         45.1966          2.9622 
        3.81707         44.7856         2.93163 
        3.83279         44.3781         2.90146 
        3.84853         44.0206         2.87167 
        3.86424          43.585         2.84235 
        3.87992         43.1267         2.81348 
        3.89561         42.8829         2.78502 
        3.91134         42.3364         2.75689 
        3.92704         42.0848         2.72918 
        3.94273         41.6641         2.70188 
        3.95845         41.1591          2.6749 
        3.97418         40.8285         2.64829 
        3.98988         40.5114         2.62207 
        4.00554          40.086         2.59628 
        4.02125         39.6805         2.57076 
        4.03698         39.4087         2.54555 
        4.05268         39.0364         2.52073 
        4.06839         38.6896         2.49622 
         4.0841          38.366         2.47205 
        4.09983         38.0896         2.44816 
        4.11555         37.7696          2.4246 
        4.13124         37.2124         2.40141 
        4.14693         36.9895         2.37851 
        4.16266         36.6934         2.35585 
        4.17839         36.2464          2.3335 
        4.19408         36.0412         2.31149 
        4.20977         35.6506         2.28975 
        4.22551          35.362         2.26825 
        4.24123         35.0426         2.24704 
        4.25691         34.7031         2.22616 
        4.27259          34.409         2.20553 
        4.28831         34.1905         2.18513 
        4.30404          33.915         2.16497 
        4.31974         33.5134          2.1451 
        4.33543         33.1741          2.1255 
        4.35116         32.9744         2.10609 
        4.36688         32.6369         2.08693 
        4.38255         32.4185         2.06808 
        4.39825         32.2067         2.04943 
        4.41398         31.9569         2.03096 
         4.4297         31.5715         2.01275 
        4.44541         31.3986         1.99476 
        4.46111         31.0995           1.977 
        4.47683         30.8923         1.95945 
        4.49251         30.5769         1.94214 
        4.50819          30.315         1.92505 
         4.5239         30.0048         1.90814 
        4.53962         29.7765         1.89141 
        4.55535         29.5357         1.87487 
        4.57106         29.2449         1.85856 
        4.58678         29.0784         1.84244 
         4.6025         28.8073          1.8265 
        4.61821         28.6045         1.81075 
        4.63391         28.3266         1.79521 
         4.6496         28.1472         1.77986 
        4.66532         27.8864         1.76467 
        4.68103         27.5666         1.74966 
        4.69673         27.4427         1.73483 
        4.71241         27.1552          1.7202 
        4.72811         26.9473          1.7057 
        4.74384         26.7769         1.69136 
        4.75955         26.6143          1.6772 
        4.77525         26.3571         1.66322 
        4.79096         26.1499         1.64937 
        4.80669         25.9246         1.63568 
         4.8224         25.7286         1.62216 
        4.83809         25.4877          1.6088 
        4.85379         25.3352         1.59559 
         4.8695         25.0922         1.58251 
        4.88521         24.9104         1.56959 
        4.90093         24.7082         1.55681 
        4.91663         24.5473         1.54418 
        4.93234         24.3322         1.53168 
        4.94807         24.1091          1.5193 
        4.96377         23.9281         1.50709 
        4.97943         23.7724         1.49504 
        4.99514         23.6173         1.48309 
        5.01086         23.4388         1.47126 
        5.02654         23.2185         1.45959 
        5.04227         22.9921         1.44801 
          5.058         22.8143         1.43655 
        5.07371         22.6843         1.42524 
        5.08942         22.5164         1.41405 
        5.10513         22.2903         1.40298 
        5.12084         22.1129         1.39202 
        5.13656         21.9553         1.38118 
        5.15225         21.8343         1.37047 
        5.16796         21.6058         1.35986 
        5.18369         21.4597         1.34935 
         5.1994         21.2809         1.33897 
        5.21509         21.1138         1.32871 
        5.23079          20.983         1.31855 
        5.24649         20.8225          1.3085 
        5.26217         20.6492         1.29856 
        5.27788         20.5078         1.28871 
        5.29359         20.3366         1.27896 
        5.30933         20.1363          1.2693 
        5.32504         20.0504         1.25975 
        5.34073         19.8893         1.25031 
        5.35646         19.7027         1.24095 
        5.37218          19.572         1.23169 
        5.38789         19.4566         1.22253 
        5.40357         19.2903         1.21348 
        5.41929         19.1546          1.2045 
        5.43502         18.9859          1.1956 
         5.4507         18.8939         1.18682 
        5.46639         18.7335         1.17813 
        5.48212          18.627          1.1695 
        5.49786         18.4696         1.16095 
        5.51353         18.3117         1.15253 
        5.52921         18.1782         1.14418 
        5.54495         18.0864         1.13589 
        5.56066          17.884         1.12769 
        5.57637         17.7696         1.11957 
        5.59207         17.6612         1.11154 
        5.60778         17.5567         1.10359 
        5.62346         17.3705         1.09572 
        5.63916         17.2671         1.08793 
        5.65487         17.1395          1.0802 
         5.6706         17.0299         1.07254 
        5.68633         16.9093         1.06495 
        5.70203         16.7765         1.05746 
        5.71773         16.6877         1.05003 
        5.73344         16.5635         1.04267 
        5.74916         16.4289         1.03538 
        5.76486         16.3238         1.02816 
        5.78054         16.1762         1.02103 
        5.79626         16.1317         1.01394 
          5.812          15.959         1.00692 
         5.8277         15.8293        0.999977 
        5.84339         15.7563        0.993103 
        5.85911         15.6263         0.98628 
        5.87484         15.5096        0.979522 
        5.89053         15.4036        0.972841 
        5.90623         15.3139        0.966219 
        5.92195         15.1622        0.959647 
        5.93767         15.0894         0.95314 
        5.95336         14.9888        0.946704 
        5.96905         14.8892         0.94033 
        5.98476         14.7936        0.934006 
        6.00048         14.6794        0.927737 
        6.01617         14.5607        0.921534 
        6.03185         14.4743        0.915396 
        6.04756         14.3851        0.909299 
        6.06331         14.2978        0.903244 
        6.07903         14.1554        0.897257 
        6.09473         14.0832         0.89133 
        6.11044         14.0033        0.885451 
        6.12616         13.9031        0.879626 
        6.14186         13.7955        0.873859 
        6.15755         13.6978        0.868144 
        6.17326         13.6441        0.862476 
        6.18898         13.5274        0.856855 
        6.20467         13.4167        0.851295 
        6.22036         13.3258        0.845785 
         6.2361         13.2275        0.840308 
         6.2518          13.143        0.834889 
        6.26748         13.0753        0.829529 
        6.28319         12.9896        0.824202 
        6.29893          12.889        0.818916 
        6.31463         12.8106        0.813686 
        6.33033         12.7273        0.808504 
        6.34604         12.6386        0.803362 
        6.36177         12.5721        0.798261 
        6.37747         12.4629        0.793213 
