# k  (h/Mpc)    Pcb(k)  (Mpc/h)^3    Pcb_linear(k) (Mpc/h)^3   ShotnoiseSubtracted = true
      0.0200456         2991.28         3036.93 
      0.0350414         2181.11         2207.75 
      0.0492313         1606.03         1604.11 
      0.0637834          1351.1         1333.48 
      0.0800726         1071.09         1058.35 
       0.096163         761.829         767.925 
       0.111083         604.318         612.517 
       0.126058         547.913         542.814 
       0.142273         469.201         459.883 
       0.158546         376.211         363.211 
        0.17375         308.396         306.005 
       0.188953         287.286         277.081 
       0.204907          265.26          245.16 
       0.220756         221.215          207.42 
        0.23588         192.858         180.438 
         0.2514         171.849         163.926 
       0.267535         159.319         148.325 
       0.283568          142.87         130.802 
       0.299022         129.979         116.538 
       0.314451         116.744         106.508 
       0.330372         108.578         97.7091 
       0.346141         98.2794         88.6859 
       0.361624         91.5549         80.6034 
       0.377134         86.0973         74.1678 
       0.392932         76.6762          68.626 
       0.408854         73.8138         63.2599 
       0.424564         69.7941         58.3076 
       0.440253         64.3928         54.0579 
       0.455999         60.6656         50.3626 
       0.471626         56.6225         46.9667 
        0.48727         54.1535           43.79 
       0.502856         50.9298         40.9362 
       0.518488         48.7192         38.3899 
       0.534347           46.78         36.0227 
       0.550082         42.8186           33.84 
       0.565732         40.1279         31.8432 
       0.581496         39.1534         30.0144 
       0.597222         37.8459         28.3371 
       0.612804         35.3687         26.7948 
       0.628434         34.1672         25.3573 
       0.644267         33.2555         24.0133 
       0.660051          31.604         22.7747 
       0.675724         29.9921         21.6309 
       0.691403         29.0407         20.5647 
       0.707174         28.0834         19.5644 
       0.722871         26.9598         18.6346 
        0.73838         26.0134         17.7751 
       0.754018         24.9612         16.9634 
       0.769845         24.1968         16.1935 
        0.78569         23.4205         15.4708 
       0.801365         22.5462         14.7994 
       0.817031         21.9726         14.1684 
       0.832809         21.5116         13.5704 
       0.848511         20.2058         13.0098 
       0.864097         19.8445         12.4848 
       0.879701         19.3315         11.9885 
       0.895507         18.7271         11.5134 
       0.911279         18.2222         11.0651 
        0.92691         17.7388         10.6446 
       0.942635         17.0179         10.2437 
       0.958396         16.6587         9.86263 
       0.974128         16.1761         9.50176 
       0.989692         16.0194         9.16259 
        1.00528         15.5749         8.83954 
        1.02113         14.9267         8.52707 
        1.03692         14.6038         8.23092 
        1.05264         14.3167         7.95025 
        1.06832         13.9717         7.68316 
        1.08405         13.5471         7.42768 
        1.09979         13.2653         7.18372 
        1.11537         13.0358         6.95317 
        1.13105         12.7398          6.7314 
        1.14679         12.5388         6.51849 
        1.16256         12.0854         6.31441 
        1.17828         12.0541         6.11976 
        1.19395         11.5945         5.93401 
         1.2097         11.4377         5.75506 
        1.22537         11.1357         5.58437 
          1.241         10.9754         5.42114 
        1.25666         10.7529         5.26406 
        1.27241         10.4782         5.11248 
        1.28819         10.2716         4.96664 
        1.30392         10.1747         4.82693 
        1.31957         9.97542         4.69323 
        1.33529         9.79294         4.56412 
        1.35108         9.53818         4.43937 
        1.36674         9.48999          4.3202 
         1.3824         9.20061         4.20551 
        1.39811         9.07087         4.09463 
        1.41389          8.9292         3.98733 
        1.42964         8.81368         3.88406 
        1.44531         8.66975         3.78497 
        1.46101          8.4598         3.68914 
        1.47667         8.35434         3.59691 
        1.49229         8.25134          3.5081 
        1.50793         8.07529         3.42219 
        1.52367         7.95739         3.33861 
        1.53953         7.82728         3.25727 
        1.55526         7.71487         3.17929 
        1.57092         7.62924          3.1042 
        1.58662         7.49482         3.03136 
        1.60235         7.38412         2.96072 
        1.61809         7.26785          2.8923 
        1.63369         7.15567         2.82666 
        1.64941         7.05389         2.76259 
        1.66519         6.98962         2.70028 
        1.68085          6.8595         2.64033 
        1.69652          6.7477          2.5822 
        1.71228         6.66162         2.52548 
        1.72806           6.597         2.47043 
        1.74368         6.47221         2.41758 
        1.75933          6.4183         2.36617 
        1.77505         6.32694         2.31602 
        1.79081         6.19966         2.26723 
         1.8065         6.16756         2.22006 
        1.82218         6.06933         2.17428 
        1.83797         6.02437         2.12948 
        1.85367         5.90921         2.08618 
        1.86928         5.88882         2.04436 
        1.88497         5.76539         2.00345 
        1.90073          5.6886         1.96352 
        1.91647         5.64904         1.92471 
        1.93218          5.5781         1.88704 
        1.94787         5.51082         1.85042 
        1.96363          5.4512         1.81464 
        1.97935         5.36572         1.77988 
        1.99499         5.29528         1.74623 
        2.01064          5.2466          1.7134 
         2.0264         5.18361         1.68121 
        2.04216         5.13872         1.64986 
        2.05781         5.07008         1.61951 
        2.07353         5.01983         1.58982 
        2.08928         4.97795          1.5608 
        2.10499         4.92459         1.53259 
        2.12065         4.86524         1.50517 
        2.13633          4.8139         1.47839 
        2.15211         4.74806         1.45209 
        2.16785         4.70139          1.4265 
        2.18349         4.65131          1.4017 
        2.19916         4.58762         1.37743 
        2.21489         4.55932         1.35365 
        2.23063         4.50322         1.33042 
         2.2463          4.4627         1.30784 
        2.26194         4.40234         1.28585 
        2.27765         4.38677         1.26424 
        2.29341         4.32478         1.24308 
        2.30914         4.28628         1.22244 
        2.32486         4.23654         1.20229 
        2.34061         4.21588         1.18256 
        2.35635         4.16402         1.16328 
        2.37203         4.14074         1.14451 
        2.38768         4.08836         1.12618 
        2.40339         4.04614          1.1082 
        2.41914         3.99597         1.09056 
        2.43483         3.99007         1.07337 
         2.4505         3.92788         1.05658 
        2.46622         3.90833         1.04009 
        2.48195         3.85469         1.02396 
        2.49759         3.83973         1.00825 
        2.51328         3.79512        0.992828 
        2.52906         3.78381        0.977633 
        2.54479         3.72514        0.962813 
        2.56049         3.70673         0.94833 
        2.57618           3.658        0.934157 
        2.59189         3.64678        0.920252 
        2.60758         3.61577        0.906653 
        2.62325         3.57585        0.893344 
        2.63898         3.53001        0.880257 
        2.65468         3.51134         0.86746 
        2.67044         3.48242        0.854862 
        2.68618         3.45765        0.842544 
        2.70184         3.42102        0.830518 
        2.71755         3.40046        0.818696 
        2.73329         3.37189        0.807087 
        2.74897         3.35917        0.795741 
        2.76462         3.32419        0.784638 
        2.78034          3.2815        0.773701 
        2.79607         3.25872        0.762961 
        2.81179          3.2457        0.752437 
        2.82749         3.19823        0.742124 
        2.84321         3.19177        0.731992 
        2.85893         3.16545        0.722053 
        2.87462         3.14157        0.712315 
        2.89033         3.11765        0.702749 
        2.90605         3.09241        0.693349 
        2.92176         3.05828        0.684126 
        2.93747         3.03881        0.675076 
        2.95318         3.01716        0.666188 
        2.96891         3.00532        0.657455 
        2.98456         2.97814        0.648918 
        3.00023         2.94913         0.64052 
        3.01596         2.93158        0.632245 
        3.03164         2.91191        0.624139 
        3.04738         2.88796        0.616152 
         3.0631         2.86531        0.608307 
        3.07883         2.85166        0.600599 
        3.09456         2.82606        0.593025 
        3.11026         2.80948        0.585593 
        3.12596         2.78211         0.57829 
        3.14163         2.76325        0.571128 
        3.15734         2.74464        0.564071 
        3.17308         2.72893        0.557116 
        3.18879         2.71328        0.550297 
        3.20447         2.70085        0.543603 
         3.2202         2.66711        0.536999 
         3.2359         2.66216        0.530516 
        3.25157         2.64147        0.524156 
        3.26729         2.61371        0.517881 
        3.28304         2.60917        0.511696 
        3.29877         2.58712         0.50562 
        3.31446         2.56492        0.499656 
        3.33014         2.55503        0.493794 
        3.34585         2.53777        0.488017 
        3.36158         2.52446        0.482323 
        3.37727         2.49136        0.476738 
        3.39294         2.49004        0.471247 
        3.40867         2.46332        0.465823 
        3.42439         2.45645        0.460486 
        3.44008         2.43865        0.455244 
        3.45578         2.42694         0.45008 
        3.47153         2.40676        0.444984 
        3.48724         2.39594        0.439976 
        3.50292         2.38662        0.435057 
        3.51859         2.36187        0.430215 
        3.53431          2.3487        0.425432 
        3.55007         2.33641         0.42071 
        3.56577          2.3167        0.416078 
        3.58146         2.30958        0.411518 
        3.59719         2.29656        0.407015 
        3.61292         2.28148        0.402582 
        3.62859          2.2624        0.398231 
        3.64429         2.24616        0.393937 
        3.66003         2.24271        0.389692 
        3.67578         2.22583        0.385511 
        3.69146         2.21033        0.381408 
        3.70712         2.19432        0.377372 
        3.72284         2.18328        0.373379 
        3.73853         2.17004        0.369451 
        3.75422         2.15795        0.365578 
        3.76993         2.13724        0.361757 
        3.78564         2.13179        0.357992 
        3.80137         2.12026        0.354275 
        3.81707         2.10018        0.350618 
        3.83279         2.08841         0.34701 
        3.84853         2.08603        0.343446 
        3.86424         2.06771         0.33994 
        3.87992         2.05799        0.336488 
        3.89561         2.04226        0.333084 
        3.91134         2.03806        0.329719 
        3.92704          2.0215        0.326405 
        3.94273         2.01078         0.32314 
        3.95845         1.99784        0.319914 
        3.97418         1.98472        0.316731 
        3.98988         1.96956        0.313595 
        4.00554         1.95438        0.310511 
        4.02125         1.95224        0.307459 
        4.03698         1.93714        0.304443 
        4.05268         1.92736        0.301475 
        4.06839         1.91506        0.298544 
         4.0841         1.90333        0.295653 
        4.09983         1.88907        0.292796 
        4.11555         1.87881        0.289978 
        4.13124         1.87001        0.287205 
        4.14693         1.85346        0.284466 
        4.16266         1.84317        0.281756 
        4.17839         1.82976        0.279083 
        4.19408         1.82148         0.27645 
        4.20977         1.80658        0.273851 
        4.22551         1.80013        0.271278 
        4.24123         1.78762        0.268742 
        4.25691          1.7761        0.266245 
        4.27259         1.76592        0.263778 
        4.28831         1.75619        0.261338 
        4.30404         1.74613        0.258926 
        4.31974         1.73647        0.256551 
        4.33543         1.72656        0.254206 
        4.35116         1.71949        0.251885 
        4.36688         1.70607        0.249593 
        4.38255         1.69289        0.247339 
        4.39825         1.68564        0.245108 
        4.41398         1.67603          0.2429 
         4.4297         1.66956        0.240721 
        4.44541         1.65891        0.238569 
        4.46111         1.65086        0.236446 
        4.47683         1.64214        0.234346 
        4.49251         1.63375        0.232277 
        4.50819         1.62733        0.230233 
         4.5239         1.61912         0.22821 
        4.53962         1.61064         0.22621 
        4.55535         1.60218        0.224232 
        4.57106         1.59259        0.222281 
        4.58678         1.58596        0.220352 
         4.6025         1.57875        0.218446 
        4.61821         1.56671        0.216563 
        4.63391         1.56061        0.214705 
         4.6496         1.55401        0.212869 
        4.66532         1.54891        0.211051 
        4.68103         1.54099        0.209256 
        4.69673         1.53326        0.207483 
        4.71241         1.52677        0.205733 
        4.72811         1.51755        0.203999 
        4.74384         1.51254        0.202284 
        4.75955         1.50405        0.200591 
        4.77525          1.4972        0.198918 
        4.79096         1.49234        0.197262 
        4.80669          1.4816        0.195625 
         4.8224         1.47974        0.194007 
        4.83809         1.47301         0.19241 
        4.85379         1.46329         0.19083 
         4.8695         1.45881        0.189266 
        4.88521         1.45214         0.18772 
        4.90093         1.44511        0.186191 
        4.91663         1.44053        0.184681 
        4.93234         1.43527        0.183186 
        4.94807         1.42529        0.181706 
        4.96377         1.42058        0.180246 
        4.97943         1.41565        0.178804 
        4.99514         1.40823        0.177375 
        5.01086         1.40583         0.17596 
        5.02654         1.39854        0.174564 
        5.04227         1.39323         0.17318 
          5.058          1.3872        0.171809 
        5.07371         1.38156        0.170456 
        5.08942         1.37473        0.169118 
        5.10513          1.3686        0.167794 
        5.12084         1.36494        0.166483 
        5.13656         1.35953        0.165186 
        5.15225         1.35485        0.163906 
        5.16796         1.34959        0.162637 
        5.18369         1.34295         0.16138 
         5.1994          1.3392        0.160139 
        5.21509         1.33362        0.158912 
        5.23079         1.33059        0.157696 
        5.24649         1.32627        0.156494 
        5.26217         1.31887        0.155305 
        5.27788         1.31244        0.154127 
        5.29359         1.31011        0.152961 
        5.30933          1.3061        0.151806 
        5.32504         1.30071        0.150664 
        5.34073         1.29707        0.149535 
        5.35646         1.29403        0.148416 
        5.37218         1.28739        0.147308 
        5.38789         1.28322        0.146213 
        5.40357         1.27624         0.14513 
        5.41929         1.27057        0.144056 
        5.43502         1.26804        0.142992 
         5.4507         1.26167        0.141942 
        5.46639         1.25996        0.140902 
        5.48212          1.2556         0.13987 
        5.49786         1.25005        0.138848 
        5.51353           1.244         0.13784 
        5.52921         1.23979        0.136842 
        5.54495         1.23575         0.13585 
        5.56066         1.23536         0.13487 
        5.57637         1.22941        0.133899 
        5.59207         1.22554        0.132939 
        5.60778         1.22041        0.131987 
        5.62346         1.21764        0.131046 
        5.63916         1.21622        0.130114 
        5.65487         1.21001         0.12919 
         5.6706         1.20803        0.128274 
        5.68633         1.20286        0.127367 
        5.70203         1.19837         0.12647 
        5.71773         1.19439        0.125582 
        5.73344         1.19183        0.124702 
        5.74916         1.18708         0.12383 
        5.76486         1.18208        0.122967 
        5.78054         1.18203        0.122114 
        5.79626         1.17795        0.121266 
          5.812         1.17182        0.120426 
         5.8277          1.1691        0.119596 
        5.84339         1.16696        0.118773 
        5.85911         1.16405        0.117957 
        5.87484         1.16136        0.117149 
        5.89053         1.15536         0.11635 
        5.90623         1.15198        0.115558 
        5.92195         1.14989        0.114772 
        5.93767         1.14655        0.113994 
        5.95336         1.13997        0.113224 
        5.96905         1.13804        0.112462 
        5.98476          1.1355        0.111705 
        6.00048         1.13109        0.110956 
        6.01617         1.12857        0.110214 
        6.03185         1.12364         0.10948 
        6.04756         1.12308        0.108751 
        6.06331         1.11988        0.108026 
        6.07903         1.11819         0.10731 
        6.09473         1.11363        0.106602 
        6.11044         1.11291        0.105898 
        6.12616         1.10647        0.105202 
        6.14186         1.10284        0.104512 
        6.15755         1.10332        0.103829 
        6.17326          1.0981        0.103151 
        6.18898         1.09608        0.102478 
        6.20467         1.09354        0.101813 
        6.22036         1.08731        0.101154 
         6.2361          1.0873        0.100499 
         6.2518         1.08205       0.0998513 
        6.26748         1.08094       0.0992103 
        6.28319         1.07656       0.0985731 
        6.29893         1.07432        0.097941 
        6.31463         1.06964       0.0973155 
        6.33033         1.06721       0.0966957 
        6.34604         1.06396       0.0960808 
        6.36177         1.06272       0.0954707 
        6.37747         1.06049        0.094867 
