# k  (h/Mpc)    Pcb(k)  (Mpc/h)^3    Pcb_linear(k) (Mpc/h)^3   ShotnoiseSubtracted = true
      0.0200456         14831.8         15066.2 
      0.0350414         11262.7         10952.6 
      0.0492313         7851.37         7957.95 
      0.0637834         6342.85         6615.38 
      0.0800726         4990.28         5250.46 
       0.096163         3947.15         3809.67 
       0.111083         3210.94         3038.69 
       0.126058         2666.34          2692.9 
       0.142273         2311.76         2281.48 
       0.158546         1898.98         1801.89 
        0.17375         1672.04         1518.09 
       0.188953         1560.91         1374.59 
       0.204907         1336.45         1216.24 
       0.220756         1200.94         1029.01 
        0.23588         1069.35         895.149 
         0.2514         959.268         813.234 
       0.267535         930.743         735.837 
       0.283568         817.453         648.909 
       0.299022         780.515         578.145 
       0.314451         798.656         528.385 
       0.330372         688.963         484.734 
       0.346141         636.578          439.97 
       0.361624         609.508         399.872 
       0.377134         575.884         367.946 
       0.392932         555.632         340.453 
       0.408854         529.292         313.832 
       0.424564         513.612         289.263 
       0.440253         467.682         268.181 
       0.455999         447.955         249.848 
       0.471626         453.559         233.001 
        0.48727          428.77         217.242 
       0.502856          397.77         203.084 
       0.518488         396.863         190.452 
       0.534347         370.894         178.708 
       0.550082         357.381          167.88 
       0.565732         355.175         157.974 
       0.581496         342.354         148.901 
       0.597222         332.446          140.58 
       0.612804         324.185         132.929 
       0.628434         311.469         125.797 
       0.644267         298.922          119.13 
       0.660051          294.63         112.985 
       0.675724         290.358         107.311 
       0.691403         282.986         102.021 
       0.707174         272.384         97.0586 
       0.722871         268.231         92.4458 
        0.73838         265.283         88.1821 
       0.754018         253.763         84.1552 
       0.769845         252.965          80.336 
        0.78569         246.829         76.7505 
       0.801365         239.976         73.4196 
       0.817031         235.741         70.2895 
       0.832809         231.718         67.3228 
       0.848511         225.765         64.5415 
       0.864097         220.439         61.9372 
       0.879701         219.382         59.4748 
       0.895507         213.954         57.1178 
       0.911279         207.857         54.8941 
        0.92691         205.455         52.8077 
       0.942635         203.732         50.8187 
       0.958396         198.711         48.9284 
       0.974128         195.304         47.1381 
       0.989692         188.978         45.4555 
        1.00528         188.311         43.8529 
        1.02113         184.864         42.3027 
        1.03692         181.103         40.8335 
        1.05264         178.343         39.4411 
        1.06832         177.525         38.1161 
        1.08405         172.586         36.8487 
        1.09979         171.529         35.6383 
        1.11537         168.048         34.4946 
        1.13105         165.434         33.3944 
        1.14679         163.479         32.3382 
        1.16256         160.876         31.3257 
        1.17828         159.045         30.3601 
        1.19395         154.937         29.4386 
         1.2097         154.119         28.5508 
        1.22537          152.56          27.704 
          1.241         149.152         26.8942 
        1.25666         146.871         26.1149 
        1.27241         143.453          25.363 
        1.28819         142.401         24.6394 
        1.30392         140.257         23.9463 
        1.31957         137.245         23.2831 
        1.33529         135.843         22.6426 
        1.35108         134.079         22.0237 
        1.36674         131.734         21.4324 
         1.3824         131.206         20.8635 
        1.39811         127.927         20.3134 
        1.41389         126.577         19.7811 
        1.42964          124.35         19.2688 
        1.44531         123.203         18.7772 
        1.46101         120.647         18.3018 
        1.47667         120.487         17.8442 
        1.49229         118.701         17.4036 
        1.50793         116.446         16.9774 
        1.52367         114.936         16.5628 
        1.53953         113.306         16.1593 
        1.55526         112.423         15.7724 
        1.57092         111.018         15.3999 
        1.58662         109.206         15.0385 
        1.60235         107.522         14.6881 
        1.61809         106.783         14.3487 
        1.63369         104.759          14.023 
        1.64941         104.475         13.7052 
        1.66519          102.56          13.396 
        1.68085         100.889         13.0987 
        1.69652         99.7269         12.8103 
        1.71228         98.8038         12.5289 
        1.72806         97.5601         12.2558 
        1.74368         95.8519         11.9936 
        1.75933         95.2074         11.7385 
        1.77505         93.7143         11.4897 
        1.79081         92.4323         11.2477 
         1.8065         91.1864         11.0137 
        1.82218         90.1024         10.7866 
        1.83797         89.7353         10.5643 
        1.85367          87.704         10.3495 
        1.86928         87.3437          10.142 
        1.88497         86.1074         9.93912 
        1.90073          85.317           9.741 
        1.91647         83.7147         9.54847 
        1.93218         82.7116         9.36156 
        1.94787         81.7122         9.17994 
        1.96363         80.8468         9.00242 
        1.97935         80.1574         8.82997 
        1.99499         79.2713         8.66302 
        2.01064         77.6637         8.50014 
         2.0264         76.9342         8.34044 
        2.04216         75.7887         8.18493 
        2.05781         75.1833         8.03437 
        2.07353         74.2381         7.88706 
        2.08928         73.2357         7.74313 
        2.10499         72.2865         7.60318 
        2.12065         71.8937         7.46712 
        2.13633         71.0453         7.33427 
        2.15211         69.8391          7.2038 
        2.16785         68.7326         7.07687 
        2.18349         68.0747          6.9538 
        2.19916         67.3394          6.8334 
        2.21489         66.3664         6.71545 
        2.23063         65.6047         6.60021 
         2.2463         65.1099          6.4882 
        2.26194         64.3112         6.37907 
        2.27765         63.4915         6.27189 
        2.29341         62.7429          6.1669 
        2.30914         61.9957         6.06453 
        2.32486         60.8179         5.96454 
        2.34061         60.5219         5.86664 
        2.35635         59.7827         5.77103 
        2.37203         59.0082         5.67789 
        2.38768         58.4544         5.58699 
        2.40339          57.756         5.49775 
        2.41914         56.9123         5.41026 
        2.43483         56.5267         5.32498 
         2.4505         55.8383         5.24169 
        2.46622          55.335         5.15989 
        2.48195         54.5438         5.07983 
        2.49759         54.0072          5.0019 
        2.51328         53.5053         4.92541 
        2.52906         52.7711         4.85003 
        2.54479          52.165         4.77651 
        2.56049         51.4018         4.70465 
        2.57618         50.9109         4.63434 
        2.59189         50.5494         4.56536 
        2.60758         49.7527         4.49789 
        2.62325          49.352         4.43187 
        2.63898          48.799         4.36695 
        2.65468         48.2876         4.30346 
        2.67044         47.7449         4.24096 
        2.68618         47.3605         4.17985 
        2.70184         46.5336         4.12019 
        2.71755         46.1128         4.06154 
        2.73329         45.7255         4.00395 
        2.74897         45.3803         3.94766 
        2.76462         44.7563         3.89258 
        2.78034         44.2337         3.83832 
        2.79607         43.6443         3.78504 
        2.81179         43.2933         3.73283 
        2.82749          42.862         3.68167 
        2.84321         42.5062         3.63141 
        2.85893         41.9021          3.5821 
        2.87462         41.2437         3.53379 
        2.89033         41.0099         3.48633 
        2.90605         40.4695          3.4397 
        2.92176         40.1632         3.39394 
        2.93747         39.7562         3.34904 
        2.95318         39.4195         3.30495 
        2.96891         38.8861         3.26163 
        2.98456         38.5752         3.21928 
        3.00023          38.092         3.17761 
        3.01596         37.7972         3.13656 
        3.03164         37.3299         3.09635 
        3.04738         36.8801         3.05672 
         3.0631         36.7402          3.0178 
        3.07883         36.2804         2.97956 
        3.09456         35.7981         2.94199 
        3.11026         35.3783         2.90512 
        3.12596         35.0474         2.86889 
        3.14163         34.7137         2.83336 
        3.15734         34.4506         2.79835 
        3.17308         34.1478         2.76385 
        3.18879          33.669         2.73002 
        3.20447         33.2396         2.69681 
         3.2202         33.0019         2.66404 
         3.2359         32.7655         2.63188 
        3.25157         32.3699         2.60033 
        3.26729         32.0868          2.5692 
        3.28304         31.8166         2.53852 
        3.29877         31.3053         2.50838 
        3.31446         31.1299         2.47879 
        3.33014         30.6884         2.44971 
        3.34585         30.4446         2.42105 
        3.36158         30.1202          2.3928 
        3.37727         29.8744         2.36509 
        3.39294         29.6143         2.33785 
        3.40867         29.3323         2.31094 
        3.42439         29.0658         2.28447 
        3.44008         28.7698         2.25846 
        3.45578         28.4886         2.23284 
        3.47153         28.2381         2.20756 
        3.48724         27.9189         2.18271 
        3.50292         27.7226         2.15831 
        3.51859          27.365         2.13429 
        3.53431         27.1003         2.11056 
        3.55007         26.8013         2.08714 
        3.56577         26.5166         2.06416 
        3.58146         26.3288         2.04153 
        3.59719         26.1154          2.0192 
        3.61292         25.9145          1.9972 
        3.62859         25.6093         1.97562 
        3.64429            25.3         1.95431 
        3.66003         25.1585         1.93326 
        3.67578         24.8826         1.91252 
        3.69146         24.7723         1.89216 
        3.70712         24.4466         1.87214 
        3.72284         24.2908         1.85233 
        3.73853         24.0493         1.83284 
        3.75422         23.7751         1.81363 
        3.76993         23.5409         1.79467 
        3.78564         23.3461         1.77599 
        3.80137         23.0885         1.75755 
        3.81707         22.9152         1.73941 
        3.83279         22.6981         1.72151 
        3.84853         22.5418         1.70383 
        3.86424          22.229         1.68644 
        3.87992         22.0424         1.66931 
        3.89561         21.9416         1.65242 
        3.91134         21.6595         1.63573 
        3.92704         21.4867         1.61929 
        3.94273         21.2635          1.6031 
        3.95845         21.1424         1.58709 
        3.97418         20.9307          1.5713 
        3.98988         20.7026         1.55574 
        4.00554         20.5282         1.54044 
        4.02125         20.3355          1.5253 
        4.03698         20.1896         1.51034 
        4.05268         20.0032         1.49561 
        4.06839         19.8517         1.48107 
         4.0841         19.6903         1.46673 
        4.09983         19.4591         1.45256 
        4.11555         19.2747         1.43858 
        4.13124         19.1982         1.42482 
        4.14693         18.9904         1.41123 
        4.16266         18.8219         1.39779 
        4.17839         18.6749         1.38453 
        4.19408         18.4589         1.37147 
        4.20977          18.362         1.35857 
        4.22551         18.1559         1.34581 
        4.24123           18.01         1.33323 
        4.25691         17.8384         1.32084 
        4.27259          17.717          1.3086 
        4.28831         17.5556          1.2965 
        4.30404         17.3991         1.28453 
        4.31974         17.2864         1.27274 
        4.33543         17.1573         1.26111 
        4.35116         16.9623          1.2496 
        4.36688         16.8335         1.23823 
        4.38255         16.6474         1.22705 
        4.39825         16.5374         1.21598 
        4.41398         16.3897         1.20502 
         4.4297         16.3021         1.19421 
        4.44541         16.1011         1.18354 
        4.46111         15.9329           1.173 
        4.47683         15.8418         1.16259 
        4.49251         15.7663         1.15232 
        4.50819         15.6115         1.14218 
         4.5239         15.4658         1.13215 
        4.53962          15.374         1.12222 
        4.55535          15.197         1.11241 
        4.57106         15.1036         1.10273 
        4.58678         14.9491         1.09316 
         4.6025         14.8178         1.08371 
        4.61821         14.7272         1.07437 
        4.63391         14.5858         1.06515 
         4.6496         14.4407         1.05604 
        4.66532         14.3445         1.04702 
        4.68103         14.2602         1.03812 
        4.69673         14.1267         1.02932 
        4.71241         14.0306         1.02064 
        4.72811         13.8977         1.01204 
        4.74384         13.7781         1.00353 
        4.75955         13.6923        0.995129 
        4.77525          13.557         0.98683 
        4.79096         13.4198        0.978616 
        4.80669         13.3622        0.970491 
         4.8224          13.227        0.962468 
        4.83809         13.1327        0.954543 
        4.85379           13.04        0.946703 
         4.8695         12.9127        0.938945 
        4.88521         12.8053        0.931277 
        4.90093         12.7229        0.923693 
        4.91663         12.6466        0.916201 
        4.93234         12.5524        0.908783 
        4.94807         12.4525        0.901443 
        4.96377         12.3624        0.894197 
        4.97943         12.2626        0.887047 
        4.99514         12.1608        0.879956 
        5.01086         12.0645        0.872937 
        5.02654         11.9717        0.866012 
        5.04227         11.8648        0.859142 
          5.058         11.7711        0.852344 
        5.07371         11.6917        0.845632 
        5.08942         11.5854        0.838992 
        5.10513         11.5297        0.832422 
        5.12084         11.4063        0.825919 
        5.13656         11.3514        0.819487 
        5.15225         11.2677        0.813134 
        5.16796         11.1755        0.806838 
        5.18369         11.0673        0.800604 
         5.1994         11.0165        0.794446 
        5.21509         10.9146        0.788359 
        5.23079         10.8334        0.782328 
        5.24649         10.7499        0.776365 
        5.26217         10.6656        0.770468 
        5.27788         10.5894        0.764624 
        5.29359         10.5148         0.75884 
        5.30933         10.4212        0.753107 
        5.32504         10.3584        0.747443 
        5.34073         10.2907        0.741843 
        5.35646         10.2287         0.73629 
        5.37218         10.1116        0.730792 
        5.38789         10.0532        0.725359 
        5.40357         9.99393        0.719987 
        5.41929         9.94442        0.714658 
        5.43502         9.85497        0.709383 
         5.4507         9.75613        0.704173 
        5.46639           9.696        0.699014 
        5.48212         9.63003        0.693895 
        5.49786         9.56489        0.688822 
        5.51353         9.48757        0.683824 
        5.52921         9.41699        0.678871 
        5.54495         9.33605        0.673952 
        5.56066         9.29453        0.669087 
        5.57637         9.21765        0.664271 
        5.59207         9.16703        0.659506 
        5.60778         9.08496        0.654787 
        5.62346         9.02036         0.65012 
        5.63916         8.96667        0.645494 
        5.65487          8.9001        0.640911 
         5.6706         8.81621        0.636367 
        5.68633         8.75644        0.631865 
        5.70203         8.70454        0.627416 
        5.71773         8.64153        0.623011 
        5.73344         8.60003        0.618645 
        5.74916         8.53142        0.614317 
        5.76486         8.47005        0.610037 
        5.78054         8.41582        0.605804 
        5.79626         8.32156        0.601599 
          5.812         8.27646         0.59743 
         5.8277          8.2321        0.593312 
        5.84339         8.16037        0.589234 
        5.85911         8.12864        0.585185 
        5.87484         8.05087        0.581176 
        5.89053         8.00733        0.577212 
        5.90623         7.94587        0.573283 
        5.92195         7.90203        0.569384 
        5.93767         7.83225        0.565523 
        5.95336         7.79444        0.561704 
        5.96905         7.74642        0.557922 
        5.98476         7.69002         0.55417 
        6.00048         7.62235         0.55045 
        6.01617         7.57653         0.54677 
        6.03185         7.53044        0.543128 
        6.04756         7.48568         0.53951 
        6.06331         7.43307        0.535918 
        6.07903         7.39215        0.532366 
        6.09473         7.32555        0.528849 
        6.11044         7.29106        0.525361 
        6.12616         7.23713        0.521905 
        6.14186         7.19335        0.518483 
        6.15755         7.14134        0.515092 
        6.17326         7.09987        0.511729 
        6.18898         7.05222        0.508394 
        6.20467         6.99064        0.505095 
        6.22036         6.95304        0.501826 
         6.2361         6.90389        0.498576 
         6.2518          6.8673        0.495361 
        6.26748          6.8114        0.492181 
        6.28319         6.77546         0.48902 
        6.29893         6.73067        0.485884 
        6.31463         6.68196        0.482781 
        6.33033         6.64755        0.479706 
        6.34604         6.59808        0.476656 
        6.36177         6.55448        0.473629 
        6.37747         6.50498        0.470634 
