# k  (h/Mpc)    Pcb(k)  (Mpc/h)^3    Pcb_linear(k) (Mpc/h)^3   ShotnoiseSubtracted = true
      0.0200456         1160.06         1174.95 
      0.0350414         864.733         854.148 
      0.0492313         622.574         620.608 
      0.0637834         510.585         515.905 
      0.0800726         404.182         409.461 
       0.096163         301.854           297.1 
       0.111083         242.218         236.975 
       0.126058         208.924         210.008 
       0.142273         176.627         177.923 
       0.158546         141.782         140.522 
        0.17375         120.917         118.389 
       0.188953         108.627         107.199 
       0.204907         93.5873         94.8492 
       0.220756         81.4267         80.2481 
        0.23588         71.0062         69.8089 
         0.2514         64.3974         63.4207 
       0.267535         58.9188         57.3848 
       0.283568         51.8521         50.6057 
       0.299022          46.751         45.0871 
       0.314451         43.6423         41.2065 
       0.330372         39.3487         37.8024 
       0.346141         35.8347         34.3114 
       0.361624         32.6471         31.1844 
       0.377134         29.8991         28.6945 
       0.392932         28.6594         26.5505 
       0.408854         25.9287         24.4744 
       0.424564         24.6125         22.5584 
       0.440253         22.4756         20.9143 
       0.455999         20.5808         19.4846 
       0.471626         19.3295         18.1708 
        0.48727         18.6005         16.9418 
       0.502856          17.414         15.8377 
       0.518488         16.0746         14.8525 
       0.534347         15.0482         13.9367 
       0.550082         14.4252         13.0923 
       0.565732         13.7918         12.3197 
       0.581496         12.9655         11.6122 
       0.597222         12.2039         10.9633 
       0.612804         11.5172         10.3666 
       0.628434         11.1477          9.8104 
       0.644267         10.5761         9.29044 
       0.660051         10.0103         8.81121 
       0.675724         9.46445          8.3687 
       0.691403         9.14864          7.9562 
       0.707174          8.7075         7.56919 
       0.722871         8.47632         7.20946 
        0.73838         7.93081         6.87695 
       0.754018         7.56603         6.56291 
       0.769845         7.21967         6.26506 
        0.78569         7.03152         5.98545 
       0.801365         6.71713         5.72569 
       0.817031         6.48796         5.48158 
       0.832809         6.16848         5.25022 
       0.848511         5.99267         5.03332 
       0.864097         5.77175         4.83022 
       0.879701         5.62154         4.63819 
       0.895507         5.38231         4.45438 
       0.911279         5.18133         4.28096 
        0.92691         5.03202         4.11825 
       0.942635         4.82474         3.96314 
       0.958396         4.66755         3.81572 
       0.974128         4.54457         3.67611 
       0.989692         4.33636         3.54488 
        1.00528         4.25053          3.4199 
        1.02113         4.11933         3.29901 
        1.03692         4.01056         3.18443 
        1.05264         3.84902         3.07585 
        1.06832          3.7507         2.97251 
        1.08405         3.63983         2.87367 
        1.09979         3.54989         2.77928 
        1.11537         3.44282         2.69009 
        1.13105         3.32871         2.60429 
        1.14679         3.24478         2.52192 
        1.16256         3.14076         2.44296 
        1.17828         3.09735         2.36766 
        1.19395         2.98103         2.29579 
         1.2097         2.89744         2.22655 
        1.22537         2.80537         2.16052 
          1.241         2.74886         2.09737 
        1.25666         2.70824         2.03659 
        1.27241         2.64216         1.97795 
        1.28819         2.53711         1.92153 
        1.30392         2.47791         1.86747 
        1.31957         2.44039         1.81575 
        1.33529         2.34637          1.7658 
        1.35108         2.30394         1.71753 
        1.36674         2.24334         1.67143 
         1.3824         2.21538         1.62706 
        1.39811         2.15229         1.58416 
        1.41389         2.09882         1.54264 
        1.42964         2.05394         1.50269 
        1.44531         2.01833         1.46436 
        1.46101         1.96778         1.42728 
        1.47667         1.93067          1.3916 
        1.49229         1.86513         1.35724 
        1.50793         1.82042           1.324 
        1.52367         1.78827         1.29166 
        1.53953         1.74425         1.26019 
        1.55526         1.73962         1.23003 
        1.57092         1.69607         1.20097 
        1.58662         1.67622         1.17279 
        1.60235         1.61759         1.14546 
        1.61809         1.59219         1.11899 
        1.63369         1.55373          1.0936 
        1.64941         1.52886         1.06881 
        1.66519         1.50632          1.0447 
        1.68085         1.46732         1.02151 
        1.69652         1.44148        0.999018 
        1.71228         1.41081        0.977076 
        1.72806         1.38928        0.955778 
        1.74368         1.36384        0.935329 
        1.75933         1.34289        0.915439 
        1.77505         1.31855        0.896036 
        1.79081         1.28356        0.877161 
         1.8065         1.27063        0.858912 
        1.82218         1.23979          0.8412 
        1.83797         1.21786        0.823866 
        1.85367         1.19967        0.807117 
        1.86928         1.17902        0.790936 
        1.88497         1.15449         0.77511 
        1.90073         1.14547         0.75966 
        1.91647         1.11457        0.744645 
        1.93218         1.10048        0.730069 
        1.94787         1.08238        0.715905 
        1.96363         1.06734        0.702061 
        1.97935         1.04635        0.688612 
        1.99499         1.03053        0.675592 
        2.01064         1.01465        0.662891 
         2.0264        0.993217        0.650436 
        2.04216        0.983259        0.638308 
        2.05781        0.963932        0.626567 
        2.07353        0.953371        0.615079 
        2.08928        0.936061        0.603854 
        2.10499        0.921183         0.59294 
        2.12065        0.905816        0.582329 
        2.13633        0.894501        0.571969 
        2.15211        0.875354        0.561794 
        2.16785        0.867571        0.551895 
        2.18349        0.852228        0.542297 
        2.19916        0.842935        0.532908 
        2.21489        0.829663         0.52371 
        2.23063        0.812992        0.514723 
         2.2463         0.80286        0.505988 
        2.26194        0.793766        0.497477 
        2.27765        0.780458        0.489119 
        2.29341        0.770277        0.480931 
        2.30914        0.755381        0.472947 
        2.32486        0.748537         0.46515 
        2.34061        0.736742        0.457515 
        2.35635        0.726415        0.450059 
        2.37203        0.717262        0.442795 
        2.38768        0.707989        0.435706 
        2.40339        0.700149        0.428747 
        2.41914        0.690815        0.421924 
        2.43483        0.680798        0.415273 
         2.4505        0.670925        0.408777 
        2.46622        0.662575        0.402398 
        2.48195        0.653152        0.396155 
        2.49759        0.645775        0.390077 
        2.51328        0.634831        0.384112 
        2.52906        0.628697        0.378233 
        2.54479        0.619017          0.3725 
        2.56049        0.612649        0.366896 
        2.57618        0.604953        0.361413 
        2.59189         0.59686        0.356033 
        2.60758        0.590799        0.350772 
        2.62325        0.582093        0.345623 
        2.63898        0.577277         0.34056 
        2.65468        0.566506        0.335609 
        2.67044        0.562003        0.330735 
        2.68618        0.556835        0.325969 
        2.70184        0.547718        0.321316 
        2.71755        0.541606        0.316743 
        2.73329        0.536656        0.312251 
        2.74897        0.528643        0.307861 
        2.76462        0.522106        0.303566 
        2.78034        0.516601        0.299335 
        2.79607        0.511832        0.295179 
        2.81179        0.504383        0.291108 
        2.82749        0.499338        0.287118 
        2.84321        0.492705        0.283198 
        2.85893        0.486761        0.279353 
        2.87462        0.481336        0.275585 
        2.89033        0.479304        0.271884 
        2.90605        0.473358        0.268248 
        2.92176        0.468279        0.264679 
        2.93747        0.462468        0.261178 
        2.95318        0.457592        0.257739 
        2.96891        0.454314        0.254361 
        2.98456        0.446427        0.251058 
        3.00023        0.443151        0.247809 
        3.01596        0.438674        0.244607 
        3.03164        0.434127        0.241471 
        3.04738        0.429571        0.238381 
         3.0631        0.424213        0.235346 
        3.07883        0.420705        0.232364 
        3.09456        0.417501        0.229433 
        3.11026        0.412446        0.226558 
        3.12596        0.407684        0.223733 
        3.14163        0.405751        0.220962 
        3.15734        0.401056        0.218232 
        3.17308        0.396802        0.215541 
        3.18879        0.393759        0.212903 
        3.20447        0.389104        0.210313 
         3.2202        0.384879        0.207758 
         3.2359        0.381419         0.20525 
        3.25157        0.375762        0.202789 
        3.26729        0.375421        0.200361 
        3.28304        0.371377        0.197968 
        3.29877        0.367954        0.195618 
        3.31446        0.365912         0.19331 
        3.33014        0.360647        0.191042 
        3.34585        0.357861        0.188807 
        3.36158        0.354951        0.186605 
        3.37727        0.352087        0.184444 
        3.39294        0.349925        0.182319 
        3.40867        0.344969        0.180221 
        3.42439        0.342889        0.178156 
        3.44008         0.33982        0.176128 
        3.45578        0.336773         0.17413 
        3.47153         0.33478        0.172158 
        3.48724        0.331745        0.170221 
        3.50292        0.328687        0.168318 
        3.51859        0.326388        0.166444 
        3.53431         0.32329        0.164594 
        3.55007         0.32107        0.162767 
        3.56577        0.318141        0.160975 
        3.58146        0.315593        0.159211 
        3.59719        0.313312        0.157469 
        3.61292        0.310729        0.155754 
        3.62859        0.308506         0.15407 
        3.64429        0.305753        0.152409 
        3.66003        0.302962        0.150767 
        3.67578        0.301438        0.149149 
        3.69146        0.298305        0.147562 
        3.70712        0.297133           0.146 
        3.72284        0.295309        0.144455 
        3.73853        0.292882        0.142936 
        3.75422        0.289983        0.141437 
        3.76993        0.287895        0.139959 
        3.78564        0.285229        0.138502 
        3.80137        0.283346        0.137064 
        3.81707        0.281796        0.135649 
        3.83279        0.279509        0.134253 
        3.84853        0.276982        0.132875 
        3.86424        0.275745        0.131518 
        3.87992        0.273425        0.130183 
        3.89561        0.271378        0.128866 
        3.91134        0.269073        0.127564 
        3.92704        0.266892        0.126282 
        3.94273        0.265908        0.125019 
        3.95845        0.263396         0.12377 
        3.97418        0.262084        0.122539 
        3.98988        0.259331        0.121326 
        4.00554        0.256738        0.120133 
        4.02125        0.254673        0.118952 
        4.03698        0.251988        0.117785 
        4.05268        0.249044        0.116637 
        4.06839        0.247357        0.115503 
         4.0841        0.244493        0.114384 
        4.09983        0.242691        0.113279 
        4.11555        0.239723        0.112189 
        4.13124        0.237799        0.111116 
        4.14693        0.235366        0.110056 
        4.16266         0.23267        0.109008 
        4.17839        0.230791        0.107973 
        4.19408        0.228655        0.106955 
        4.20977        0.227224        0.105949 
        4.22551        0.224966        0.104954 
        4.24123        0.222699        0.103973 
        4.25691        0.221486        0.103007 
        4.27259        0.219325        0.102052 
        4.28831         0.21801        0.101108 
        4.30404        0.215862        0.100175 
        4.31974        0.214474        0.099256 
        4.33543        0.212774       0.0983488 
        4.35116        0.211814       0.0974508 
        4.36688        0.210144       0.0965644 
        4.38255         0.20795       0.0956922 
        4.39825        0.207266        0.094829 
        4.41398        0.205872       0.0939746 
         4.4297        0.204583       0.0931317 
        4.44541        0.203118       0.0922993 
        4.46111        0.202274       0.0914777 
        4.47683        0.201401       0.0906655 
        4.49251        0.199942       0.0898648 
        4.50819        0.199451       0.0890739 
         4.5239        0.198357       0.0882915 
        4.53962        0.197015       0.0875175 
        4.55535        0.196232       0.0867523 
        4.57106        0.195688       0.0859974 
        4.58678        0.194182       0.0852513 
         4.6025        0.194143       0.0845139 
        4.61821        0.193746       0.0837854 
        4.63391        0.192998       0.0830663 
         4.6496        0.192005        0.082356 
        4.66532        0.191625       0.0816529 
        4.68103          0.1907       0.0809583 
        4.69673        0.190574       0.0802724 
        4.71241        0.190142       0.0795952 
        4.72811        0.190311       0.0789247 
        4.74384        0.189481        0.078261 
        4.75955        0.189037       0.0776059 
        4.77525        0.189009       0.0769587 
        4.79096        0.188615       0.0763181 
        4.80669        0.188247       0.0756845 
         4.8224        0.188457       0.0750588 
        4.83809        0.188023       0.0744408 
        4.85379        0.187994       0.0738294 
         4.8695        0.188637       0.0732244 
        4.88521        0.188068       0.0726264 
        4.90093        0.188461        0.072035 
        4.91663         0.18833       0.0714506 
        4.93234        0.188215       0.0708722 
        4.94807         0.18881       0.0702998 
        4.96377        0.189229       0.0697347 
        4.97943        0.189572        0.069177 
        4.99514        0.188734       0.0686241 
        5.01086        0.190423       0.0680767 
        5.02654        0.190281       0.0675367 
        5.04227        0.190776       0.0670009 
          5.058        0.191853       0.0664707 
        5.07371        0.191631       0.0659473 
        5.08942        0.192835       0.0654294 
        5.10513        0.193431       0.0649171 
        5.12084        0.193773         0.06441 
        5.13656        0.194408       0.0639084 
        5.15225        0.195303       0.0634129 
        5.16796        0.196413        0.062922 
        5.18369        0.196952       0.0624357 
         5.1994        0.198215       0.0619555 
        5.21509        0.198218       0.0614808 
        5.23079        0.199295       0.0610105 
        5.24649        0.200437       0.0605455 
        5.26217        0.201829       0.0600856 
        5.27788        0.202386       0.0596298 
        5.29359        0.204014       0.0591787 
        5.30933        0.205095       0.0587317 
        5.32504        0.205983       0.0582899 
        5.34073        0.207941       0.0578532 
        5.35646        0.208786       0.0574201 
        5.37218        0.210195       0.0569914 
        5.38789        0.210626       0.0565677 
        5.40357        0.212464       0.0561488 
        5.41929        0.213676       0.0557332 
        5.43502        0.216041       0.0553218 
         5.4507        0.217079       0.0549155 
        5.46639        0.218755       0.0545132 
        5.48212         0.21993        0.054114 
        5.49786        0.221587       0.0537183 
        5.51353        0.224643       0.0533286 
        5.52921        0.224511       0.0529423 
        5.54495         0.22713       0.0525587 
        5.56066        0.228753       0.0521793 
        5.57637        0.230473       0.0518037 
        5.59207        0.232641       0.0514321 
        5.60778        0.234049       0.0510641 
        5.62346        0.236897       0.0507001 
        5.63916        0.237983       0.0503394 
        5.65487        0.240427        0.049982 
         5.6706        0.240971       0.0496276 
        5.68633        0.244839       0.0492765 
        5.70203        0.247748       0.0489295 
        5.71773        0.248415        0.048586 
        5.73344        0.250859       0.0482455 
        5.74916        0.253714        0.047908 
        5.76486        0.256207       0.0475742 
        5.78054        0.257171       0.0472441 
        5.79626        0.259458       0.0469162 
          5.812        0.262791        0.046591 
         5.8277        0.264836       0.0462699 
        5.84339        0.266835       0.0459519 
        5.85911         0.27034       0.0456361 
        5.87484        0.271879       0.0453235 
        5.89053        0.275007       0.0450143 
        5.90623        0.276282       0.0447079 
        5.92195        0.279114       0.0444038 
        5.93767        0.281277       0.0441028 
        5.95336        0.283538        0.043805 
        5.96905        0.286755         0.04351 
        5.98476        0.289632       0.0432174 
        6.00048        0.291216       0.0429273 
        6.01617        0.295743       0.0426403 
        6.03185        0.297274       0.0423563 
        6.04756        0.298767       0.0420742 
        6.06331        0.301585        0.041794 
        6.07903        0.305909        0.041517 
        6.09473        0.307719       0.0412427 
        6.11044        0.309967       0.0409707 
        6.12616        0.313479       0.0407012 
        6.14186        0.315711       0.0404343 
        6.15755        0.320261       0.0401699 
        6.17326        0.321473       0.0399076 
        6.18898        0.323515       0.0396476 
        6.20467         0.32437       0.0393903 
        6.22036        0.330333       0.0391353 
         6.2361        0.330513       0.0388819 
         6.2518        0.334792       0.0386311 
        6.26748        0.336724       0.0383831 
        6.28319        0.341056       0.0381366 
        6.29893        0.342477       0.0378921 
        6.31463        0.345417       0.0376501 
        6.33033        0.348057       0.0374103 
        6.34604        0.351954       0.0371724 
        6.36177        0.352637       0.0369363 
        6.37747        0.355803       0.0367028 
