# k  (h/Mpc)    Pcb(k)  (Mpc/h)^3    Pcb_linear(k) (Mpc/h)^3   ShotnoiseSubtracted = true
      0.0200456          2997.9         3036.93 
      0.0350414         2245.27         2207.75 
      0.0492313         1605.86         1604.11 
      0.0637834         1311.07         1333.48 
      0.0800726         1036.89         1058.35 
       0.096163         785.108         767.925 
       0.111083         632.614         612.517 
       0.126058         539.581         542.814 
       0.142273         457.555         459.883 
       0.158546          370.41         363.211 
        0.17375         317.928         306.005 
       0.188953         287.032         277.081 
       0.204907         245.104          245.16 
       0.220756         216.047          207.42 
        0.23588         189.186         180.438 
         0.2514           170.9         163.926 
       0.267535         159.179         148.325 
       0.283568           139.5         130.802 
       0.299022         128.116         116.538 
       0.314451         121.401         106.508 
       0.330372         107.846         97.7091 
       0.346141         98.8267         88.6859 
       0.361624         91.2277         80.6034 
       0.377134          83.353         74.1678 
       0.392932         80.7729          68.626 
       0.408854         74.2637         63.2599 
       0.424564         70.7971         58.3076 
       0.440253         64.5163         54.0579 
       0.455999         59.1318         50.3626 
       0.471626         56.1955         46.9667 
        0.48727         54.5934           43.79 
       0.502856         50.7404         40.9362 
       0.518488         47.8541         38.3899 
       0.534347         45.1069         36.0227 
       0.550082         43.4038           33.84 
       0.565732         41.8123         31.8432 
       0.581496          39.117         30.0144 
       0.597222         37.1622         28.3371 
       0.612804         35.5495         26.7948 
       0.628434         34.8639         25.3573 
       0.644267         32.9595         24.0133 
       0.660051         31.3901         22.7747 
       0.675724         30.0097         21.6309 
       0.691403         29.4513         20.5647 
       0.707174         28.2959         19.5644 
       0.722871         27.3411         18.6346 
        0.73838         25.9641         17.7751 
       0.754018         24.6404         16.9634 
       0.769845         24.1032         16.1935 
        0.78569         23.2973         15.4708 
       0.801365         22.4905         14.7994 
       0.817031         21.6476         14.1684 
       0.832809         21.0892         13.5704 
       0.848511         20.3998         13.0098 
       0.864097         19.7689         12.4848 
       0.879701         19.4496         11.9885 
       0.895507         18.7073         11.5134 
       0.911279         17.9699         11.0651 
        0.92691         17.6469         10.6446 
       0.942635         17.2294         10.2437 
       0.958396         16.6647         9.86263 
       0.974128         16.2424         9.50176 
       0.989692         15.5383         9.16259 
        1.00528         15.4384         8.83954 
        1.02113         14.9257         8.52707 
        1.03692         14.5975         8.23092 
        1.05264         14.2834         7.95025 
        1.06832         13.9854         7.68316 
        1.08405         13.5932         7.42768 
        1.09979         13.2779         7.18372 
        1.11537         12.9319         6.95317 
        1.13105         12.7217          6.7314 
        1.14679         12.4267         6.51849 
        1.16256         12.1703         6.31441 
        1.17828         11.9179         6.11976 
        1.19395         11.7154         5.93401 
         1.2097         11.3547         5.75506 
        1.22537         11.1673         5.58437 
          1.241         10.8907         5.42114 
        1.25666         10.8231         5.26406 
        1.27241         10.5969         5.11248 
        1.28819         10.1721         4.96664 
        1.30392         10.1769         4.82693 
        1.31957         9.90683         4.69323 
        1.33529         9.78272         4.56412 
        1.35108         9.58835         4.43937 
        1.36674         9.36223          4.3202 
         1.3824         9.24545         4.20551 
        1.39811         9.08801         4.09463 
        1.41389         8.89559         3.98733 
        1.42964          8.7754         3.88406 
        1.44531         8.61765         3.78497 
        1.46101         8.51577         3.68914 
        1.47667         8.34785         3.59691 
        1.49229         8.14333          3.5081 
        1.50793         8.06708         3.42219 
        1.52367         7.93067         3.33861 
        1.53953         7.78982         3.25727 
        1.55526         7.69804         3.17929 
        1.57092         7.58719          3.1042 
        1.58662         7.45538         3.03136 
        1.60235         7.37061         2.96072 
        1.61809         7.26442          2.8923 
        1.63369         7.11625         2.82666 
        1.64941         7.01515         2.76259 
        1.66519         6.93087         2.70028 
        1.68085          6.8115         2.64033 
        1.69652         6.75567          2.5822 
        1.71228         6.68151         2.52548 
        1.72806         6.54654         2.47043 
        1.74368         6.48563         2.41758 
        1.75933         6.39634         2.36617 
        1.77505         6.27325         2.31602 
        1.79081         6.22913         2.26723 
         1.8065         6.17489         2.22006 
        1.82218         6.07652         2.17428 
        1.83797         5.96804         2.12948 
        1.85367         5.89665         2.08618 
        1.86928         5.84743         2.04436 
        1.88497         5.75785         2.00345 
        1.90073         5.68821         1.96352 
        1.91647         5.58333         1.92471 
        1.93218         5.54723         1.88704 
        1.94787         5.47134         1.85042 
        1.96363          5.4181         1.81464 
        1.97935         5.37852         1.77988 
        1.99499         5.30317         1.74623 
        2.01064         5.23845          1.7134 
         2.0264         5.18481         1.68121 
        2.04216         5.13025         1.64986 
        2.05781         5.06893         1.61951 
        2.07353         5.01709         1.58982 
        2.08928         4.92555          1.5608 
        2.10499         4.88848         1.53259 
        2.12065         4.89304         1.50517 
        2.13633         4.81888         1.47839 
        2.15211           4.742         1.45209 
        2.16785         4.68257          1.4265 
        2.18349         4.67162          1.4017 
        2.19916         4.60951         1.37743 
        2.21489         4.56106         1.35365 
        2.23063         4.51089         1.33042 
         2.2463         4.45579         1.30784 
        2.26194         4.40579         1.28585 
        2.27765         4.35015         1.26424 
        2.29341         4.30337         1.24308 
        2.30914         4.27758         1.22244 
        2.32486         4.23815         1.20229 
        2.34061         4.20148         1.18256 
        2.35635         4.15674         1.16328 
        2.37203          4.1347         1.14451 
        2.38768         4.10118         1.12618 
        2.40339         4.03939          1.1082 
        2.41914         4.00628         1.09056 
        2.43483         3.96052         1.07337 
         2.4505         3.92715         1.05658 
        2.46622         3.89444         1.04009 
        2.48195         3.87771         1.02396 
        2.49759         3.81734         1.00825 
        2.51328         3.79306        0.992828 
        2.52906         3.75202        0.977633 
        2.54479         3.72415        0.962813 
        2.56049         3.69009         0.94833 
        2.57618         3.65824        0.934157 
        2.59189         3.65877        0.920252 
        2.60758         3.61255        0.906653 
        2.62325         3.54849        0.893344 
        2.63898         3.53898        0.880257 
        2.65468         3.50259         0.86746 
        2.67044         3.49147        0.854862 
        2.68618         3.46267        0.842544 
        2.70184         3.43106        0.830518 
        2.71755         3.38692        0.818696 
        2.73329         3.36887        0.807087 
        2.74897         3.33823        0.795741 
        2.76462         3.30842        0.784638 
        2.78034          3.2921        0.773701 
        2.79607         3.25937        0.762961 
        2.81179         3.23347        0.752437 
        2.82749          3.1988        0.742124 
        2.84321          3.1853        0.731992 
        2.85893          3.1525        0.722053 
        2.87462         3.13432        0.712315 
        2.89033          3.1219        0.702749 
        2.90605         3.09037        0.693349 
        2.92176           3.055        0.684126 
        2.93747         3.03986        0.675076 
        2.95318         3.01276        0.666188 
        2.96891         3.00002        0.657455 
        2.98456         2.97552        0.648918 
        3.00023         2.95985         0.64052 
        3.01596         2.92588        0.632245 
        3.03164         2.90494        0.624139 
        3.04738         2.89267        0.616152 
         3.0631         2.87096        0.608307 
        3.07883         2.84927        0.600599 
        3.09456         2.81836        0.593025 
        3.11026         2.80579        0.585593 
        3.12596         2.78821         0.57829 
        3.14163         2.77205        0.571128 
        3.15734         2.74569        0.564071 
        3.17308         2.73099        0.557116 
        3.18879         2.71581        0.550297 
        3.20447          2.6898        0.543603 
         3.2202         2.68049        0.536999 
         3.2359         2.66276        0.530516 
        3.25157         2.63957        0.524156 
        3.26729         2.61941        0.517881 
        3.28304         2.60291        0.511696 
        3.29877          2.5801         0.50562 
        3.31446         2.56909        0.499656 
        3.33014         2.55303        0.493794 
        3.34585         2.53788        0.488017 
        3.36158         2.51306        0.482323 
        3.37727         2.50936        0.476738 
        3.39294         2.48729        0.471247 
        3.40867         2.47589        0.465823 
        3.42439         2.45238        0.460486 
        3.44008         2.43644        0.455244 
        3.45578         2.42307         0.45008 
        3.47153         2.41186        0.444984 
        3.48724         2.39728        0.439976 
        3.50292         2.37597        0.435057 
        3.51859         2.36562        0.430215 
        3.53431         2.34457        0.425432 
        3.55007         2.34332         0.42071 
        3.56577         2.31957        0.416078 
        3.58146         2.30758        0.411518 
        3.59719         2.29796        0.407015 
        3.61292         2.27983        0.402582 
        3.62859         2.26881        0.398231 
        3.64429         2.25232        0.393937 
        3.66003         2.23929        0.389692 
        3.67578         2.22644        0.385511 
        3.69146         2.20723        0.381408 
        3.70712         2.19712        0.377372 
        3.72284         2.18266        0.373379 
        3.73853         2.17206        0.369451 
        3.75422          2.1581        0.365578 
        3.76993         2.14217        0.361757 
        3.78564         2.12734        0.357992 
        3.80137         2.11531        0.354275 
        3.81707         2.10448        0.350618 
        3.83279         2.09723         0.34701 
        3.84853         2.07983        0.343446 
        3.86424          2.0653         0.33994 
        3.87992         2.05453        0.336488 
        3.89561          2.0439        0.333084 
        3.91134         2.03396        0.329719 
        3.92704         2.01694        0.326405 
        3.94273         2.00738         0.32314 
        3.95845          1.9928        0.319914 
        3.97418         1.98356        0.316731 
        3.98988         1.97497        0.313595 
        4.00554          1.9652        0.310511 
        4.02125         1.94738        0.307459 
        4.03698         1.94144        0.304443 
        4.05268         1.92449        0.301475 
        4.06839           1.915        0.298544 
         4.0841         1.90045        0.295653 
        4.09983         1.88604        0.292796 
        4.11555          1.8773        0.289978 
        4.13124         1.86575        0.287205 
        4.14693         1.85242        0.284466 
        4.16266         1.84676        0.281756 
        4.17839         1.83338        0.279083 
        4.19408         1.81953         0.27645 
        4.20977         1.80865        0.273851 
        4.22551         1.80415        0.271278 
        4.24123         1.78934        0.268742 
        4.25691         1.77796        0.266245 
        4.27259         1.76495        0.263778 
        4.28831         1.76121        0.261338 
        4.30404          1.7475        0.258926 
        4.31974         1.73726        0.256551 
        4.33543         1.72366        0.254206 
        4.35116          1.7196        0.251885 
        4.36688         1.70861        0.249593 
        4.38255         1.70209        0.247339 
        4.39825         1.68923        0.245108 
        4.41398         1.67956          0.2429 
         4.4297         1.67131        0.240721 
        4.44541         1.65653        0.238569 
        4.46111          1.6531        0.236446 
        4.47683         1.64569        0.234346 
        4.49251         1.63211        0.232277 
        4.50819         1.62649        0.230233 
         4.5239         1.61603         0.22821 
        4.53962         1.60769         0.22621 
        4.55535         1.60122        0.224232 
        4.57106         1.59164        0.222281 
        4.58678         1.58333        0.220352 
         4.6025         1.57576        0.218446 
        4.61821         1.57137        0.216563 
        4.63391         1.56215        0.214705 
         4.6496         1.55144        0.212869 
        4.66532         1.54839        0.211051 
        4.68103         1.53484        0.209256 
        4.69673         1.53148        0.207483 
        4.71241         1.52386        0.205733 
        4.72811         1.51986        0.203999 
        4.74384         1.51031        0.202284 
        4.75955         1.50639        0.200591 
        4.77525         1.49538        0.198918 
        4.79096         1.48607        0.197262 
        4.80669         1.48172        0.195625 
         4.8224         1.47752        0.194007 
        4.83809         1.47114         0.19241 
        4.85379         1.46623         0.19083 
         4.8695         1.45248        0.189266 
        4.88521         1.45173         0.18772 
        4.90093         1.44702        0.186191 
        4.91663         1.43797        0.184681 
        4.93234         1.43468        0.183186 
        4.94807          1.4246        0.181706 
        4.96377         1.41923        0.180246 
        4.97943         1.41427        0.178804 
        4.99514         1.40836        0.177375 
        5.01086         1.40086         0.17596 
        5.02654         1.39471        0.174564 
        5.04227         1.39109         0.17318 
          5.058         1.38547        0.171809 
        5.07371         1.38282        0.170456 
        5.08942         1.37617        0.169118 
        5.10513         1.36966        0.167794 
        5.12084         1.36283        0.166483 
        5.13656         1.35907        0.165186 
        5.15225         1.35272        0.163906 
        5.16796         1.34705        0.162637 
        5.18369         1.34438         0.16138 
         5.1994          1.3395        0.160139 
        5.21509         1.33116        0.158912 
        5.23079         1.32822        0.157696 
        5.24649         1.32326        0.156494 
        5.26217         1.31872        0.155305 
        5.27788         1.31082        0.154127 
        5.29359         1.30664        0.152961 
        5.30933           1.304        0.151806 
        5.32504         1.29729        0.150664 
        5.34073         1.29347        0.149535 
        5.35646         1.28841        0.148416 
        5.37218         1.28437        0.147308 
        5.38789         1.27987        0.146213 
        5.40357         1.27635         0.14513 
        5.41929         1.27476        0.144056 
        5.43502         1.26531        0.142992 
         5.4507         1.26164        0.141942 
        5.46639         1.25982        0.140902 
        5.48212         1.25342         0.13987 
        5.49786         1.24818        0.138848 
        5.51353         1.24625         0.13784 
        5.52921         1.23985        0.136842 
        5.54495          1.2384         0.13585 
        5.56066         1.23433         0.13487 
        5.57637         1.23017        0.133899 
        5.59207         1.22398        0.132939 
        5.60778         1.22278        0.131987 
        5.62346         1.21628        0.131046 
        5.63916         1.21524        0.130114 
        5.65487         1.20846         0.12919 
         5.6706         1.20425        0.128274 
        5.68633          1.2006        0.127367 
        5.70203         1.19928         0.12647 
        5.71773         1.19346        0.125582 
        5.73344         1.19175        0.124702 
        5.74916         1.18737         0.12383 
        5.76486         1.18181        0.122967 
        5.78054          1.1805        0.122114 
        5.79626         1.17671        0.121266 
          5.812         1.17277        0.120426 
         5.8277         1.16784        0.119596 
        5.84339         1.16783        0.118773 
        5.85911         1.16254        0.117957 
        5.87484         1.15748        0.117149 
        5.89053           1.154         0.11635 
        5.90623         1.15226        0.115558 
        5.92195         1.14988        0.114772 
        5.93767         1.14469        0.113994 
        5.95336         1.13988        0.113224 
        5.96905         1.13616        0.112462 
        5.98476         1.13457        0.111705 
        6.00048         1.13237        0.110956 
        6.01617         1.12588        0.110214 
        6.03185         1.12474         0.10948 
        6.04756         1.12403        0.108751 
        6.06331         1.11827        0.108026 
        6.07903         1.11739         0.10731 
        6.09473         1.11294        0.106602 
        6.11044          1.1097        0.105898 
        6.12616         1.10543        0.105202 
        6.14186         1.10288        0.104512 
        6.15755         1.10052        0.103829 
        6.17326         1.09811        0.103151 
        6.18898         1.09465        0.102478 
        6.20467         1.08943        0.101813 
        6.22036         1.08871        0.101154 
         6.2361         1.08526        0.100499 
         6.2518          1.0844       0.0998513 
        6.26748         1.07952       0.0992103 
        6.28319         1.07746       0.0985731 
        6.29893         1.07271        0.097941 
        6.31463          1.0717       0.0973155 
        6.33033         1.06655       0.0966957 
        6.34604         1.06432       0.0960808 
        6.36177         1.06282       0.0954707 
        6.37747         1.06017        0.094867 
