# k  (h/Mpc)    Pcb(k)  (Mpc/h)^3    Pcb_linear(k) (Mpc/h)^3   ShotnoiseSubtracted = true
      0.0200456           23732         24099.7 
      0.0350414         15926.6         15265.4 
      0.0492313         10248.6         10371.4 
      0.0637834         8146.87         8495.32 
      0.0800726         6149.68         6444.55 
       0.096163         4734.22         4399.48 
       0.111083         3803.28         3483.59 
       0.126058         3155.59         3115.35 
       0.142273         2696.67         2544.63 
       0.158546         2157.12         1933.13 
        0.17375         1916.15         1641.05 
       0.188953         1812.67          1496.5 
       0.204907         1532.87         1289.23 
       0.220756         1373.52         1062.83 
        0.23588         1220.39         929.363 
         0.2514         1094.49         849.081 
       0.267535          1052.6         755.043 
       0.283568         927.212         654.063 
       0.299022          877.72         583.247 
       0.314451         912.247         534.756 
       0.330372         789.797         485.596 
       0.346141         723.299         435.361 
       0.361624         690.947         394.826 
       0.377134         659.762         363.595 
       0.392932          624.06         334.516 
       0.408854         598.403         305.836 
       0.424564         581.568         280.904 
       0.440253         533.399         260.171 
       0.455999         507.545         241.532 
       0.471626         516.951         224.027 
        0.48727         483.572         208.095 
       0.502856         461.755         194.179 
       0.518488         447.137         181.604 
       0.534347         428.235         169.776 
       0.550082         406.724         158.957 
       0.565732         400.636         149.246 
       0.581496         389.468         140.336 
       0.597222           379.6          132.13 
       0.612804         368.501         124.592 
       0.628434         353.995         117.637 
       0.644267         341.781         111.162 
       0.660051         337.927          105.19 
       0.675724         328.691          99.685 
       0.691403         321.536         94.5661 
       0.707174         309.802         89.7749 
       0.722871         306.355         85.3319 
        0.73838         298.694         81.2347 
       0.754018         289.218         77.3739 
       0.769845         288.332         73.7205 
        0.78569         279.634         70.2987 
       0.801365         270.232         67.1268 
       0.817031         269.216         64.1525 
       0.832809         263.045         61.3393 
       0.848511         258.594         58.7071 
       0.864097         249.822          56.247 
       0.879701         249.998         53.9252 
       0.895507         241.588         51.7069 
       0.911279         236.658         49.6176 
        0.92691         234.263         47.6608 
       0.942635         230.779         45.7984 
       0.958396         224.416         44.0312 
       0.974128         222.092         42.3602 
       0.989692         214.605         40.7921 
        1.00528         213.259         39.3008 
        1.02113         211.144         37.8605 
        1.03692         206.942         36.4974 
        1.05264         202.721         35.2075 
        1.06832         199.893         33.9817 
        1.08405         197.002         32.8108 
        1.09979         193.356         31.6943 
        1.11537         191.138         30.6405 
        1.13105          187.03         29.6283 
        1.14679         185.465         28.6577 
        1.16256         182.596         27.7286 
        1.17828         180.101         26.8436 
        1.19395         175.737         26.0001 
         1.2097         175.237         25.1884 
        1.22537         173.085         24.4151 
          1.241         167.316         23.6766 
        1.25666         167.193         22.9666 
        1.27241         164.233         22.2824 
        1.28819         162.105         21.6248 
        1.30392         160.582         20.9955 
        1.31957         156.734         20.3939 
        1.33529         153.669         19.8137 
        1.35108         153.489         19.2536 
        1.36674          149.08         18.7191 
         1.3824          148.18         18.2053 
        1.39811           147.1         17.7091 
        1.41389         143.796         17.2293 
        1.42964         141.038         16.7681 
        1.44531         140.657         16.3259 
        1.46101         138.067         15.8986 
        1.47667         136.934         15.4879 
        1.49229         135.572         15.0927 
        1.50793         132.703         14.7108 
        1.52367         130.597         14.3396 
        1.53953         128.834         13.9786 
        1.55526         127.514          13.633 
        1.57092         126.459         13.3003 
        1.58662         124.101          12.978 
        1.60235         122.727         12.6656 
        1.61809          120.72         12.3633 
        1.63369         118.752         12.0735 
        1.64941         118.125          11.791 
        1.66519         115.651         11.5163 
        1.68085         114.266         11.2524 
        1.69652         113.309         10.9966 
        1.71228         111.191         10.7472 
        1.72806         110.565         10.5054 
        1.74368         109.516         10.2734 
        1.75933         108.033         10.0479 
        1.77505         106.582         9.82809 
        1.79081         105.034         9.61444 
         1.8065         103.194         9.40801 
        1.82218         101.938         9.20781 
        1.83797         101.139         9.01202 
        1.85367         99.9922         8.82299 
        1.86928         99.1602         8.64048 
        1.88497         97.6268         8.46211 
        1.90073         96.8441          8.2881 
        1.91647         95.0115         8.11911 
        1.93218         93.9963         7.95517 
        1.94787         92.3535         7.79598 
        1.96363         91.9385         7.64048 
        1.97935         90.7433         7.48953 
        1.99499         89.8686         7.34348 
        2.01064         88.4935          7.2011 
         2.0264         87.1985         7.06158 
        2.04216         86.2095         6.92581 
        2.05781         85.0293         6.79444 
        2.07353         84.5016           6.666 
        2.08928         83.2778         6.54058 
        2.10499         82.6832          6.4187 
        2.12065         81.2495         6.30028 
        2.13633         80.5044         6.18472 
        2.15211         79.1361         6.07131 
        2.16785         78.2971         5.96104 
        2.18349         77.0071         5.85418 
        2.19916         76.9148         5.74971 
        2.21489         75.7285         5.64743 
        2.23063         74.3525         5.54755 
         2.2463         73.6021         5.45052 
        2.26194         73.2221         5.35604 
        2.27765         71.8174          5.2633 
        2.29341         71.1711         5.17251 
        2.30914          70.094         5.08403 
        2.32486         69.3587         4.99766 
        2.34061          68.316         4.91315 
        2.35635         68.0487         4.83065 
        2.37203         66.8708         4.75032 
        2.38768         66.3541         4.67197 
        2.40339         65.2923         4.59509 
        2.41914         64.6072         4.51976 
        2.43483         64.0645         4.44637 
         2.4505         63.1193         4.37473 
        2.46622         62.4591         4.30441 
        2.48195         62.1619         4.23562 
        2.49759         61.0249         4.16869 
        2.51328         60.3066         4.10303 
        2.52906         59.6736         4.03835 
        2.54479          58.992         3.97531 
        2.56049         58.3111         3.91372 
        2.57618         57.5867         3.85348 
        2.59189         56.8867         3.79442 
        2.60758         56.3265         3.73668 
        2.62325         55.7127          3.6802 
        2.63898         55.3751         3.62468 
        2.65468         54.5128         3.57042 
        2.67044         54.0225         3.51704 
        2.68618         53.7621         3.46486 
        2.70184         52.8459         3.41394 
        2.71755         52.3391         3.36391 
        2.73329         51.5954          3.3148 
        2.74897         51.2302         3.26683 
        2.76462         50.5121          3.2199 
        2.78034         49.9199          3.1737 
        2.79607         49.7131         3.12835 
        2.81179         49.0495         3.08394 
        2.82749         48.7287         3.04043 
        2.84321         48.0118          2.9977 
        2.85893         47.4603         2.95581 
        2.87462         47.2411         2.91478 
        2.89033         46.3613         2.87449 
        2.90605         45.9863         2.83492 
        2.92176         45.4728         2.79611 
        2.93747         45.1564         2.75804 
        2.95318         44.6278         2.72067 
        2.96891         44.0249         2.68397 
        2.98456         43.5215         2.64811 
        3.00023         43.3174         2.61285 
        3.01596         42.5579         2.57811 
        3.03164         42.0806          2.5441 
        3.04738         41.7221          2.5106 
         3.0631         41.3529         2.47771 
        3.07883         40.7932         2.44541 
        3.09456         40.3796         2.41368 
        3.11026         40.1406         2.38256 
        3.12596         39.6542         2.35199 
        3.14163         39.2569         2.32202 
        3.15734         38.7407         2.29251 
        3.17308         38.5617         2.26343 
        3.18879         38.1668         2.23493 
        3.20447         37.7858         2.20696 
         3.2202         37.3106         2.17938 
         3.2359         37.0062         2.15232 
        3.25157         36.7198         2.12577 
        3.26729         36.1697          2.0996 
        3.28304         35.8576         2.07381 
        3.29877         35.4676         2.04848 
        3.31446         35.1399         2.02363 
        3.33014          34.854         1.99921 
        3.34585          34.374         1.97515 
        3.36158         34.1534         1.95145 
        3.37727         33.6084         1.92821 
        3.39294         33.4562         1.90537 
        3.40867         33.1318         1.88282 
        3.42439         32.7913         1.86064 
        3.44008         32.4957         1.83885 
        3.45578         32.1093          1.8174 
        3.47153         31.8121         1.79624 
        3.48724         31.4748         1.77545 
        3.50292         31.2222         1.75504 
        3.51859         30.8822         1.73496 
        3.53431          30.594         1.71513 
        3.55007         30.3351         1.69555 
        3.56577         30.0593         1.67636 
        3.58146         29.7704         1.65747 
        3.59719         29.5102         1.63882 
        3.61292         29.2253         1.62047 
        3.62859         28.9123         1.60246 
        3.64429         28.6391          1.5847 
        3.66003         28.4835         1.56714 
        3.67578          28.164         1.54986 
        3.69146         27.8369          1.5329 
        3.70712         27.5429         1.51622 
        3.72284          27.327         1.49973 
        3.73853         27.1074         1.48351 
        3.75422         26.7512         1.46752 
        3.76993         26.6226         1.45176 
        3.78564         26.3504         1.43623 
        3.80137         26.1926          1.4209 
        3.81707         25.8327         1.40582 
        3.83279         25.7052         1.39095 
        3.84853         25.3738         1.37627 
        3.86424         25.2109         1.36183 
        3.87992         24.9541         1.34761 
        3.89561         24.6513          1.3336 
        3.91134         24.4376         1.31976 
        3.92704         24.2657         1.30612 
        3.94273          24.025          1.2927 
        3.95845         23.8051         1.27943 
        3.97418         23.5834         1.26635 
        3.98988         23.3334         1.25346 
        4.00554         23.1954         1.24079 
        4.02125         22.9447         1.22826 
        4.03698         22.7253         1.21588 
        4.05268         22.5749          1.2037 
        4.06839         22.2852         1.19167 
         4.0841         22.1635         1.17981 
        4.09983          21.881          1.1681 
        4.11555          21.746         1.15655 
        4.13124         21.5272         1.14518 
        4.14693         21.3097         1.13396 
        4.16266         21.1271         1.12286 
        4.17839         20.9938         1.11191 
        4.19408         20.8118         1.10114 
        4.20977         20.6098          1.0905 
        4.22551          20.473         1.07997 
        4.24123         20.2369          1.0696 
        4.25691         20.0685         1.05938 
        4.27259         19.9715          1.0493 
        4.28831         19.7162         1.03933 
        4.30404         19.5734         1.02948 
        4.31974         19.3822         1.01977 
        4.33543         19.2506         1.01019 
        4.35116         19.1004         1.00072 
        4.36688         18.9494        0.991367 
        4.38255         18.7692        0.982168 
        4.39825         18.6162        0.973066 
        4.41398         18.4213         0.96406 
         4.4297         18.2957        0.955177 
        4.44541          18.133        0.946407 
        4.46111         17.9876        0.937753 
        4.47683         17.8698          0.9292 
        4.49251         17.6714         0.92077 
        4.50819         17.5256        0.912447 
         4.5239          17.393        0.904214 
        4.53962         17.2466        0.896071 
        4.55535         17.0993        0.888024 
        4.57106         16.9616        0.880087 
        4.58678         16.7889        0.872244 
         4.6025         16.7144        0.864495 
        4.61821         16.5316         0.85684 
        4.63391         16.4205        0.849288 
         4.6496         16.3133        0.841829 
        4.66532         16.1388        0.834447 
        4.68103         16.0428        0.827157 
        4.69673         15.8724        0.819959 
        4.71241         15.7932        0.812855 
        4.72811         15.6013        0.805822 
        4.74384          15.498        0.798863 
        4.75955         15.3982        0.791996 
        4.77525         15.2755        0.785213 
        4.79096          15.162          0.7785 
        4.80669         15.0053        0.771863 
         4.8224         14.9226        0.765309 
        4.83809         14.7679        0.758839 
        4.85379         14.6636        0.752438 
         4.8695         14.5819        0.746106 
        4.88521         14.4176        0.739849 
        4.90093          14.334        0.733662 
        4.91663         14.2269        0.727551 
        4.93234         14.0747        0.721503 
        4.94807         14.0006        0.715518 
        4.96377         13.8796        0.709613 
        4.97943          13.797        0.703786 
        4.99514          13.674        0.698009 
        5.01086         13.5402        0.692292 
        5.02654         13.4566        0.686654 
        5.04227         13.3406        0.681061 
          5.058         13.2259        0.675527 
        5.07371         13.1263        0.670066 
        5.08942         13.0601        0.664663 
        5.10513         12.9696        0.659319 
        5.12084         12.8584        0.654031 
        5.13656         12.7464        0.648802 
        5.15225         12.6537        0.643637 
        5.16796         12.5414        0.638521 
        5.18369         12.4634        0.633455 
         5.1994         12.3372        0.628453 
        5.21509         12.2789         0.62351 
        5.23079         12.1537        0.618613 
        5.24649         12.0731        0.613772 
        5.26217         11.9934        0.608986 
        5.27788         11.9077        0.604244 
        5.29359         11.7785        0.599551 
        5.30933         11.7277        0.594901 
        5.32504         11.6234        0.590308 
        5.34073         11.5611        0.585768 
        5.35646         11.4599        0.581267 
        5.37218         11.3766        0.576811 
        5.38789         11.3045        0.572409 
        5.40357         11.2126        0.568058 
        5.41929         11.1285        0.563742 
        5.43502         11.0314         0.55947 
         5.4507         10.9606        0.555252 
        5.46639         10.9035        0.551077 
        5.48212         10.7998        0.546934 
        5.49786         10.7161        0.542829 
        5.51353         10.6553        0.538787 
        5.52921         10.5537        0.534781 
        5.54495         10.4705        0.530803 
        5.56066         10.4145        0.526871 
        5.57637         10.3281        0.522978 
        5.59207         10.2631        0.519128 
        5.60778         10.1903        0.515315 
        5.62346         10.1106        0.511545 
        5.63916         10.0648        0.507809 
        5.65487         9.96199        0.504108 
         5.6706         9.89953         0.50044 
        5.68633         9.84264        0.496806 
        5.70203         9.78487        0.493216 
        5.71773         9.70253        0.489662 
        5.73344         9.62055         0.48614 
        5.74916         9.55392         0.48265 
        5.76486         9.50805        0.479199 
        5.78054          9.4274        0.475786 
        5.79626         9.34764        0.472397 
          5.812         9.30085        0.469037 
         5.8277         9.22347        0.465719 
        5.84339         9.15269        0.462434 
        5.85911         9.10769        0.459173 
        5.87484         9.02414        0.455944 
        5.89053         8.96516        0.452753 
        5.90623         8.92598         0.44959 
        5.92195         8.85251        0.446452 
        5.93767         8.76277        0.443346 
        5.95336         8.72698        0.440274 
        5.96905         8.66027        0.437232 
        5.98476         8.61286        0.434214 
        6.00048         8.56423        0.431223 
        6.01617         8.50889        0.428265 
        6.03185         8.43259        0.425337 
        6.04756         8.38954         0.42243 
        6.06331          8.3243        0.419544 
        6.07903         8.26357         0.41669 
        6.09473         8.21865        0.413866 
        6.11044          8.1575        0.411065 
        6.12616         8.10018         0.40829 
        6.14186          8.0276        0.405543 
        6.15755         7.98619        0.402822 
        6.17326         7.94342        0.400123 
        6.18898         7.89211        0.397448 
        6.20467         7.82468        0.394801 
        6.22036         7.76997        0.392179 
         6.2361         7.74145        0.389574 
         6.2518         7.67526        0.386996 
        6.26748         7.61916        0.384447 
        6.28319         7.57602        0.381914 
        6.29893         7.52314        0.379401 
        6.31463         7.46957        0.376915 
        6.33033         7.43886        0.374452 
        6.34604         7.37937        0.372009 
        6.36177         7.34085        0.369585 
        6.37747         7.29517        0.367187 
