# k  (h/Mpc)    Pcb(k)  (Mpc/h)^3    Pcb_linear(k) (Mpc/h)^3   ShotnoiseSubtracted = true
      0.0200456         6378.53         6455.11 
      0.0350414         4207.17         4088.84 
      0.0492313         2781.67            2778 
      0.0637834         2224.57         2275.48 
      0.0800726          1683.9         1726.18 
       0.096163         1227.31          1178.4 
       0.111083         980.342         933.082 
       0.126058         832.505         834.448 
       0.142273         687.777         681.582 
       0.158546         542.647         517.789 
        0.17375         468.663         439.556 
       0.188953         428.418         400.839 
       0.204907         356.927          345.32 
       0.220756         311.298         284.681 
        0.23588         273.956         248.931 
         0.2514         245.703         227.427 
       0.267535         230.047         202.239 
       0.283568          198.16         175.191 
       0.299022         184.702         156.223 
       0.314451         177.561         143.235 
       0.330372         154.106         130.067 
       0.346141         140.845         116.612 
       0.361624         131.052         105.754 
       0.377134         119.645         97.3892 
       0.392932         115.277         89.6003 
       0.408854           107.6         81.9184 
       0.424564         101.875         75.2403 
       0.440253         92.3481          69.687 
       0.455999         84.8512         64.6944 
       0.471626         81.7851         60.0057 
        0.48727         78.5536         55.7384 
       0.502856         71.9721         52.0111 
       0.518488         69.5391         48.6427 
       0.534347         65.1257         45.4746 
       0.550082          63.021         42.5766 
       0.565732         60.9472         39.9757 
       0.581496         55.9229          37.589 
       0.597222         54.0444          35.391 
       0.612804         51.6879          33.372 
       0.628434         50.5592         31.5092 
       0.644267         47.6335         29.7748 
       0.660051          45.845         28.1751 
       0.675724         44.1601         26.7007 
       0.691403         43.1848         25.3296 
       0.707174          41.437         24.0463 
       0.722871         40.3157         22.8562 
        0.73838         38.5535         21.7588 
       0.754018         36.2926         20.7246 
       0.769845         35.8156         19.7461 
        0.78569         34.5478         18.8295 
       0.801365         33.3874           17.98 
       0.817031         32.0411         17.1833 
       0.832809         31.3543         16.4298 
       0.848511         30.4283         15.7247 
       0.864097         29.6884         15.0658 
       0.879701          28.988         14.4439 
       0.895507         27.8396         13.8497 
       0.911279         27.0657         13.2901 
        0.92691         26.5494          12.766 
       0.942635         25.8616         12.2671 
       0.958396         25.3937         11.7938 
       0.974128         24.6855         11.3462 
       0.989692         23.6881         10.9262 
        1.00528         23.3181         10.5267 
        1.02113           22.67          10.141 
        1.03692         22.3482         9.77586 
        1.05264          21.819         9.43035 
        1.06832         21.3252         9.10202 
        1.08405         20.7408         8.78841 
        1.09979         20.5016         8.48933 
        1.11537         19.7878         8.20709 
        1.13105         19.4339         7.93596 
        1.14679         18.9667         7.67599 
        1.16256         18.6894         7.42713 
        1.17828         18.3784         7.19008 
        1.19395         17.9083         6.96414 
         1.2097         17.7223         6.74673 
        1.22537         17.2819         6.53961 
          1.241         16.9243         6.34179 
        1.25666         16.6133         6.15163 
        1.27241         16.4096         5.96835 
        1.28819         15.8178          5.7922 
        1.30392         15.8363         5.62365 
        1.31957          15.504         5.46253 
        1.33529         15.1979         5.30711 
        1.35108         14.9666          5.1571 
        1.36674         14.7168         5.01393 
         1.3824         14.4084         4.87631 
        1.39811         14.1043         4.74338 
        1.41389         13.9302         4.61488 
        1.42964         13.8246         4.49134 
        1.44531         13.5303          4.3729 
        1.46101         13.3631         4.25846 
        1.47667         13.1182         4.14844 
        1.49229         12.7976         4.04259 
        1.50793         12.7224          3.9403 
        1.52367         12.5025         3.84087 
        1.53953         12.3905         3.74419 
        1.55526         12.1088          3.6516 
        1.57092         12.0304          3.5625 
        1.58662         11.8655         3.47615 
        1.60235         11.6925         3.39249 
        1.61809         11.4791         3.31153 
        1.63369         11.3405         3.23391 
        1.64941         11.1566         3.15821 
        1.66519         11.0794         3.08466 
        1.68085          10.796         3.01396 
        1.69652         10.7959         2.94544 
        1.71228         10.6254         2.87866 
        1.72806         10.4328         2.81388 
        1.74368         10.3527         2.75174 
        1.75933         10.2138         2.69134 
        1.77505         10.0714         2.63246 
        1.79081         9.95128         2.57523 
         1.8065         9.84376         2.51994 
        1.82218         9.76075         2.46632 
        1.83797         9.65922         2.41388 
        1.85367         9.55094         2.36324 
        1.86928         9.41862         2.31436 
        1.88497         9.28745         2.26658 
        1.90073         9.16733         2.21997 
        1.91647         8.99673         2.17471 
        1.93218         8.98079          2.1308 
        1.94787         8.83315         2.08816 
        1.96363         8.75668         2.04651 
        1.97935          8.6115         2.00608 
        1.99499         8.52244         1.96696 
        2.01064         8.42845         1.92882 
         2.0264          8.3151         1.89145 
        2.04216         8.31103         1.85508 
        2.05781         8.19484          1.8199 
        2.07353         8.10666         1.78549 
        2.08928         8.01257          1.7519 
        2.10499         7.91661         1.71925 
        2.12065         7.84538         1.68753 
        2.13633         7.74885         1.65658 
        2.15211         7.67118          1.6262 
        2.16785         7.59974         1.59667 
        2.18349         7.50041         1.56805 
        2.19916         7.45212         1.54006 
        2.21489         7.34581         1.51267 
        2.23063         7.31441         1.48591 
         2.2463         7.20167         1.45992 
        2.26194         7.14231         1.43462 
        2.27765         7.04642         1.40978 
        2.29341           6.994         1.38546 
        2.30914         6.92793         1.36176 
        2.32486         6.87996         1.33863 
        2.34061         6.80436         1.31599 
        2.35635         6.76099         1.29389 
        2.37203         6.66529         1.27238 
        2.38768         6.57656         1.25139 
        2.40339         6.56219          1.2308 
        2.41914         6.45734         1.21062 
        2.43483         6.43523         1.19096 
         2.4505         6.35822         1.17177 
        2.46622         6.30265         1.15294 
        2.48195         6.27503         1.13451 
        2.49759         6.18343         1.11659 
        2.51328         6.14177           1.099 
        2.52906         6.06826         1.08168 
        2.54479         6.03093         1.06479 
        2.56049         5.94322         1.04829 
        2.57618         5.92003         1.03216 
        2.59189         5.90635         1.01634 
        2.60758         5.81137         1.00087 
        2.62325         5.75798        0.985743 
        2.63898         5.74468        0.970874 
        2.65468         5.67317         0.95634 
        2.67044         5.64957        0.942041 
        2.68618         5.56084        0.928064 
        2.70184         5.53079        0.914426 
        2.71755         5.48803        0.901026 
        2.73329         5.42075        0.887872 
        2.74897         5.37754        0.875022 
        2.76462          5.3524        0.862453 
        2.78034         5.29122        0.850078 
        2.79607         5.27735        0.837931 
        2.81179         5.21429        0.826034 
        2.82749         5.17016         0.81438 
        2.84321          5.1393        0.802937 
        2.85893          5.1005        0.791715 
        2.87462         5.05503        0.780726 
        2.89033         5.00337        0.769934 
        2.90605         4.96726        0.759335 
        2.92176         4.93385         0.74894 
        2.93747          4.8857        0.738744 
        2.95318         4.84972        0.728734 
        2.96891         4.82139        0.718904 
        2.98456         4.76252        0.709298 
        3.00023         4.73717        0.699852 
        3.01596         4.69865        0.690548 
        3.03164         4.67062        0.681439 
        3.04738         4.63228        0.672466 
         3.0631         4.58595        0.663657 
        3.07883         4.54953        0.655004 
        3.09456         4.50445        0.646506 
        3.11026         4.47294         0.63817 
        3.12596         4.43787        0.629982 
        3.14163         4.42411        0.621956 
        3.15734         4.38521        0.614049 
        3.17308         4.36705         0.60626 
        3.18879         4.31925        0.598627 
        3.20447         4.27824        0.591135 
         3.2202         4.25766        0.583748 
         3.2359         4.22712        0.576499 
        3.25157          4.2015         0.56939 
        3.26729         4.17118        0.562378 
        3.28304         4.13465         0.55547 
        3.29877          4.1097        0.548687 
        3.31446         4.08467         0.54203 
        3.33014         4.04315        0.535489 
        3.34585         4.01771        0.529046 
        3.36158         3.98849        0.522698 
        3.37727         3.95018        0.516473 
        3.39294         3.92864        0.510355 
        3.40867         3.90119        0.504314 
        3.42439         3.88845        0.498373 
        3.44008         3.86083        0.492538 
        3.45578         3.82859        0.486792 
        3.47153         3.79534        0.481125 
        3.48724         3.75891        0.475557 
        3.50292         3.73738        0.470089 
        3.51859         3.71575         0.46471 
        3.53431         3.68255        0.459397 
        3.55007         3.66173        0.454155 
        3.56577         3.62825        0.449014 
        3.58146         3.61283        0.443954 
        3.59719         3.59183         0.43896 
        3.61292         3.56105        0.434044 
        3.62859         3.53677        0.429221 
        3.64429         3.51948        0.424462 
        3.66003         3.48609         0.41976 
        3.67578         3.48094        0.415131 
        3.69146         3.45532        0.410588 
        3.70712         3.42693        0.406121 
        3.72284         3.40958        0.401704 
        3.73853         3.38485         0.39736 
        3.75422         3.34445        0.393077 
        3.76993         3.34961        0.388854 
        3.78564         3.31872        0.384694 
        3.80137          3.2947        0.380588 
        3.81707         3.26365         0.37655 
        3.83279         3.24796        0.372567 
        3.84853         3.22326        0.368635 
        3.86424         3.19459        0.364767 
        3.87992         3.18619        0.360959 
        3.89561         3.16211        0.357206 
        3.91134         3.14082        0.353498 
        3.92704         3.12199        0.349846 
        3.94273         3.10477        0.346249 
        3.95845         3.08135        0.342696 
        3.97418         3.05362        0.339192 
        3.98988         3.03909        0.335741 
        4.00554            3.02        0.332347 
        4.02125         2.99297         0.32899 
        4.03698         2.97854        0.325674 
        4.05268         2.94691        0.322411 
        4.06839         2.93202         0.31919 
         4.0841         2.91205        0.316014 
        4.09983         2.89513        0.312876 
        4.11555         2.87688        0.309782 
        4.13124          2.8513        0.306737 
        4.14693         2.83396        0.303731 
        4.16266         2.81682        0.300758 
        4.17839         2.80364        0.297826 
        4.19408         2.78828         0.29494 
        4.20977         2.76924         0.29209 
        4.22551         2.74397        0.289271 
        4.24123         2.72664        0.286492 
        4.25691         2.71043        0.283757 
        4.27259         2.68973        0.281056 
        4.28831         2.67086        0.278385 
        4.30404          2.6578        0.275746 
        4.31974         2.64118        0.273146 
        4.33543         2.62134        0.270581 
        4.35116         2.60839        0.268043 
        4.36688         2.59355        0.265538 
        4.38255         2.57992        0.263074 
        4.39825          2.5589        0.260636 
        4.41398         2.54395        0.258224 
         4.4297         2.53289        0.255845 
        4.44541         2.51372        0.253496 
        4.46111         2.49464        0.251178 
        4.47683         2.48678        0.248887 
        4.49251          2.4635        0.246629 
        4.50819         2.45328        0.244399 
         4.5239         2.43159        0.242194 
        4.53962         2.42359        0.240013 
        4.55535         2.40565        0.237858 
        4.57106         2.38982        0.235732 
        4.58678         2.37945        0.233631 
         4.6025         2.36734        0.231556 
        4.61821         2.34808        0.229505 
        4.63391         2.33533        0.227482 
         4.6496         2.32208        0.225484 
        4.66532         2.30316        0.223507 
        4.68103         2.29446        0.221554 
        4.69673         2.28041        0.219627 
        4.71241         2.26539        0.217724 
        4.72811         2.25474         0.21584 
        4.74384         2.24876        0.213976 
        4.75955         2.22971        0.212137 
        4.77525         2.21936         0.21032 
        4.79096         2.20471        0.208522 
        4.80669         2.19548        0.206744 
         4.8224         2.17694        0.204989 
        4.83809         2.17132        0.203255 
        4.85379         2.15498        0.201541 
         4.8695         2.14903        0.199845 
        4.88521         2.13548        0.198169 
        4.90093         2.11921        0.196512 
        4.91663         2.11042        0.194875 
        4.93234         2.09194        0.193255 
        4.94807         2.09048        0.191652 
        4.96377         2.07872         0.19007 
        4.97943         2.06742         0.18851 
        4.99514         2.05641        0.186962 
        5.01086          2.0456        0.185431 
        5.02654         2.03447        0.183921 
        5.04227         2.02089        0.182423 
          5.058          2.0108         0.18094 
        5.07371         2.00157        0.179478 
        5.08942         1.98811         0.17803 
        5.10513         1.98113        0.176599 
        5.12084         1.96732        0.175183 
        5.13656         1.95671        0.173782 
        5.15225         1.94731        0.172399 
        5.16796         1.94085        0.171028 
        5.18369         1.92801        0.169671 
         5.1994         1.91945        0.168332 
        5.21509         1.90817        0.167007 
        5.23079         1.89618        0.165696 
        5.24649         1.89283        0.164399 
        5.26217         1.88328        0.163117 
        5.27788         1.86692        0.161847 
        5.29359         1.86577         0.16059 
        5.30933         1.85473        0.159345 
        5.32504         1.84428        0.158114 
        5.34073         1.83201        0.156898 
        5.35646         1.82423        0.155693 
        5.37218         1.81976        0.154499 
        5.38789          1.8089         0.15332 
        5.40357         1.80073        0.152155 
        5.41929         1.79163        0.150999 
        5.43502          1.7821        0.149854 
         5.4507         1.77333        0.148725 
        5.46639         1.75886        0.147606 
        5.48212         1.75436        0.146497 
        5.49786         1.75259        0.145397 
        5.51353         1.74042        0.144314 
        5.52921         1.73285        0.143241 
        5.54495         1.72288        0.142176 
        5.56066         1.71488        0.141123 
        5.57637         1.70605         0.14008 
        5.59207         1.69872        0.139049 
        5.60778         1.69223        0.138027 
        5.62346         1.68298        0.137018 
        5.63916         1.67582        0.136017 
        5.65487         1.66911        0.135026 
         5.6706         1.65836        0.134043 
        5.68633         1.65425         0.13307 
        5.70203         1.64414        0.132108 
        5.71773         1.63771        0.131156 
        5.73344         1.63239        0.130213 
        5.74916         1.62346        0.129278 
        5.76486         1.61886        0.128354 
        5.78054         1.60803         0.12744 
        5.79626         1.60398        0.126532 
          5.812         1.59294        0.125632 
         5.8277         1.58614        0.124743 
        5.84339         1.57896        0.123863 
        5.85911         1.57187         0.12299 
        5.87484         1.56647        0.122125 
        5.89053         1.55969         0.12127 
        5.90623         1.55535        0.120423 
        5.92195         1.54554        0.119583 
        5.93767         1.53881         0.11875 
        5.95336         1.53052        0.117928 
        5.96905         1.52746        0.117113 
        5.98476         1.52011        0.116304 
        6.00048          1.5132        0.115503 
        6.01617         1.50754        0.114711 
        6.03185         1.49997        0.113927 
        6.04756         1.49342        0.113148 
        6.06331         1.48823        0.112375 
        6.07903         1.48013        0.111611 
        6.09473         1.47618        0.110854 
        6.11044         1.47121        0.110104 
        6.12616          1.4663        0.109361 
        6.14186         1.45864        0.108625 
        6.15755         1.45482        0.107896 
        6.17326         1.44803        0.107173 
        6.18898          1.4397        0.106457 
        6.20467         1.43685        0.105748 
        6.22036         1.42858        0.105045 
         6.2361         1.42343        0.104348 
         6.2518         1.41952        0.103657 
        6.26748         1.41197        0.102974 
        6.28319         1.40873        0.102296 
        6.29893         1.40254        0.101623 
        6.31463         1.39618        0.100957 
        6.33033         1.39088        0.100297 
        6.34604         1.38486       0.0996428 
        6.36177         1.37805       0.0989936 
        6.37747         1.37812       0.0983513 
