# k  (h/Mpc)    Pcb(k)  (Mpc/h)^3    Pcb_linear(k) (Mpc/h)^3   ShotnoiseSubtracted = true
      0.0200456         728.321         737.112 
      0.0350414         467.687         466.906 
      0.0492313         319.002         317.221 
      0.0637834         261.313         259.838 
      0.0800726         198.426         197.113 
       0.096163         134.822         134.562 
       0.111083          106.26         106.549 
       0.126058         95.3965          95.286 
       0.142273           78.48         77.8302 
       0.158546         60.0448         59.1266 
        0.17375         50.1582         50.1931 
       0.188953         45.9861          45.772 
       0.204907          40.528         39.4323 
       0.220756         33.1312         32.5079 
        0.23588         28.8916         28.4255 
         0.2514         26.1256           25.97 
       0.267535         23.3816         23.0937 
       0.283568         20.3778         20.0052 
       0.299022         18.2762         17.8392 
       0.314451         16.4346          16.356 
       0.330372         15.0662         14.8524 
       0.346141         13.5313         13.3159 
       0.361624         12.3392         12.0761 
       0.377134         11.4486         11.1209 
       0.392932         10.2251         10.2315 
       0.408854         9.62047          9.3543 
       0.424564         8.80195         8.59173 
       0.440253         8.13943         7.95759 
       0.455999         7.60379         7.38749 
       0.471626         7.09693         6.85208 
        0.48727         6.56987         6.36479 
       0.502856         6.09939         5.93917 
       0.518488          5.7869         5.55453 
       0.534347         5.47914         5.19277 
       0.550082         5.00284         4.86185 
       0.565732         4.61323         4.56484 
       0.581496         4.46175          4.2923 
       0.597222         4.23178         4.04131 
       0.612804          3.9469         3.81077 
       0.628434         3.78008         3.59805 
       0.644267         3.56553             3.4 
       0.660051         3.35014         3.21733 
       0.675724         3.18131         3.04897 
       0.691403         3.04829          2.8924 
       0.707174          2.8753         2.74585 
       0.722871         2.73157         2.60996 
        0.73838         2.61389         2.48464 
       0.754018         2.52046         2.36656 
       0.769845         2.37898         2.25482 
        0.78569         2.27896         2.15015 
       0.801365         2.16848         2.05314 
       0.817031         2.08379         1.96217 
       0.832809         1.99465         1.87612 
       0.848511         1.89073         1.79561 
       0.864097         1.80665         1.72037 
       0.879701         1.73762         1.64936 
       0.895507         1.66619         1.58151 
       0.911279           1.623          1.5176 
        0.92691         1.55341         1.45775 
       0.942635         1.48609         1.40079 
       0.958396         1.42412         1.34674 
       0.974128         1.37467         1.29563 
       0.989692         1.33505         1.24767 
        1.00528         1.27635         1.20205 
        1.02113         1.22344           1.158 
        1.03692         1.19471         1.11631 
        1.05264         1.14823         1.07686 
        1.06832          1.1142         1.03936 
        1.08405         1.05889         1.00355 
        1.09979         1.03173        0.969401 
        1.11537         1.00081        0.937172 
        1.13105         0.97067        0.906211 
        1.14679        0.943317        0.876525 
        1.16256        0.901974        0.848107 
        1.17828        0.877197        0.821038 
        1.19395        0.850567        0.795238 
         1.2097        0.813329        0.770412 
        1.22537        0.796277        0.746761 
          1.241        0.774102        0.724172 
        1.25666         0.76175        0.702458 
        1.27241        0.724317        0.681529 
        1.28819        0.706145        0.661415 
        1.30392        0.689455        0.642168 
        1.31957        0.670911        0.623769 
        1.33529        0.647955        0.606021 
        1.35108        0.629859        0.588892 
        1.36674        0.606431        0.572544 
         1.3824        0.596458        0.556829 
        1.39811        0.578032        0.541649 
        1.41389        0.565054        0.526975 
        1.42964        0.551143        0.512868 
        1.44531        0.532517        0.499343 
        1.46101        0.521108        0.486276 
        1.47667        0.501048        0.473713 
        1.49229        0.495822        0.461625 
        1.50793        0.479086        0.449944 
        1.52367         0.46903         0.43859 
        1.53953        0.454347        0.427551 
        1.55526        0.444734        0.416977 
        1.57092        0.432283        0.406804 
        1.58662        0.423868        0.396944 
        1.60235        0.412876         0.38739 
        1.61809        0.399823        0.378145 
        1.63369        0.397673        0.369282 
        1.64941        0.383462        0.360638 
        1.66519        0.374515        0.352239 
        1.68085        0.363918        0.344165 
        1.69652        0.356439        0.336341 
        1.71228        0.350348        0.328715 
        1.72806        0.338946        0.321319 
        1.74368         0.33506        0.314222 
        1.75933        0.325316        0.307325 
        1.77505        0.318539        0.300602 
        1.79081        0.312027        0.294067 
         1.8065        0.302314        0.287753 
        1.82218        0.297968         0.28163 
        1.83797         0.29089        0.275642 
        1.85367        0.287394         0.26986 
        1.86928         0.27964        0.264278 
        1.88497           0.273        0.258822 
        1.90073        0.266499          0.2535 
        1.91647        0.262719        0.248331 
        1.93218        0.256106        0.243317 
        1.94787        0.251221        0.238448 
        1.96363        0.245358        0.233692 
        1.97935        0.240214        0.229075 
        1.99499        0.235744        0.224608 
        2.01064        0.230664        0.220253 
         2.0264        0.225459        0.215986 
        2.04216        0.222693        0.211833 
        2.05781        0.217543        0.207815 
        2.07353         0.21205        0.203886 
        2.08928        0.207371         0.20005 
        2.10499        0.205043        0.196322 
        2.12065        0.201436          0.1927 
        2.13633        0.197434        0.189166 
        2.15211        0.193658        0.185697 
        2.16785        0.189141        0.182324 
        2.18349        0.185403        0.179056 
        2.19916        0.182675        0.175861 
        2.21489        0.178732        0.172732 
        2.23063        0.175985        0.169677 
         2.2463        0.172669         0.16671 
        2.26194        0.168057         0.16382 
        2.27765        0.165853        0.160983 
        2.29341        0.163242        0.158206 
        2.30914        0.160605          0.1555 
        2.32486        0.157511        0.152859 
        2.34061        0.154638        0.150273 
        2.35635         0.15105         0.14775 
        2.37203        0.148488        0.145293 
        2.38768        0.146021        0.142897 
        2.40339        0.144182        0.140546 
        2.41914        0.141726        0.138241 
        2.43483        0.139206        0.135997 
         2.4505        0.135787        0.133805 
        2.46622        0.133992        0.131655 
        2.48195        0.131932        0.129551 
        2.49759        0.129869        0.127504 
        2.51328         0.12738        0.125495 
        2.52906        0.125479        0.123517 
        2.54479        0.122907        0.121589 
        2.56049        0.120812        0.119705 
        2.57618        0.118921        0.117863 
        2.59189        0.117415        0.116056 
        2.60758        0.115731         0.11429 
        2.62325        0.113433        0.112562 
        2.63898        0.111689        0.110865 
        2.65468        0.109439        0.109205 
        2.67044        0.108198        0.107572 
        2.68618        0.106234        0.105976 
        2.70184        0.104497        0.104419 
        2.71755        0.102577        0.102889 
        2.73329        0.101305        0.101387 
        2.74897       0.0999737       0.0999192 
        2.76462       0.0982488       0.0984839 
        2.78034       0.0967584       0.0970708 
        2.79607       0.0950554       0.0956838 
        2.81179        0.094261       0.0943252 
        2.82749       0.0921732       0.0929945 
        2.84321        0.091024       0.0916877 
        2.85893       0.0897923       0.0904063 
        2.87462       0.0882302       0.0891514 
        2.89033       0.0870969       0.0879191 
        2.90605       0.0855497       0.0867088 
        2.92176       0.0845867       0.0855218 
        2.93747       0.0831682       0.0843575 
        2.95318       0.0821296       0.0832145 
        2.96891       0.0809399        0.082092 
        2.98456       0.0796645       0.0809951 
        3.00023       0.0788346       0.0799165 
        3.01596       0.0774917        0.078854 
        3.03164       0.0767721       0.0778138 
        3.04738       0.0751456       0.0767892 
         3.0631        0.074425       0.0757833 
        3.07883       0.0731941       0.0747952 
        3.09456       0.0723328       0.0738248 
        3.11026       0.0714852        0.072873 
        3.12596        0.070259        0.071938 
        3.14163       0.0693596       0.0710214 
        3.15734       0.0687677       0.0701186 
        3.17308       0.0677765       0.0692291 
        3.18879        0.066906       0.0683575 
        3.20447       0.0656989        0.067502 
         3.2202       0.0652844       0.0666585 
         3.2359       0.0643419       0.0658307 
        3.25157       0.0634453       0.0650189 
        3.26729       0.0624893       0.0642182 
        3.28304       0.0620799       0.0634294 
        3.29877       0.0611912       0.0626548 
        3.31446       0.0604414       0.0618947 
        3.33014       0.0598493       0.0611478 
        3.34585       0.0593644        0.060412 
        3.36158       0.0585455       0.0596871 
        3.37727       0.0579425       0.0589763 
        3.39294       0.0570024       0.0582777 
        3.40867       0.0563738       0.0575878 
        3.42439       0.0559349       0.0569094 
        3.44008       0.0549719       0.0562432 
        3.45578       0.0546399        0.055587 
        3.47153       0.0538678       0.0549399 
        3.48724       0.0533973       0.0543041 
        3.50292       0.0528052       0.0536797 
        3.51859       0.0522839       0.0530654 
        3.53431       0.0515161       0.0524588 
        3.55007       0.0512104       0.0518601 
        3.56577       0.0505644       0.0512731 
        3.58146       0.0501873       0.0506953 
        3.59719       0.0496738        0.050125 
        3.61292       0.0492364       0.0495637 
        3.62859        0.048708        0.049013 
        3.64429       0.0481296       0.0484695 
        3.66003       0.0478816       0.0479326 
        3.67578        0.047239        0.047404 
        3.69146       0.0466803       0.0468853 
        3.70712       0.0464772       0.0463752 
        3.72284       0.0460604       0.0458708 
        3.73853       0.0456651       0.0453747 
        3.75422       0.0453177       0.0448857 
        3.76993        0.044724       0.0444035 
        3.78564       0.0443709       0.0439284 
        3.80137       0.0440313       0.0434596 
        3.81707       0.0436349       0.0429985 
        3.83279       0.0433476       0.0425436 
        3.84853       0.0429162       0.0420946 
        3.86424       0.0425495       0.0416529 
        3.87992       0.0421053       0.0412181 
        3.89561       0.0417588       0.0407895 
        3.91134       0.0415407       0.0403661 
        3.92704       0.0410259       0.0399491 
        3.94273        0.040644       0.0395384 
        3.95845       0.0402246       0.0391326 
        3.97418       0.0401259       0.0387325 
        3.98988       0.0395275       0.0383384 
        4.00554       0.0393112       0.0379509 
        4.02125         0.03874       0.0375676 
        4.03698       0.0381913       0.0371889 
        4.05268       0.0376862       0.0368163 
        4.06839       0.0372246       0.0364485 
         4.0841       0.0366404       0.0360858 
        4.09983       0.0361886       0.0357274 
        4.11555       0.0355567       0.0353741 
        4.13124       0.0350566       0.0350265 
        4.14693       0.0347162       0.0346832 
        4.16266       0.0343117       0.0343437 
        4.17839       0.0338643       0.0340089 
        4.19408        0.033458       0.0336793 
        4.20977       0.0330581       0.0333539 
        4.22551       0.0327041        0.033032 
        4.24123       0.0322271       0.0327147 
        4.25691       0.0319412       0.0324023 
        4.27259       0.0315679       0.0320939 
        4.28831        0.031295       0.0317889 
        4.30404       0.0310961       0.0314875 
        4.31974       0.0307502       0.0311907 
        4.33543       0.0305189       0.0308978 
        4.35116       0.0302899        0.030608 
        4.36688       0.0299875       0.0303219 
        4.38255       0.0297272       0.0300406 
        4.39825       0.0295568       0.0297622 
        4.41398       0.0294033       0.0294867 
         4.4297       0.0292372        0.029215 
        4.44541       0.0290951       0.0289468 
        4.46111        0.028946       0.0286821 
        4.47683        0.028704       0.0284205 
        4.49251       0.0286399       0.0281627 
        4.50819       0.0284897       0.0279081 
         4.5239       0.0283942       0.0276563 
        4.53962       0.0283031       0.0274072 
        4.55535       0.0282998       0.0271611 
        4.57106       0.0282015       0.0269183 
        4.58678       0.0281578       0.0266785 
         4.6025       0.0281975       0.0264414 
        4.61821       0.0282245       0.0262073 
        4.63391       0.0281774       0.0259763 
         4.6496       0.0281245       0.0257482 
        4.66532       0.0281112       0.0255224 
        4.68103       0.0281536       0.0252994 
        4.69673       0.0281755       0.0250793 
        4.71241       0.0282995        0.024862 
        4.72811       0.0283282       0.0246469 
        4.74384       0.0283989        0.024434 
        4.75955       0.0285203        0.024224 
        4.77525       0.0286714       0.0240165 
        4.79096       0.0286809       0.0238112 
        4.80669        0.028822       0.0236082 
         4.8224       0.0291382       0.0234077 
        4.83809        0.029194       0.0232098 
        4.85379       0.0292906       0.0230141 
         4.8695       0.0295377       0.0228204 
        4.88521       0.0297431        0.022629 
        4.90093       0.0299188       0.0224398 
        4.91663       0.0300721       0.0222529 
        4.93234       0.0302558       0.0220679 
        4.94807       0.0306584       0.0218848 
        4.96377       0.0308873       0.0217042 
        4.97943       0.0312919        0.021526 
        4.99514       0.0313618       0.0213493 
        5.01086        0.031775       0.0211745 
        5.02654       0.0320821        0.021002 
        5.04227       0.0323432       0.0208309 
          5.058       0.0328056       0.0206617 
        5.07371       0.0331985       0.0204946 
        5.08942       0.0334289       0.0203294 
        5.10513       0.0338836       0.0201659 
        5.12084       0.0343003       0.0200042 
        5.13656       0.0346473       0.0198442 
        5.15225       0.0352398       0.0196863 
        5.16796       0.0358368       0.0195298 
        5.18369        0.036134       0.0193749 
         5.1994       0.0367273       0.0192219 
        5.21509       0.0371235       0.0190707 
        5.23079       0.0377323       0.0189209 
        5.24649        0.038275       0.0187728 
        5.26217       0.0390316       0.0186264 
        5.27788       0.0395467       0.0184814 
        5.29359        0.040277       0.0183379 
        5.30933       0.0408173       0.0181957 
        5.32504       0.0414574       0.0180552 
        5.34073       0.0421061       0.0179163 
        5.35646       0.0428113       0.0177786 
        5.37218       0.0436859       0.0176423 
        5.38789       0.0444017       0.0175077 
        5.40357       0.0450541       0.0173746 
        5.41929       0.0459572       0.0172426 
        5.43502       0.0466957       0.0171119 
         5.4507       0.0476335       0.0169829 
        5.46639       0.0486971       0.0168552 
        5.48212       0.0493412       0.0167285 
        5.49786       0.0504599        0.016603 
        5.51353       0.0516032       0.0164793 
        5.52921       0.0522991       0.0163568 
        5.54495       0.0534656       0.0162351 
        5.56066       0.0544022       0.0161149 
        5.57637       0.0557569       0.0159958 
        5.59207       0.0571493        0.015878 
        5.60778       0.0580587       0.0157614 
        5.62346       0.0594938       0.0156461 
        5.63916       0.0603835       0.0155318 
        5.65487       0.0617502       0.0154187 
         5.6706       0.0630997       0.0153065 
        5.68633       0.0641953       0.0151953 
        5.70203       0.0653658       0.0150855 
        5.71773       0.0675793       0.0149768 
        5.73344       0.0688003       0.0148691 
        5.74916       0.0707065       0.0147623 
        5.76486        0.071802       0.0146568 
        5.78054       0.0734162       0.0145524 
        5.79626        0.074597       0.0144487 
          5.812       0.0766722        0.014346 
         5.8277       0.0784151       0.0142445 
        5.84339       0.0800506        0.014144 
        5.85911       0.0820901       0.0140443 
        5.87484       0.0839857       0.0139455 
        5.89053       0.0863692       0.0138479 
        5.90623       0.0887147       0.0137512 
        5.92195       0.0903259       0.0136552 
        5.93767       0.0923331       0.0135602 
        5.95336       0.0946393       0.0134662 
        5.96905        0.096777       0.0133732 
        5.98476       0.0992758       0.0132809 
        6.00048         0.10123       0.0131894 
        6.01617        0.103335       0.0130989 
        6.03185        0.106899       0.0130094 
        6.04756        0.109196       0.0129205 
        6.06331        0.111062       0.0128322 
        6.07903        0.114629       0.0127449 
        6.09473        0.117816       0.0126585 
        6.11044        0.120029       0.0125728 
        6.12616        0.123031        0.012488 
        6.14186        0.125208       0.0124039 
        6.15755        0.128798       0.0123207 
        6.17326        0.132823       0.0122382 
        6.18898        0.134852       0.0121563 
        6.20467        0.139666       0.0120754 
        6.22036        0.141452       0.0119952 
         6.2361        0.145479       0.0119155 
         6.2518        0.149115       0.0118367 
        6.26748        0.152494       0.0117587 
        6.28319        0.156022       0.0116812 
        6.29893        0.160915       0.0116044 
        6.31463        0.164611       0.0115283 
        6.33033        0.168697        0.011453 
        6.34604        0.171974       0.0113783 
        6.36177        0.175438       0.0113041 
        6.37747        0.181642       0.0112308 
