# k  (h/Mpc)    Pcb(k)  (Mpc/h)^3    Pcb_linear(k) (Mpc/h)^3   ShotnoiseSubtracted = true
      0.0200456         3750.74         3800.63 
      0.0350414         2387.44         2407.42 
      0.0492313         1641.75         1635.62 
      0.0637834         1359.59         1339.75 
      0.0800726         1033.57         1016.34 
       0.096163          692.02         693.818 
       0.111083         545.103         549.379 
       0.126058         496.838         491.305 
       0.142273         413.039         401.301 
       0.158546          320.27         304.863 
        0.17375         262.505         258.801 
       0.188953         245.973         236.005 
       0.204907         222.037         203.317 
       0.220756         181.252         167.614 
        0.23588         158.035         146.565 
         0.2514         140.936         133.904 
       0.267535         129.005         119.074 
       0.283568         114.015         103.149 
       0.299022         103.584         91.9808 
       0.314451         92.8585         84.3335 
       0.330372         85.7156         76.5808 
       0.346141         76.6616         68.6584 
       0.361624         71.2792         62.2659 
       0.377134         66.7546         57.3407 
       0.392932         59.1047         52.7547 
       0.408854         56.5364         48.2318 
       0.424564         53.1535         44.2999 
       0.440253         49.0181         41.0302 
       0.455999         45.7673         38.0907 
       0.471626         42.6422         35.3301 
        0.48727         40.4887         32.8175 
       0.502856         38.0473          30.623 
       0.518488         36.1828         28.6398 
       0.534347         34.6803         26.7745 
       0.550082         31.5115         25.0682 
       0.565732         29.4226         23.5368 
       0.581496         28.6203         22.1316 
       0.597222         27.5506         20.8375 
       0.612804         25.6726         19.6487 
       0.628434         24.7124         18.5519 
       0.644267         23.9448         17.5308 
       0.660051         22.6801         16.5889 
       0.675724         21.4408         15.7208 
       0.691403         20.7248         14.9135 
       0.707174         19.9062         14.1579 
       0.722871         19.1181         13.4572 
        0.73838          18.309         12.8111 
       0.754018         17.5697         12.2022 
       0.769845         16.9629         11.6261 
        0.78569         16.3678         11.0864 
       0.801365         15.7051         10.5862 
       0.817031         15.2272         10.1172 
       0.832809         14.8804          9.6735 
       0.848511         13.9462         9.25838 
       0.864097         13.6672         8.87041 
       0.879701         13.2492         8.50426 
       0.895507         12.7492         8.15442 
       0.911279         12.3901         7.82493 
        0.92691         12.0461         7.51633 
       0.942635         11.5079         7.22262 
       0.958396         11.2443         6.94393 
       0.974128         10.8858         6.68041 
       0.989692         10.7263         6.43311 
        1.00528         10.4312         6.19792 
        1.02113         9.96237         5.97078 
        1.03692          9.6975         5.75581 
        1.05264         9.53358         5.55239 
        1.06832         9.22053         5.35907 
        1.08405         8.94224         5.17442 
        1.09979         8.72231         4.99834 
        1.11537         8.56618         4.83216 
        1.13105         8.34151         4.67252 
        1.14679         8.18718         4.51946 
        1.16256         7.85995         4.37293 
        1.17828         7.80933         4.23336 
        1.19395         7.48849         4.10033 
         1.2097         7.39138         3.97233 
        1.22537         7.17698         3.85038 
          1.241         7.04596         3.73391 
        1.25666         6.88851         3.62195 
        1.27241         6.69772         3.51404 
        1.28819          6.5512         3.41033 
        1.30392         6.46926         3.31109 
        1.31957         6.32564         3.21622 
        1.33529         6.19177         3.12471 
        1.35108          6.0395         3.03639 
        1.36674         5.98156          2.9521 
         1.3824          5.7844         2.87107 
        1.39811         5.69561          2.7928 
        1.41389         5.58432         2.71714 
        1.42964         5.49128          2.6444 
        1.44531          5.3909         2.57467 
        1.46101         5.25561         2.50729 
        1.47667         5.18435         2.44251 
        1.49229         5.10707         2.38019 
        1.50793         4.98776         2.31996 
        1.52367         4.90333         2.26142 
        1.53953         4.80674          2.2045 
        1.55526         4.73884         2.14998 
        1.57092         4.64959         2.09752 
        1.58662         4.57508         2.04668 
        1.60235         4.49775         1.99743 
        1.61809         4.41774         1.94975 
        1.63369         4.34128         1.90406 
        1.64941         4.25706         1.85949 
        1.66519         4.21911         1.81618 
        1.68085         4.13102         1.77455 
        1.69652         4.05489         1.73421 
        1.71228         3.99741         1.69489 
        1.72806         3.94085         1.65675 
        1.74368          3.8659         1.62016 
        1.75933         3.82375          1.5846 
        1.77505         3.76427         1.54994 
        1.79081         3.69043         1.51624 
         1.8065         3.65744         1.48369 
        1.82218         3.59676         1.45211 
        1.83797         3.55957         1.42124 
        1.85367         3.48145         1.39143 
        1.86928         3.45853         1.36264 
        1.88497         3.38621         1.33452 
        1.90073         3.33888         1.30707 
        1.91647         3.29848         1.28042 
        1.93218          3.2585         1.25457 
        1.94787          3.2146         1.22946 
        1.96363         3.16564         1.20494 
        1.97935          3.1123         1.18113 
        1.99499         3.07385          1.1581 
        2.01064          3.0381         1.13565 
         2.0264         2.99355         1.11365 
        2.04216         2.96187         1.09223 
        2.05781         2.91477         1.07152 
        2.07353         2.89625         1.05126 
        2.08928         2.85405         1.03148 
        2.10499         2.81718         1.01226 
        2.12065         2.77972        0.993583 
        2.13633         2.74722         0.97536 
        2.15211         2.71306        0.957474 
        2.16785         2.68059        0.940084 
        2.18349         2.64342        0.923233 
        2.19916         2.60391        0.906756 
        2.21489         2.58993        0.890626 
        2.23063          2.5456        0.874874 
         2.2463         2.52186        0.859572 
        2.26194         2.48652        0.844673 
        2.27765         2.47182        0.830048 
        2.29341         2.43727        0.815729 
        2.30914          2.4032        0.801776 
        2.32486         2.38312        0.788155 
        2.34061         2.35458        0.774826 
        2.35635         2.33071        0.761816 
        2.37203         2.31516        0.749147 
        2.38768         2.28128        0.736792 
        2.40339         2.24882        0.724668 
        2.41914         2.22485        0.712788 
        2.43483         2.21482        0.701214 
         2.4505         2.18516        0.689915 
        2.46622         2.16342        0.678825 
        2.48195         2.13312        0.667977 
        2.49759         2.11534        0.657422 
        2.51328         2.09227        0.647066 
        2.52906         2.08115        0.636867 
        2.54479         2.04803        0.626924 
        2.56049         2.03312        0.617212 
        2.57618         2.01107        0.607713 
        2.59189          1.9978        0.598398 
        2.60758         1.97851        0.589291 
        2.62325         1.95335        0.580384 
        2.63898         1.92852         0.57163 
        2.65468         1.91595        0.563073 
        2.67044         1.89607        0.554653 
        2.68618         1.88051        0.546424 
        2.70184         1.86013        0.538394 
        2.71755         1.84652        0.530504 
        2.73329         1.82546         0.52276 
        2.74897         1.81787        0.515194 
        2.76462         1.79646        0.507794 
        2.78034         1.77209        0.500508 
        2.79607         1.75912        0.493356 
        2.81179         1.75102        0.486351 
        2.82749         1.71961         0.47949 
        2.84321         1.72187        0.472752 
        2.85893         1.70201        0.466145 
        2.87462         1.68303        0.459674 
        2.89033         1.67401         0.45332 
        2.90605         1.65661         0.44708 
        2.92176         1.63755         0.44096 
        2.93747         1.62062        0.434957 
        2.95318         1.60886        0.429063 
        2.96891          1.6048        0.423275 
        2.98456         1.58745         0.41762 
        3.00023         1.57092        0.412058 
        3.01596           1.561         0.40658 
        3.03164         1.55233        0.401216 
        3.04738         1.53206        0.395933 
         3.0631         1.52141        0.390747 
        3.07883         1.51028        0.385652 
        3.09456         1.49832        0.380649 
        3.11026         1.48871        0.375741 
        3.12596         1.47098         0.37092 
        3.14163         1.46227        0.366194 
        3.15734         1.45179        0.361539 
        3.17308         1.44022        0.356953 
        3.18879         1.43268        0.352459 
        3.20447         1.42285        0.348048 
         3.2202         1.40371        0.343698 
         3.2359         1.39927         0.33943 
        3.25157         1.38894        0.335245 
        3.26729         1.37538        0.331116 
        3.28304         1.36892        0.327049 
        3.29877         1.35546        0.323055 
        3.31446         1.34561        0.319136 
        3.33014         1.34007        0.315285 
        3.34585         1.33074        0.311491 
        3.36158         1.32013        0.307753 
        3.37727         1.30318        0.304088 
        3.39294         1.30006        0.300486 
        3.40867         1.28634        0.296929 
        3.42439         1.28102        0.293431 
        3.44008         1.27203        0.289996 
        3.45578         1.26175        0.286613 
        3.47153         1.25428        0.283276 
        3.48724         1.24547        0.279998 
        3.50292         1.23905        0.276779 
        3.51859         1.22827        0.273611 
        3.53431         1.22007        0.270483 
        3.55007         1.21189        0.267396 
        3.56577         1.20439        0.264369 
        3.58146         1.19676         0.26139 
        3.59719         1.19129         0.25845 
        3.61292         1.17969        0.255556 
        3.62859         1.17402        0.252716 
        3.64429         1.16005        0.249914 
        3.66003          1.1579        0.247146 
        3.67578         1.15241         0.24442 
        3.69146         1.14159        0.241746 
        3.70712         1.13344        0.239116 
        3.72284         1.12537        0.236515 
        3.73853         1.11995        0.233957 
        3.75422         1.11518        0.231436 
        3.76993         1.10239        0.228949 
        3.78564         1.09991          0.2265 
        3.80137         1.09547        0.224082 
        3.81707         1.08293        0.221705 
        3.83279          1.0771         0.21936 
        3.84853         1.07116        0.217044 
        3.86424         1.06534        0.214767 
        3.87992         1.05821        0.212525 
        3.89561         1.05169        0.210315 
        3.91134         1.04837        0.208132 
        3.92704         1.04134        0.205982 
        3.94273          1.0322        0.203864 
        3.95845           1.025        0.201772 
        3.97418          1.0193        0.199709 
        3.98988         1.01237        0.197677 
        4.00554         1.00668        0.195679 
        4.02125        0.999426        0.193702 
        4.03698        0.994671         0.19175 
        4.05268        0.986286        0.189829 
        4.06839        0.982054        0.187932 
         4.0841         0.97189        0.186062 
        4.09983        0.965268        0.184215 
        4.11555        0.959198        0.182393 
        4.13124        0.951713          0.1806 
        4.14693        0.946061         0.17883 
        4.16266        0.937615         0.17708 
        4.17839        0.931614        0.175354 
        4.19408        0.928976        0.173654 
        4.20977        0.917326        0.171976 
        4.22551        0.914111        0.170317 
        4.24123        0.907851         0.16868 
        4.25691        0.900101         0.16707 
        4.27259        0.897462         0.16548 
        4.28831        0.891588        0.163907 
        4.30404        0.884777        0.162353 
        4.31974        0.882043        0.160823 
        4.33543        0.874842        0.159312 
        4.35116        0.870605        0.157818 
        4.36688        0.864572        0.156343 
        4.38255        0.858902        0.154893 
        4.39825        0.854721        0.153457 
        4.41398        0.849113        0.152037 
         4.4297        0.844938        0.150636 
        4.44541        0.842155        0.149253 
        4.46111        0.837098        0.147888 
        4.47683        0.833913        0.146539 
        4.49251        0.829436         0.14521 
        4.50819        0.825448        0.143897 
         4.5239        0.821549        0.142599 
        4.53962        0.817056        0.141315 
        4.55535        0.812564        0.140046 
        4.57106        0.807137        0.138794 
        4.58678        0.805777        0.137557 
         4.6025        0.803355        0.136335 
        4.61821        0.797549        0.135128 
        4.63391        0.792728        0.133937 
         4.6496        0.789507         0.13276 
        4.66532         0.78946        0.131596 
        4.68103        0.784566        0.130447 
        4.69673        0.781843        0.129311 
        4.71241        0.778714        0.128191 
        4.72811        0.774108        0.127082 
        4.74384        0.772912        0.125984 
        4.75955        0.768997        0.124901 
        4.77525        0.765531        0.123832 
        4.79096        0.763474        0.122773 
        4.80669        0.760308        0.121726 
         4.8224        0.759322        0.120693 
        4.83809         0.75434        0.119672 
        4.85379        0.752663        0.118663 
         4.8695        0.749166        0.117664 
        4.88521        0.746846        0.116678 
        4.90093        0.745288        0.115702 
        4.91663        0.741827        0.114738 
        4.93234        0.738908        0.113784 
        4.94807        0.737951        0.112841 
        4.96377        0.735884        0.111909 
        4.97943        0.733961         0.11099 
        4.99514        0.729309        0.110079 
        5.01086        0.729881        0.109178 
        5.02654        0.727291        0.108289 
        5.04227        0.724982        0.107407 
          5.058        0.724394        0.106534 
        5.07371         0.72156        0.105672 
        5.08942         0.71969         0.10482 
        5.10513        0.717957        0.103978 
        5.12084        0.714919        0.103144 
        5.13656         0.71421        0.102319 
        5.15225        0.713134        0.101505 
        5.16796        0.712503        0.100698 
        5.18369        0.708777       0.0998989 
         5.1994        0.708461       0.0991101 
        5.21509        0.707802       0.0983304 
        5.23079        0.706257       0.0975582 
        5.24649         0.70341       0.0967948 
        5.26217        0.702695         0.09604 
        5.27788        0.702831       0.0952921 
        5.29359        0.699618       0.0945521 
        5.30933        0.699877       0.0938188 
        5.32504        0.697634       0.0930944 
        5.34073         0.69683       0.0923784 
        5.35646        0.696905       0.0916685 
        5.37218        0.694967       0.0909658 
        5.38789        0.693982       0.0902716 
        5.40357        0.692482       0.0895854 
        5.41929        0.690601       0.0889047 
        5.43502        0.690026        0.088231 
         5.4507        0.687792       0.0875658 
        5.46639        0.687839       0.0869074 
        5.48212        0.689309       0.0862541 
        5.49786        0.686245       0.0856067 
        5.51353        0.687012       0.0849692 
        5.52921        0.682431       0.0843374 
        5.54495        0.684621       0.0837102 
        5.56066        0.685221         0.08309 
        5.57637        0.683251       0.0824761 
        5.59207        0.680655       0.0818689 
        5.60778        0.681854       0.0812676 
        5.62346         0.68077        0.080673 
        5.63916         0.68189       0.0800839 
        5.65487        0.681239       0.0795003 
         5.6706        0.680349       0.0789217 
        5.68633        0.678638       0.0783487 
        5.70203        0.678956       0.0777825 
        5.71773        0.679656        0.077222 
        5.73344        0.678469       0.0766666 
        5.74916        0.678503       0.0761162 
        5.76486        0.676943       0.0755719 
        5.78054         0.67785       0.0750337 
        5.79626        0.676779       0.0744992 
          5.812        0.675414       0.0739693 
         5.8277        0.674063       0.0734461 
        5.84339        0.675088        0.072928 
        5.85911        0.674893       0.0724138 
        5.87484        0.674686       0.0719046 
        5.89053        0.675392       0.0714013 
        5.90623        0.673949       0.0709025 
        5.92195        0.674324       0.0704076 
        5.93767        0.673615       0.0699177 
        5.95336        0.672062       0.0694332 
        5.96905        0.672895       0.0689535 
        5.98476        0.672149       0.0684776 
        6.00048        0.671964       0.0680059 
        6.01617        0.670651       0.0675394 
        6.03185        0.672197       0.0670777 
        6.04756        0.671781       0.0666192 
        6.06331        0.670183       0.0661641 
        6.07903        0.671042        0.065714 
        6.09473        0.671099       0.0652686 
        6.11044        0.670274       0.0648269 
        6.12616        0.670521       0.0643893 
        6.14186        0.670163       0.0639561 
        6.15755        0.668472       0.0635269 
        6.17326        0.668975       0.0631013 
        6.18898        0.668787       0.0626794 
        6.20467        0.669214       0.0622621 
        6.22036        0.668497       0.0618485 
         6.2361        0.668004       0.0614376 
         6.2518        0.668576       0.0610311 
        6.26748        0.666375       0.0606291 
        6.28319        0.667343       0.0602296 
        6.29893        0.667848       0.0598333 
        6.31463        0.667592       0.0594412 
        6.33033        0.667669       0.0590528 
        6.34604        0.665692       0.0586675 
        6.36177        0.666794       0.0582853 
        6.37747        0.666547       0.0579072 
