# k  (h/Mpc)    Pcb(k)  (Mpc/h)^3    Pcb_linear(k) (Mpc/h)^3   ShotnoiseSubtracted = true
      0.0200456         6364.51         6455.11 
      0.0350414         4031.68         4088.84 
      0.0492313         2783.38            2778 
      0.0637834         2319.38         2275.48 
      0.0800726         1764.07         1726.18 
       0.096163         1174.09          1178.4 
       0.111083          925.61         933.082 
       0.126058         848.887         834.448 
       0.142273         709.918         681.582 
       0.158546         557.892         517.789 
        0.17375         452.694         439.556 
       0.188953         429.504         400.839 
       0.204907           391.4          345.32 
       0.220756         321.455         284.681 
        0.23588          280.65         248.931 
         0.2514         248.078         227.427 
       0.267535          230.88         202.239 
       0.283568         205.744         175.191 
       0.299022         188.303         156.223 
       0.314451         170.687         143.235 
       0.330372         157.382         130.067 
       0.346141         140.123         116.612 
       0.361624         132.384         105.754 
       0.377134         123.602         97.3892 
       0.392932         111.172         89.6003 
       0.408854         106.208         81.9184 
       0.424564          100.97         75.2403 
       0.440253         94.2118          69.687 
       0.455999         87.8238         64.6944 
       0.471626         81.3625         60.0057 
        0.48727         77.9513         55.7384 
       0.502856         74.1239         52.0111 
       0.518488         71.1356         48.6427 
       0.534347         68.1124         45.4746 
       0.550082         62.2885         42.5766 
       0.565732         59.0804         39.9757 
       0.581496         57.0023          37.589 
       0.597222          54.873          35.391 
       0.612804          51.746          33.372 
       0.628434         50.2057         31.5092 
       0.644267         48.4808         29.7748 
       0.660051         46.6931         28.1751 
       0.675724         44.4522         26.7007 
       0.691403         42.9956         25.3296 
       0.707174         41.4327         24.0463 
       0.722871         40.1096         22.8562 
        0.73838         38.8956         21.7588 
       0.754018         36.9032         20.7246 
       0.769845         35.9646         19.7461 
        0.78569         34.9477         18.8295 
       0.801365         33.5588           17.98 
       0.817031         32.6529         17.1833 
       0.832809         32.0337         16.4298 
       0.848511         30.2583         15.7247 
       0.864097          29.674         15.0658 
       0.879701         28.9336         14.4439 
       0.895507         28.4442         13.8497 
       0.911279         27.4202         13.2901 
        0.92691         26.8435          12.766 
       0.942635         25.7068         12.2671 
       0.958396         25.4711         11.7938 
       0.974128         24.6545         11.3462 
       0.989692         24.2549         10.9262 
        1.00528         23.6642         10.5267 
        1.02113         22.8397          10.141 
        1.03692         22.2478         9.77586 
        1.05264         22.0572         9.43035 
        1.06832         21.2337         9.10202 
        1.08405         20.8868         8.78841 
        1.09979         20.4657         8.48933 
        1.11537          19.885         8.20709 
        1.13105         19.7716         7.93596 
        1.14679         19.3873         7.67599 
        1.16256         18.7207         7.42713 
        1.17828         18.4438         7.19008 
        1.19395         18.0331         6.96414 
         1.2097         17.8385         6.74673 
        1.22537         17.5261         6.53961 
          1.241         17.0621         6.34179 
        1.25666         16.6415         6.15163 
        1.27241         16.3558         5.96835 
        1.28819         15.9697          5.7922 
        1.30392          15.791         5.62365 
        1.31957         15.6276         5.46253 
        1.33529         15.4002         5.30711 
        1.35108         15.0269          5.1571 
        1.36674         14.7793         5.01393 
         1.3824         14.4457         4.87631 
        1.39811         14.3081         4.74338 
        1.41389         14.1245         4.61488 
        1.42964         13.8013         4.49134 
        1.44531         13.7407          4.3729 
        1.46101         13.3486         4.25846 
        1.47667         13.1892         4.14844 
        1.49229         13.0233         4.04259 
        1.50793         12.8452          3.9403 
        1.52367         12.6453         3.84087 
        1.53953         12.5059         3.74419 
        1.55526         12.2643          3.6516 
        1.57092          12.024          3.5625 
        1.58662         11.9444         3.47615 
        1.60235         11.7564         3.39249 
        1.61809         11.5865         3.31153 
        1.63369         11.4415         3.23391 
        1.64941         11.2189         3.15821 
        1.66519         11.1393         3.08466 
        1.68085         10.9596         3.01396 
        1.69652         10.7943         2.94544 
        1.71228          10.699         2.87866 
        1.72806          10.539         2.81388 
        1.74368         10.3748         2.75174 
        1.75933          10.284         2.69134 
        1.77505         10.1736         2.63246 
        1.79081          9.9826         2.57523 
         1.8065         9.94054         2.51994 
        1.82218         9.73637         2.46632 
        1.83797         9.58365         2.41388 
        1.85367         9.49731         2.36324 
        1.86928         9.42562         2.31436 
        1.88497         9.26822         2.26658 
        1.90073         9.25281         2.21997 
        1.91647         9.08265         2.17471 
        1.93218         9.01661          2.1308 
        1.94787         8.90068         2.08816 
        1.96363         8.82479         2.04651 
        1.97935         8.69765         2.00608 
        1.99499         8.54718         1.96696 
        2.01064         8.49816         1.92882 
         2.0264         8.40006         1.89145 
        2.04216         8.30435         1.85508 
        2.05781         8.16439          1.8199 
        2.07353         8.12666         1.78549 
        2.08928         8.02313          1.7519 
        2.10499         7.94421         1.71925 
        2.12065         7.83279         1.68753 
        2.13633         7.80433         1.65658 
        2.15211          7.6778          1.6262 
        2.16785         7.62488         1.59667 
        2.18349         7.58172         1.56805 
        2.19916         7.48841         1.54006 
        2.21489         7.40236         1.51267 
        2.23063         7.31358         1.48591 
         2.2463         7.23228         1.45992 
        2.26194         7.15841         1.43462 
        2.27765         7.13257         1.40978 
        2.29341         7.03816         1.38546 
        2.30914         6.93581         1.36176 
        2.32486         6.89236         1.33863 
        2.34061         6.83631         1.31599 
        2.35635         6.74911         1.29389 
        2.37203         6.73127         1.27238 
        2.38768         6.58377         1.25139 
        2.40339         6.55349          1.2308 
        2.41914         6.48435         1.21062 
        2.43483         6.46868         1.19096 
         2.4505         6.38394         1.17177 
        2.46622         6.31261         1.15294 
        2.48195         6.28366         1.13451 
        2.49759         6.20571         1.11659 
        2.51328         6.14114           1.099 
        2.52906         6.10982         1.08168 
        2.54479         6.03294         1.06479 
        2.56049         6.02209         1.04829 
        2.57618         5.96503         1.03216 
        2.59189         5.87655         1.01634 
        2.60758         5.86037         1.00087 
        2.62325         5.80363        0.985743 
        2.63898         5.72428        0.970874 
        2.65468         5.65319         0.95634 
        2.67044         5.62867        0.942041 
        2.68618          5.5697        0.928064 
        2.70184          5.5472        0.914426 
        2.71755         5.49287        0.901026 
        2.73329         5.41928        0.887872 
        2.74897         5.39935        0.875022 
        2.76462         5.36664        0.862453 
        2.78034         5.28184        0.850078 
        2.79607         5.26725        0.837931 
        2.81179         5.21113        0.826034 
        2.82749         5.19505         0.81438 
        2.84321         5.14791        0.802937 
        2.85893         5.09914        0.791715 
        2.87462         5.05771        0.780726 
        2.89033         5.01369        0.769934 
        2.90605         4.95063        0.759335 
        2.92176         4.93193         0.74894 
        2.93747         4.90554        0.738744 
        2.95318         4.86384        0.728734 
        2.96891         4.82106        0.718904 
        2.98456         4.75395        0.709298 
        3.00023         4.73334        0.699852 
        3.01596         4.70053        0.690548 
        3.03164          4.6693        0.681439 
        3.04738         4.64223        0.672466 
         3.0631         4.58599        0.663657 
        3.07883         4.56866        0.655004 
        3.09456         4.52156        0.646506 
        3.11026         4.49043         0.63817 
        3.12596         4.45888        0.629982 
        3.14163         4.41432        0.621956 
        3.15734         4.38977        0.614049 
        3.17308         4.34816         0.60626 
        3.18879         4.31956        0.598627 
        3.20447         4.29801        0.591135 
         3.2202         4.24248        0.583748 
         3.2359         4.22054        0.576499 
        3.25157         4.19179         0.56939 
        3.26729         4.17941        0.562378 
        3.28304         4.12959         0.55547 
        3.29877          4.1061        0.548687 
        3.31446         4.06813         0.54203 
        3.33014         4.04132        0.535489 
        3.34585         4.02805        0.529046 
        3.36158         3.98409        0.522698 
        3.37727         3.96555        0.516473 
        3.39294         3.93837        0.510355 
        3.40867         3.90252        0.504314 
        3.42439          3.8762        0.498373 
        3.44008         3.85017        0.492538 
        3.45578         3.82127        0.486792 
        3.47153         3.78808        0.481125 
        3.48724         3.75999        0.475557 
        3.50292         3.74646        0.470089 
        3.51859          3.7187         0.46471 
        3.53431         3.68938        0.459397 
        3.55007         3.66107        0.454155 
        3.56577         3.64339        0.449014 
        3.58146         3.62155        0.443954 
        3.59719         3.58882         0.43896 
        3.61292         3.57355        0.434044 
        3.62859         3.54923        0.429221 
        3.64429         3.51522        0.424462 
        3.66003         3.48476         0.41976 
        3.67578         3.47576        0.415131 
        3.69146         3.43605        0.410588 
        3.70712         3.42771        0.406121 
        3.72284         3.39413        0.401704 
        3.73853         3.37542         0.39736 
        3.75422         3.34869        0.393077 
        3.76993         3.33628        0.388854 
        3.78564         3.30955        0.384694 
        3.80137          3.2964        0.380588 
        3.81707         3.26732         0.37655 
        3.83279         3.23807        0.372567 
        3.84853         3.22288        0.368635 
        3.86424         3.19731        0.364767 
        3.87992         3.17551        0.360959 
        3.89561         3.16448        0.357206 
        3.91134         3.12858        0.353498 
        3.92704         3.11859        0.349846 
        3.94273         3.09546        0.346249 
        3.95845         3.07906        0.342696 
        3.97418         3.05504        0.339192 
        3.98988         3.03628        0.335741 
        4.00554         3.01882        0.332347 
        4.02125         2.99834         0.32899 
        4.03698         2.96864        0.325674 
        4.05268         2.95447        0.322411 
        4.06839         2.93834         0.31919 
         4.0841         2.91569        0.316014 
        4.09983         2.89441        0.312876 
        4.11555         2.86848        0.309782 
        4.13124         2.85381        0.306737 
        4.14693         2.83168        0.303731 
        4.16266         2.80921        0.300758 
        4.17839         2.79205        0.297826 
        4.19408         2.77018         0.29494 
        4.20977         2.75976         0.29209 
        4.22551         2.73352        0.289271 
        4.24123         2.71914        0.286492 
        4.25691         2.70506        0.283757 
        4.27259         2.69265        0.281056 
        4.28831         2.67204        0.278385 
        4.30404         2.65273        0.275746 
        4.31974         2.63141        0.273146 
        4.33543         2.61993        0.270581 
        4.35116          2.6007        0.268043 
        4.36688         2.57874        0.265538 
        4.38255         2.56695        0.263074 
        4.39825         2.54698        0.260636 
        4.41398         2.54008        0.258224 
         4.4297         2.51929        0.255845 
        4.44541         2.51449        0.253496 
        4.46111         2.49178        0.251178 
        4.47683         2.46905        0.248887 
        4.49251         2.46158        0.246629 
        4.50819          2.4415        0.244399 
         4.5239         2.42886        0.242194 
        4.53962         2.42078        0.240013 
        4.55535          2.3998        0.237858 
        4.57106         2.39008        0.235732 
        4.58678          2.3738        0.233631 
         4.6025         2.36196        0.231556 
        4.61821         2.34857        0.229505 
        4.63391          2.3327        0.227482 
         4.6496         2.31967        0.225484 
        4.66532         2.30534        0.223507 
        4.68103         2.28769        0.221554 
        4.69673         2.27325        0.219627 
        4.71241         2.26151        0.217724 
        4.72811         2.25239         0.21584 
        4.74384          2.2361        0.213976 
        4.75955         2.22852        0.212137 
        4.77525         2.21285         0.21032 
        4.79096         2.19933        0.208522 
        4.80669         2.18807        0.206744 
         4.8224         2.17184        0.204989 
        4.83809         2.16468        0.203255 
        4.85379         2.15538        0.201541 
         4.8695         2.14025        0.199845 
        4.88521         2.12392        0.198169 
        4.90093         2.11978        0.196512 
        4.91663         2.10224        0.194875 
        4.93234         2.09432        0.193255 
        4.94807         2.08588        0.191652 
        4.96377         2.07154         0.19007 
        4.97943         2.05743         0.18851 
        4.99514         2.04739        0.186962 
        5.01086         2.03588        0.185431 
        5.02654         2.02825        0.183921 
        5.04227          2.0173        0.182423 
          5.058         2.00848         0.18094 
        5.07371         1.99723        0.179478 
        5.08942         1.98687         0.17803 
        5.10513         1.97436        0.176599 
        5.12084         1.96379        0.175183 
        5.13656         1.95434        0.173782 
        5.15225         1.93991        0.172399 
        5.16796         1.93296        0.171028 
        5.18369         1.91997        0.169671 
         5.1994         1.91715        0.168332 
        5.21509         1.90456        0.167007 
        5.23079         1.89167        0.165696 
        5.24649         1.88598        0.164399 
        5.26217         1.87812        0.163117 
        5.27788         1.86695        0.161847 
        5.29359         1.85689         0.16059 
        5.30933         1.84691        0.159345 
        5.32504         1.83355        0.158114 
        5.34073         1.82621        0.156898 
        5.35646         1.81788        0.155693 
        5.37218         1.80865        0.154499 
        5.38789         1.80031         0.15332 
        5.40357         1.79396        0.152155 
        5.41929         1.78691        0.150999 
        5.43502         1.77788        0.149854 
         5.4507         1.77076        0.148725 
        5.46639         1.75979        0.147606 
        5.48212         1.75332        0.146497 
        5.49786         1.74409        0.145397 
        5.51353         1.73506        0.144314 
        5.52921         1.72798        0.143241 
        5.54495         1.71938        0.142176 
        5.56066         1.71185        0.141123 
        5.57637         1.70443         0.14008 
        5.59207          1.6938        0.139049 
        5.60778         1.69189        0.138027 
        5.62346         1.68083        0.137018 
        5.63916         1.67085        0.136017 
        5.65487         1.66528        0.135026 
         5.6706         1.65714        0.134043 
        5.68633         1.64928         0.13307 
        5.70203         1.64081        0.132108 
        5.71773         1.63489        0.131156 
        5.73344         1.63023        0.130213 
        5.74916         1.62039        0.129278 
        5.76486          1.6141        0.128354 
        5.78054         1.60595         0.12744 
        5.79626         1.60152        0.126532 
          5.812         1.59435        0.125632 
         5.8277         1.58527        0.124743 
        5.84339         1.57906        0.123863 
        5.85911         1.57136         0.12299 
        5.87484         1.56304        0.122125 
        5.89053         1.55898         0.12127 
        5.90623         1.55125        0.120423 
        5.92195         1.54649        0.119583 
        5.93767         1.53872         0.11875 
        5.95336         1.53139        0.117928 
        5.96905         1.52373        0.117113 
        5.98476         1.51694        0.116304 
        6.00048           1.512        0.115503 
        6.01617         1.50519        0.114711 
        6.03185         1.49796        0.113927 
        6.04756         1.49422        0.113148 
        6.06331         1.48577        0.112375 
        6.07903         1.48463        0.111611 
        6.09473         1.47491        0.110854 
        6.11044         1.46925        0.110104 
        6.12616         1.46419        0.109361 
        6.14186         1.45967        0.108625 
        6.15755         1.45111        0.107896 
        6.17326         1.44756        0.107173 
        6.18898         1.44035        0.106457 
        6.20467         1.43508        0.105748 
        6.22036         1.42801        0.105045 
         6.2361         1.42398        0.104348 
         6.2518         1.41554        0.103657 
        6.26748         1.41144        0.102974 
        6.28319         1.40584        0.102296 
        6.29893         1.39961        0.101623 
        6.31463         1.39535        0.100957 
        6.33033         1.38985        0.100297 
        6.34604          1.3826       0.0996428 
        6.36177         1.37986       0.0989936 
        6.37747          1.3742       0.0983513 
