# k  (h/Mpc)    Pcb(k)  (Mpc/h)^3    Pcb_linear(k) (Mpc/h)^3   ShotnoiseSubtracted = true
      0.0200456         16461.8         16752.2 
      0.0350414         10294.4         10611.3 
      0.0492313         7168.35          7209.4 
      0.0637834         6072.66         5905.28 
      0.0800726         4620.38         4479.74 
       0.096163         3046.67         3058.17 
       0.111083         2418.92         2421.52 
       0.126058         2232.77         2165.54 
       0.142273         1890.78         1768.83 
       0.158546         1559.28         1343.76 
        0.17375         1242.68         1140.73 
       0.188953         1207.46         1040.25 
       0.204907          1115.2         896.169 
       0.220756         940.286         738.799 
        0.23588         830.629          646.02 
         0.2514         719.772         590.214 
       0.267535         699.206         524.846 
       0.283568         629.158         454.653 
       0.299022          588.34         405.427 
       0.314451         553.417          371.72 
       0.330372         507.188         337.548 
       0.346141         459.692         302.628 
       0.361624         443.648         274.452 
       0.377134         408.255         252.743 
       0.392932         387.427         232.529 
       0.408854         372.255         212.593 
       0.424564         348.568         195.262 
       0.440253          340.04          180.85 
       0.455999         318.323         167.894 
       0.471626         300.927         155.726 
        0.48727         287.638         144.651 
       0.502856         278.279         134.978 
       0.518488          274.87         126.237 
       0.534347         257.083         118.015 
       0.550082         243.049         110.494 
       0.565732         239.167         103.744 
       0.581496         224.962         97.5502 
       0.597222         220.169          91.846 
       0.612804         213.521         86.6064 
       0.628434         204.441         81.7721 
       0.644267         198.027         77.2711 
       0.660051         194.614         73.1195 
       0.675724         189.997         69.2931 
       0.691403         184.248         65.7349 
       0.707174         177.521         62.4044 
       0.722871         174.365          59.316 
        0.73838         170.961         56.4679 
       0.754018         166.861         53.7842 
       0.769845         160.859         51.2447 
        0.78569         159.494         48.8661 
       0.801365         153.186         46.6612 
       0.817031         148.622         44.5938 
       0.832809         147.392         42.6382 
       0.848511         142.408         40.8085 
       0.864097         140.791         39.0984 
       0.879701         137.619         37.4845 
       0.895507          133.81         35.9425 
       0.911279          129.91         34.4903 
        0.92691         129.768           33.13 
       0.942635          125.65         31.8354 
       0.958396         125.175          30.607 
       0.974128         121.806         29.4455 
       0.989692         119.249         28.3555 
        1.00528         117.242         27.3188 
        1.02113         115.791         26.3176 
        1.03692         112.752         25.3701 
        1.05264         110.344         24.4735 
        1.06832         108.281         23.6214 
        1.08405         106.728         22.8075 
        1.09979         105.788         22.0314 
        1.11537           103.1         21.2989 
        1.13105         101.696         20.5952 
        1.14679          100.93         19.9206 
        1.16256         99.4882         19.2747 
        1.17828         97.4501         18.6595 
        1.19395         95.5192         18.0732 
         1.2097          94.338          17.509 
        1.22537         93.2379         16.9715 
          1.241         91.5969         16.4581 
        1.25666         90.0555         15.9646 
        1.27241          88.289          15.489 
        1.28819          87.498         15.0318 
        1.30392         85.3509         14.5944 
        1.31957         85.0052         14.1763 
        1.33529         82.8553         13.7729 
        1.35108         82.1272         13.3836 
        1.36674         81.3752         13.0121 
         1.3824         79.7923         12.6549 
        1.39811         78.6861         12.3099 
        1.41389         77.6898         11.9764 
        1.42964         75.9574         11.6558 
        1.44531         74.7721         11.3485 
        1.46101         73.6509         11.0515 
        1.47667         73.5219          10.766 
        1.49229         72.2145         10.4913 
        1.50793         71.4401         10.2258 
        1.52367         70.1878         9.96774 
        1.53953         69.1573         9.71685 
        1.55526         68.6712         9.47655 
        1.57092         68.0851         9.24533 
        1.58662         66.2079         9.02125 
        1.60235         66.1126         8.80412 
        1.61809         65.0372         8.59401 
        1.63369         64.3199         8.39258 
        1.64941         63.9036         8.19614 
        1.66519          62.199         8.00525 
        1.68085         62.1692         7.82177 
        1.69652          60.585         7.64395 
        1.71228         60.3889         7.47064 
        1.72806         59.8253         7.30253 
        1.74368         58.8955         7.14126 
        1.75933         57.8792         6.98451 
        1.77505          57.603         6.83171 
        1.79081         56.5557          6.6832 
         1.8065         55.7623         6.53971 
        1.82218         55.1937         6.40054 
        1.83797         54.4512         6.26445 
        1.85367         54.2214         6.13304 
        1.86928         53.4339         6.00618 
        1.88497         52.6958         5.88219 
        1.90073         52.0244         5.76123 
        1.91647         51.6488         5.64377 
        1.93218         50.9927         5.52981 
        1.94787         50.3962         5.41914 
        1.96363         49.7288         5.31106 
        1.97935         49.3237         5.20613 
        1.99499         48.6919         5.10461 
        2.01064         48.1282         5.00564 
         2.0264         47.2916         4.90865 
        2.04216          47.008         4.81427 
        2.05781         46.3682         4.72296 
        2.07353          45.503         4.63367 
        2.08928         45.2694         4.54649 
        2.10499         44.5945         4.46177 
        2.12065         44.2814         4.37945 
        2.13633         43.8113         4.29913 
        2.15211         43.5019         4.22029 
        2.16785         42.9876         4.14364 
        2.18349         42.6611         4.06937 
        2.19916         41.9202         3.99674 
        2.21489         41.6324         3.92564 
        2.23063         41.2691         3.85621 
         2.2463         40.6281         3.78877 
        2.26194         40.0203         3.72309 
        2.27765         40.0245         3.65863 
        2.29341         39.3213         3.59552 
        2.30914         38.7872         3.53402 
        2.32486          38.203         3.47398 
        2.34061          38.032         3.41523 
        2.35635         37.3398         3.35788 
        2.37203         37.1249         3.30204 
        2.38768         36.6688         3.24758 
        2.40339           36.35         3.19415 
        2.41914         35.9459         3.14178 
        2.43483         35.6973         3.09077 
         2.4505         35.4166         3.04096 
        2.46622          34.807         2.99208 
        2.48195         34.5517         2.94427 
        2.49759         34.0531         2.89774 
        2.51328         33.7172          2.8521 
        2.52906          33.351         2.80714 
        2.54479          33.072         2.76332 
        2.56049         32.5488         2.72051 
        2.57618         32.4037         2.67864 
        2.59189         31.8942         2.63758 
        2.60758         31.7603         2.59744 
        2.62325         31.3043         2.55818 
        2.63898         31.0062         2.51959 
        2.65468         30.5187         2.48188 
        2.67044         30.2264         2.44477 
        2.68618         29.9588         2.40849 
        2.70184         29.6999          2.3731 
        2.71755         29.3736         2.33832 
        2.73329         29.1654         2.30419 
        2.74897         28.7376         2.27084 
        2.76462         28.4599         2.23822 
        2.78034         28.2748         2.20611 
        2.79607         27.9424         2.17458 
        2.81179         27.6506         2.14371 
        2.82749          27.271         2.11346 
        2.84321         27.0593         2.08377 
        2.85893         26.8541         2.05464 
        2.87462          26.541         2.02612 
        2.89033         26.2152         1.99812 
        2.90605         26.0437         1.97061 
        2.92176         25.7571         1.94363 
        2.93747         25.5126         1.91717 
        2.95318         25.2173          1.8912 
        2.96891         24.9844         1.86569 
        2.98456         24.7695         1.84076 
        3.00023         24.4327         1.81624 
        3.01596         24.2385          1.7921 
        3.03164         24.0535         1.76846 
        3.04738         23.8186         1.74517 
         3.0631         23.4882         1.72231 
        3.07883         23.2972         1.69985 
        3.09456         23.1052          1.6778 
        3.11026          22.888         1.65617 
        3.12596         22.6678         1.63492 
        3.14163         22.4711         1.61409 
        3.15734         22.2135         1.59357 
        3.17308         21.9797         1.57335 
        3.18879         21.8507         1.55355 
        3.20447         21.6035          1.5341 
         3.2202         21.3379         1.51493 
         3.2359         21.1903         1.49612 
        3.25157         20.9507         1.47767 
        3.26729         20.8215         1.45947 
        3.28304         20.5685         1.44155 
        3.29877         20.3775         1.42394 
        3.31446         20.1185         1.40667 
        3.33014         19.9701         1.38969 
        3.34585         19.7851         1.37297 
        3.36158         19.5705          1.3565 
        3.37727          19.429         1.34034 
        3.39294         19.2175         1.32446 
        3.40867         19.0671         1.30879 
        3.42439           18.87         1.29337 
        3.44008         18.7776         1.27823 
        3.45578         18.4575         1.26331 
        3.47153         18.3077         1.24861 
        3.48724         18.1427         1.23416 
        3.50292         18.0609         1.21997 
        3.51859         17.8087         1.20601 
        3.53431         17.6715         1.19222 
        3.55007         17.4972         1.17861 
        3.56577          17.313         1.16527 
        3.58146         17.1549         1.15214 
        3.59719         17.0079         1.13918 
        3.61292         16.8754         1.12642 
        3.62859         16.6942         1.11391 
        3.64429         16.5454         1.10156 
        3.66003          16.371         1.08935 
        3.67578         16.3107         1.07734 
        3.69146         16.1531         1.06555 
        3.70712         15.9303         1.05396 
        3.72284         15.8236         1.04249 
        3.73853         15.6751         1.03122 
        3.75422         15.5777         1.02011 
        3.76993         15.3914         1.00915 
        3.78564         15.2412        0.998351 
        3.80137         15.1151        0.987695 
        3.81707         14.9862        0.977216 
        3.83279         14.8309        0.966879 
        3.84853          14.703        0.956674 
        3.86424         14.5708        0.946636 
        3.87992         14.4474        0.936755 
        3.89561         14.3016        0.927014 
        3.91134          14.211         0.91739 
        3.92704         14.0373        0.907914 
        3.94273         13.9796        0.898579 
        3.95845         13.8233        0.889359 
        3.97418         13.7099        0.880264 
        3.98988         13.5849        0.871309 
        4.00554          13.454        0.862501 
        4.02125         13.3894        0.853789 
        4.03698         13.2366        0.845184 
        4.05268         13.1117        0.836715 
        4.06839         12.9871        0.828356 
         4.0841         12.8877        0.820113 
        4.09983         12.7903        0.811969 
        4.11555         12.6512        0.803939 
        4.13124          12.569        0.796039 
        4.14693         12.4731        0.788237 
        4.16266         12.3434        0.780521 
        4.17839         12.2587        0.772913 
        4.19408         12.1563        0.765422 
        4.20977         12.0417        0.758027 
        4.22551         11.9036        0.750711 
        4.24123         11.8289        0.743499 
        4.25691         11.7239          0.7364 
        4.27259         11.6493        0.729391 
        4.28831         11.5369        0.722459 
        4.30404         11.4642         0.71561 
        4.31974         11.3532        0.708863 
        4.33543         11.2472        0.702207 
        4.35116         11.1389         0.69562 
        4.36688         11.0781        0.689119 
        4.38255         10.9666        0.682726 
        4.39825         10.8907        0.676398 
        4.41398         10.7875        0.670138 
         4.4297         10.6938        0.663963 
        4.44541         10.6075        0.657867 
        4.46111         10.5108        0.651851 
        4.47683         10.4191        0.645906 
        4.49251         10.3521        0.640047 
        4.50819         10.2741        0.634261 
         4.5239         10.1826        0.628538 
        4.53962         10.0793        0.622878 
        4.55535         10.0173        0.617284 
        4.57106         9.92452        0.611767 
        4.58678         9.85179        0.606315 
         4.6025         9.75189        0.600928 
        4.61821         9.68829        0.595608 
        4.63391          9.6218        0.590358 
         4.6496         9.55702        0.585173 
        4.66532         9.45923        0.580042 
        4.68103          9.3796        0.574974 
        4.69673         9.32113        0.569971 
        4.71241          9.2395        0.565032 
        4.72811         9.15159        0.560143 
        4.74384         9.09275        0.555306 
        4.75955         9.00727        0.550533 
        4.77525         8.94358        0.545818 
        4.79096         8.87481        0.541152 
        4.80669         8.79933        0.536538 
         4.8224         8.74259        0.531982 
        4.83809         8.67549        0.527484 
        4.85379         8.59286        0.523035 
         4.8695         8.52559        0.518634 
        4.88521          8.4714        0.514284 
        4.90093         8.42011        0.509984 
        4.91663          8.3427        0.505736 
        4.93234          8.2897        0.501531 
        4.94807         8.22083        0.497372 
        4.96377         8.14931        0.493267 
        4.97943         8.10141        0.489216 
        4.99514         8.03585        0.485201 
        5.01086         7.97943        0.481227 
        5.02654         7.89528        0.477307 
        5.04227         7.84824         0.47342 
          5.058         7.79222        0.469573 
        5.07371         7.74199        0.465777 
        5.08942         7.66381        0.462021 
        5.10513         7.61268        0.458306 
        5.12084          7.5653         0.45463 
        5.13656          7.5108        0.450995 
        5.15225         7.44523        0.447406 
        5.16796         7.38426        0.443849 
        5.18369         7.33481        0.440328 
         5.1994         7.29619        0.436851 
        5.21509         7.24918        0.433415 
        5.23079         7.17696        0.430011 
        5.24649         7.12309        0.426646 
        5.26217         7.07147        0.423319 
        5.27788         7.03318        0.420023 
        5.29359         6.96923        0.416761 
        5.30933         6.91393        0.413528 
        5.32504         6.86966        0.410336 
        5.34073         6.80692         0.40718 
        5.35646         6.76111         0.40405 
        5.37218         6.71212        0.400953 
        5.38789         6.65257        0.397893 
        5.40357         6.63314        0.394869 
        5.41929         6.57549        0.391869 
        5.43502         6.53779        0.388899 
         5.4507          6.4892        0.385967 
        5.46639         6.42807        0.383065 
        5.48212         6.37735        0.380185 
        5.49786         6.34645        0.377332 
        5.51353         6.29519        0.374522 
        5.52921         6.26127        0.371737 
        5.54495         6.21141        0.368972 
        5.56066         6.16734        0.366239 
        5.57637         6.13159        0.363533 
        5.59207         6.07654        0.360857 
        5.60778         6.04265        0.358206 
        5.62346         6.00013        0.355586 
        5.63916         5.94813        0.352989 
        5.65487         5.90928        0.350416 
         5.6706         5.87643        0.347866 
        5.68633         5.83867         0.34534 
        5.70203         5.80536        0.342845 
        5.71773         5.74624        0.340374 
        5.73344         5.71128        0.337926 
        5.74916         5.68051          0.3355 
        5.76486         5.63971        0.333101 
        5.78054         5.61063        0.330729 
        5.79626          5.5629        0.328373 
          5.812         5.52733        0.326037 
         5.8277           5.489        0.323731 
        5.84339         5.46415        0.321447 
        5.85911          5.4244        0.319181 
        5.87484         5.38518        0.316936 
        5.89053         5.33631        0.314718 
        5.90623         5.30444         0.31252 
        5.92195         5.27232        0.310338 
        5.93767         5.23809        0.308179 
        5.95336         5.19859        0.306043 
        5.96905         5.15672        0.303929 
        5.98476          5.1313        0.301831 
        6.00048         5.09939        0.299752 
        6.01617         5.07015        0.297696 
        6.03185         5.03725        0.295661 
        6.04756         5.00396         0.29364 
        6.06331         4.97836        0.291634 
        6.07903         4.94089         0.28965 
        6.09473         4.90293        0.287687 
        6.11044         4.87706         0.28574 
        6.12616         4.83934        0.283811 
        6.14186         4.81364        0.281902 
        6.15755         4.77499         0.28001 
        6.17326         4.75239        0.278134 
        6.18898         4.71678        0.276274 
        6.20467         4.69108        0.274435 
        6.22036         4.65985        0.272612 
         6.2361         4.63059        0.270801 
         6.2518         4.59551        0.269009 
        6.26748         4.56535        0.267237 
        6.28319         4.54743        0.265476 
        6.29893         4.51473        0.263729 
        6.31463         4.47281        0.262001 
        6.33033         4.45655        0.260289 
        6.34604         4.42287        0.258591 
        6.36177         4.40554        0.256906 
        6.37747         4.37598        0.255239 
