# k  (h/Mpc)    Pcb(k)  (Mpc/h)^3    Pcb_linear(k) (Mpc/h)^3   ShotnoiseSubtracted = true
      0.0200456         15112.5         15319.7 
      0.0350414         10070.1         9703.88 
      0.0492313         6557.48         6592.91 
      0.0637834         5220.15         5400.31 
      0.0800726          3944.9         4096.67 
       0.096163          2969.2         2796.66 
       0.111083         2382.33         2214.45 
       0.126058         1990.54         1980.36 
       0.142273         1675.59         1617.57 
       0.158546         1337.58         1228.85 
        0.17375         1170.36         1043.18 
       0.188953         1090.83         951.296 
       0.204907          915.71         819.536 
       0.220756         811.458         675.623 
        0.23588         719.763         590.778 
         0.2514         640.894         539.744 
       0.267535          616.93         479.966 
       0.283568         534.633         415.775 
       0.299022         507.422         370.759 
       0.314451          513.39         339.933 
       0.330372         437.179         308.684 
       0.346141         402.456          276.75 
       0.361624         382.403         250.983 
       0.377134         357.615          231.13 
       0.392932         343.198         212.645 
       0.408854         326.469         194.414 
       0.424564         314.531         178.565 
       0.440253         283.798         165.385 
       0.455999         269.653         153.537 
       0.471626         270.277         142.409 
        0.48727         254.361         132.282 
       0.502856         234.067         123.436 
       0.518488         233.411         115.442 
       0.534347          217.33         107.923 
       0.550082         209.272         101.046 
       0.565732         207.967         94.8727 
       0.581496          196.03         89.2085 
       0.597222         190.278         83.9921 
       0.612804         183.655         79.2006 
       0.628434         177.932         74.7796 
       0.644267         169.122         70.6635 
       0.660051         166.428          66.867 
       0.675724         162.915         63.3678 
       0.691403         159.059         60.1138 
       0.707174         152.864         57.0681 
       0.722871         149.918         54.2438 
        0.73838         148.183         51.6393 
       0.754018         140.553          49.185 
       0.769845         140.451         46.8627 
        0.78569          135.71         44.6874 
       0.801365         131.109         42.6712 
       0.817031         128.943         40.7805 
       0.832809         125.988         38.9922 
       0.848511         122.695         37.3189 
       0.864097         119.733         35.7551 
       0.879701         118.668         34.2792 
       0.895507         115.678          32.869 
       0.911279         112.292         31.5409 
        0.92691         109.871          30.297 
       0.942635         108.001         29.1131 
       0.958396         106.366         27.9898 
       0.974128         104.341         26.9276 
       0.989692         100.896         25.9307 
        1.00528           100.2         24.9827 
        1.02113         97.6164         24.0671 
        1.03692         96.4466         23.2007 
        1.05264         95.0985         22.3807 
        1.06832         93.2099         21.6015 
        1.08405          91.288         20.8572 
        1.09979         90.5571         20.1474 
        1.11537         88.4397         19.4776 
        1.13105          87.094         18.8341 
        1.14679         85.7934         18.2171 
        1.16256         83.8296         17.6265 
        1.17828         83.1619         17.0639 
        1.19395         81.4392         16.5277 
         1.2097         80.3211         16.0118 
        1.22537          79.209         15.5202 
          1.241         77.9514         15.0507 
        1.25666         76.1744         14.5994 
        1.27241         74.9319         14.1645 
        1.28819         74.3497         13.7464 
        1.30392         73.2628         13.3464 
        1.31957          72.184          12.964 
        1.33529         70.9112         12.5952 
        1.35108         70.3297         12.2391 
        1.36674          69.154         11.8994 
         1.3824          68.497         11.5728 
        1.39811         67.2288         11.2573 
        1.41389          66.161         10.9523 
        1.42964         65.0268         10.6591 
        1.44531         64.5163          10.378 
        1.46101         63.7073         10.1064 
        1.47667         63.0494         9.84534 
        1.49229         62.1204         9.59413 
        1.50793          61.242         9.35136 
        1.52367         60.5596         9.11539 
        1.53953         60.0312         8.88594 
        1.55526         58.7371         8.66619 
        1.57092         58.3508         8.45475 
        1.58662          57.674         8.24983 
        1.60235         57.0462         8.05127 
        1.61809         55.8867         7.85912 
        1.63369         55.4024         7.67491 
        1.64941         55.0595         7.49527 
        1.66519         53.9695         7.32071 
        1.68085         53.0366         7.15292 
        1.69652         52.3579         6.99031 
        1.71228         51.7419         6.83181 
        1.72806         51.6074         6.67808 
        1.74368         50.5552          6.5306 
        1.75933         50.1178         6.38726 
        1.77505         49.6811         6.24752 
        1.79081         48.7998         6.11171 
         1.8065         48.4275         5.98049 
        1.82218         47.7238         5.85322 
        1.83797         47.0312         5.72876 
        1.85367         46.5685          5.6086 
        1.86928         45.9917         5.49258 
        1.88497         45.5126          5.3792 
        1.90073         44.9153         5.26858 
        1.91647         44.5927         5.16116 
        1.93218         43.8969         5.05694 
        1.94787         43.4022         4.95575 
        1.96363         42.9068          4.8569 
        1.97935         42.3975         4.76094 
        1.99499         41.8622         4.66811 
        2.01064         41.4139          4.5776 
         2.0264         41.0563         4.48891 
        2.04216         40.4505          4.4026 
        2.05781          39.914         4.31909 
        2.07353         39.4826         4.23744 
        2.08928         39.2443         4.15771 
        2.10499         38.6088         4.08024 
        2.12065         38.3361         4.00496 
        2.13633         37.8949         3.93151 
        2.15211         37.4958         3.85941 
        2.16785         36.8391         3.78931 
        2.18349         36.4672         3.72139 
        2.19916         36.1706         3.65498 
        2.21489         35.8616         3.58996 
        2.23063         35.5311         3.52646 
         2.2463         35.0014         3.46479 
        2.26194         34.7482         3.40473 
        2.27765         34.2996         3.34578 
        2.29341         33.8364         3.28806 
        2.30914         33.3687         3.23182 
        2.32486         33.1492         3.17691 
        2.34061          32.813         3.12319 
        2.35635          32.432         3.07075 
        2.37203         31.8619         3.01968 
        2.38768         31.8326         2.96988 
        2.40339         31.4007         2.92101 
        2.41914         31.0978         2.87312 
        2.43483         30.7427         2.82647 
         2.4505         30.5848         2.78093 
        2.46622         30.0963         2.73623 
        2.48195         29.8007          2.6925 
        2.49759         29.5043         2.64995 
        2.51328         29.1514         2.60821 
        2.52906         29.0036          2.5671 
        2.54479         28.7953         2.52702 
        2.56049         28.2063         2.48787 
        2.57618         28.0332         2.44958 
        2.59189         27.8561         2.41204 
        2.60758         27.3267         2.37533 
        2.62325         27.2978         2.33943 
        2.63898         26.9615         2.30414 
        2.65468         26.5856         2.26965 
        2.67044         26.5196         2.23571 
        2.68618         26.1751         2.20254 
        2.70184         25.8199         2.17017 
        2.71755         25.5954         2.13837 
        2.73329         25.3342         2.10715 
        2.74897         25.1251         2.07666 
        2.76462         24.7837         2.04683 
        2.78034         24.6756         2.01746 
        2.79607         24.3576         1.98863 
        2.81179         24.1045          1.9604 
        2.82749         23.9405         1.93274 
        2.84321         23.6053         1.90558 
        2.85893         23.3964         1.87895 
        2.87462         23.1424         1.85287 
        2.89033         22.9644         1.82725 
        2.90605         22.7273          1.8021 
        2.92176         22.6209         1.77743 
        2.93747         22.3464         1.75323 
        2.95318          22.186         1.72948 
        2.96891         21.9002         1.70615 
        2.98456         21.7539         1.68335 
        3.00023         21.5344         1.66093 
        3.01596         21.2657         1.63885 
        3.03164         21.0312         1.61723 
        3.04738         20.8473         1.59594 
         3.0631         20.6838         1.57503 
        3.07883         20.4192          1.5545 
        3.09456         20.2444         1.53433 
        3.11026         20.0036         1.51455 
        3.12596         19.8597         1.49511 
        3.14163         19.6776         1.47606 
        3.15734         19.4998          1.4573 
        3.17308          19.299         1.43881 
        3.18879         19.1337          1.4207 
        3.20447         18.9827         1.40292 
         3.2202         18.7748         1.38539 
         3.2359         18.5646         1.36818 
        3.25157         18.3927         1.35131 
        3.26729          18.322         1.33467 
        3.28304         18.0339         1.31828 
        3.29877         17.9244         1.30218 
        3.31446         17.7494         1.28638 
        3.33014         17.5255         1.27086 
        3.34585         17.4236         1.25556 
        3.36158          17.235          1.2405 
        3.37727         17.0971         1.22573 
        3.39294         16.9481         1.21121 
        3.40867         16.7579         1.19687 
        3.42439         16.6563         1.18277 
        3.44008         16.4714         1.16892 
        3.45578         16.3245         1.15529 
        3.47153         16.1883         1.14184 
        3.48724         16.0284         1.12862 
        3.50292         15.9016         1.11565 
        3.51859         15.7611         1.10288 
        3.53431         15.6169         1.09027 
        3.55007         15.4699         1.07783 
        3.56577         15.3054         1.06563 
        3.58146         15.1947         1.05362 
        3.59719         15.0624         1.04177 
        3.61292         14.9475          1.0301 
        3.62859          14.752         1.01865 
        3.64429         14.5682         1.00736 
        3.66003         14.5737        0.996201 
        3.67578         14.3763        0.985215 
        3.69146          14.337        0.974434 
        3.70712         14.1332        0.963833 
        3.72284         13.9843        0.953349 
        3.73853         13.9133        0.943039 
        3.75422         13.7445        0.932876 
        3.76993         13.6166        0.922853 
        3.78564          13.542        0.912981 
        3.80137          13.423        0.903236 
        3.81707         13.2896        0.893653 
        3.83279         13.1944          0.8842 
        3.84853         13.0123        0.874867 
        3.86424         12.9596        0.865687 
        3.87992         12.8677        0.856651 
        3.89561         12.7226        0.847743 
        3.91134          12.665        0.838943 
        3.92704         12.5331        0.830277 
        3.94273          12.395        0.821741 
        3.95845         12.3271        0.813308 
        3.97418         12.2096        0.804992 
        3.98988         12.0976        0.796802 
        4.00554         12.0022        0.788747 
        4.02125         11.8686        0.780781 
        4.03698         11.7655        0.772911 
        4.05268         11.6744        0.765167 
        4.06839         11.5612        0.757522 
         4.0841         11.4828        0.749984 
        4.09983         11.3848        0.742537 
        4.11555         11.2945        0.735193 
        4.13124         11.1788        0.727968 
        4.14693         11.1294        0.720833 
        4.16266         11.0342        0.713778 
        4.17839         10.9313         0.70682 
        4.19408         10.8062         0.69997 
        4.20977         10.7496        0.693207 
        4.22551         10.6555        0.686517 
        4.24123         10.5466        0.679921 
        4.25691         10.4623        0.673429 
        4.27259         10.3734         0.66702 
        4.28831         10.3131         0.66068 
        4.30404         10.2007        0.654417 
        4.31974         10.1473        0.648247 
        4.33543         10.0457         0.64216 
        4.35116         9.93544        0.636137 
        4.36688          9.8447        0.630192 
        4.38255         9.79616        0.624345 
        4.39825         9.73036        0.618559 
        4.41398         9.62663        0.612834 
         4.4297          9.5422        0.607187 
        4.44541         9.45297        0.601612 
        4.46111          9.4099        0.596111 
        4.47683         9.30182        0.590674 
        4.49251         9.22544        0.585315 
        4.50819         9.16182        0.580024 
         4.5239          9.0902         0.57479 
        4.53962         9.00946        0.569614 
        4.55535         8.94682        0.564499 
        4.57106          8.8983        0.559454 
        4.58678         8.81383        0.554468 
         4.6025          8.7354        0.549542 
        4.61821         8.65993        0.544676 
        4.63391         8.59634        0.539875 
         4.6496         8.52394        0.535134 
        4.66532         8.47195        0.530441 
        4.68103         8.37948        0.525807 
        4.69673         8.35117        0.521232 
        4.71241         8.26765        0.516715 
        4.72811         8.21354        0.512245 
        4.74384         8.14116        0.507821 
        4.75955         8.06429        0.503456 
        4.77525         8.01467        0.499144 
        4.79096          7.9613        0.494877 
        4.80669         7.88732        0.490658 
         4.8224         7.84258        0.486492 
        4.83809         7.78794        0.482378 
        4.85379         7.68719         0.47831 
         4.8695         7.65072        0.474285 
        4.88521          7.5791        0.470307 
        4.90093         7.54473        0.466374 
        4.91663         7.47021         0.46249 
        4.93234          7.4397        0.458645 
        4.94807         7.35639        0.454841 
        4.96377         7.30021        0.451087 
        4.97943         7.25226        0.447383 
        4.99514         7.19676        0.443711 
        5.01086         7.13407        0.440076 
        5.02654         7.08855        0.436492 
        5.04227         7.03134        0.432937 
          5.058         6.99885        0.429419 
        5.07371         6.91904        0.425947 
        5.08942         6.86904        0.422513 
        5.10513         6.84204        0.419116 
        5.12084         6.77999        0.415754 
        5.13656          6.7313         0.41243 
        5.15225         6.68249        0.409147 
        5.16796         6.62713        0.405895 
        5.18369         6.57816        0.402675 
         5.1994         6.53625        0.399495 
        5.21509          6.4828        0.396353 
        5.23079         6.43362         0.39324 
        5.24649         6.39744        0.390163 
        5.26217         6.34824         0.38712 
        5.27788         6.29524        0.384106 
        5.29359         6.25426        0.381123 
        5.30933         6.21479        0.378167 
        5.32504          6.1676        0.375247 
        5.34073            6.12        0.372361 
        5.35646         6.06945          0.3695 
        5.37218          6.0454        0.366667 
        5.38789         5.99457        0.363869 
        5.40357         5.95177        0.361103 
        5.41929         5.91532        0.358359 
        5.43502         5.86124        0.355644 
         5.4507         5.82649        0.352962 
        5.46639         5.78018        0.350308 
        5.48212         5.72991        0.347675 
        5.49786         5.70178        0.345066 
        5.51353         5.65322        0.342496 
        5.52921         5.62496        0.339949 
        5.54495         5.59313        0.337421 
        5.56066         5.53942        0.334921 
        5.57637         5.50661        0.332447 
        5.59207         5.48145        0.329999 
        5.60778         5.42902        0.327575 
        5.62346         5.39989        0.325179 
        5.63916         5.35828        0.322804 
        5.65487         5.32782        0.320452 
         5.6706         5.27815         0.31812 
        5.68633         5.24956         0.31581 
        5.70203         5.21111        0.313528 
        5.71773         5.19217        0.311268 
        5.73344           5.142         0.30903 
        5.74916         5.10222        0.306811 
        5.76486         5.06275        0.304617 
        5.78054         5.03946        0.302448 
        5.79626         5.01474        0.300293 
          5.812         4.96435        0.298157 
         5.8277         4.93859        0.296048 
        5.84339         4.91132         0.29396 
        5.85911         4.86637        0.291887 
        5.87484         4.83858        0.289835 
        5.89053         4.80971        0.287806 
        5.90623         4.77496        0.285796 
        5.92195         4.74427        0.283801 
        5.93767         4.71188        0.281826 
        5.95336         4.67957        0.279873 
        5.96905         4.66072        0.277939 
        5.98476         4.62338        0.276021 
        6.00048         4.59443         0.27412 
        6.01617         4.56601        0.272239 
        6.03185         4.53332        0.270379 
        6.04756         4.50032         0.26853 
        6.06331         4.47985        0.266696 
        6.07903         4.44729        0.264882 
        6.09473          4.4157        0.263086 
        6.11044         4.38798        0.261306 
        6.12616         4.36682        0.259542 
        6.14186         4.34088        0.257796 
        6.15755          4.3103        0.256066 
        6.17326         4.28324         0.25435 
        6.18898         4.25621         0.25265 
        6.20467         4.22375        0.250967 
        6.22036         4.19602        0.249301 
         6.2361         4.17492        0.247644 
         6.2518         4.14373        0.246005 
        6.26748         4.11985        0.244385 
        6.28319         4.08993        0.242775 
        6.29893          4.0744        0.241177 
        6.31463          4.0498        0.239597 
        6.33033         4.02641        0.238031 
        6.34604         3.99522        0.236478 
        6.36177         3.97211        0.234938 
        6.37747         3.94573        0.233414 
