# k  (h/Mpc)    Pcb(k)  (Mpc/h)^3    Pcb_linear(k) (Mpc/h)^3   ShotnoiseSubtracted = true
      0.0200456         564.817         572.305 
      0.0350414         444.967         441.308 
      0.0492313         336.752         335.894 
      0.0637834         281.322          283.53 
      0.0800726         223.416         225.399 
       0.096163         169.677         167.722 
       0.111083          140.01          137.93 
       0.126058         121.753         122.479 
       0.142273         101.806         102.417 
       0.158546         82.5967         82.1701 
        0.17375         72.0075         71.1571 
       0.188953         64.7119         64.4465 
       0.204907         55.4375         56.2328 
       0.220756          48.237         47.9337 
        0.23588         42.8081         42.5705 
         0.2514         39.0399         38.8482 
       0.267535         35.2515         34.8018 
       0.283568         31.1183          30.751 
       0.299022         28.2242         27.7779 
       0.314451         26.3453         25.5328 
       0.330372         23.7954         23.3091 
       0.346141         21.6441          21.151 
       0.361624         19.7931         19.3726 
       0.377134         18.2297         17.9233 
       0.392932         17.3565         16.5674 
       0.408854         15.6882         15.2657 
       0.424564         14.8552         14.1282 
       0.440253         13.6581         13.1526 
       0.455999         12.5716         12.2653 
       0.471626         11.7683         11.4404 
        0.48727         11.2657         10.6894 
       0.502856         10.5723         10.0219 
       0.518488         9.76645         9.41272 
       0.534347         9.13946         8.83979 
       0.550082         8.75647         8.31586 
       0.565732         8.36575         7.84116 
       0.581496          7.8582         7.40214 
       0.597222         7.41155         6.99616 
       0.612804         6.99943         6.62296 
       0.628434         6.70985         6.27671 
       0.644267          6.3938         5.95244 
       0.660051         6.06895         5.65219 
       0.675724         5.72926         5.37447 
       0.691403         5.50058         5.11528 
       0.707174         5.24061         4.87183 
       0.722871         5.11549         4.64527 
        0.73838         4.77532         4.43562 
       0.754018         4.57071          4.2374 
       0.769845         4.33366         4.04919 
        0.78569         4.22052         3.87232 
       0.801365         4.04227         3.70782 
       0.817031         3.90391         3.55307 
       0.832809         3.70325         3.40626 
       0.848511         3.59088         3.26847 
       0.864097         3.46589         3.13932 
       0.879701         3.36477          3.0171 
       0.895507         3.20528         2.89999 
       0.911279         3.10543          2.7894 
        0.92691         3.01895         2.68555 
       0.942635         2.87266         2.58645 
       0.958396         2.78178         2.49219 
       0.974128         2.70184         2.40284 
       0.989692         2.59659         2.31879 
        1.00528         2.51693         2.23867 
        1.02113         2.45506         2.16111 
        1.03692         2.38477         2.08754 
        1.05264         2.28051         2.01776 
        1.06832         2.22209         1.95131 
        1.08405         2.14544          1.8877 
        1.09979         2.09596          1.8269 
        1.11537         2.02658         1.76941 
        1.13105         1.95165         1.71407 
        1.14679         1.90712          1.6609 
        1.16256         1.84837          1.6099 
        1.17828         1.81499         1.56123 
        1.19395         1.75244         1.51475 
         1.2097         1.70187         1.46993 
        1.22537         1.64638         1.42717 
          1.241          1.6115         1.38624 
        1.25666         1.58219         1.34683 
        1.27241           1.536         1.30878 
        1.28819          1.4834         1.27214 
        1.30392          1.4496         1.23703 
        1.31957         1.41947          1.2034 
        1.33529         1.36833         1.17091 
        1.35108         1.34036          1.1395 
        1.36674         1.30331         1.10948 
         1.3824         1.28629         1.08057 
        1.39811         1.24777          1.0526 
        1.41389         1.21948         1.02553 
        1.42964          1.1892        0.999455 
        1.44531         1.16574        0.974423 
        1.46101          1.1303        0.950201 
        1.47667         1.11193        0.926879 
        1.49229         1.07503        0.904409 
        1.50793         1.05549        0.882663 
        1.52367         1.02771        0.861496 
        1.53953         1.00608        0.840886 
        1.55526        0.991865         0.82112 
        1.57092        0.976528        0.802074 
        1.58662        0.958301        0.783591 
        1.60235        0.929078        0.765659 
        1.61809        0.909852        0.748282 
        1.63369        0.885752        0.731602 
        1.64941        0.872831        0.715314 
        1.66519        0.858443        0.699467 
        1.68085        0.835452        0.684215 
        1.69652        0.819657        0.669416 
        1.71228        0.802096        0.654974 
        1.72806        0.787135        0.640948 
        1.74368        0.773612        0.627477 
        1.75933        0.759731        0.614368 
        1.77505        0.747221        0.601575 
        1.79081        0.724369        0.589125 
         1.8065        0.718729        0.577083 
        1.82218        0.699501         0.56539 
        1.83797         0.68335        0.553942 
        1.85367        0.676761        0.542877 
        1.86928        0.663537        0.532182 
        1.88497        0.647138        0.521718 
        1.90073        0.640604        0.511499 
        1.91647        0.626363        0.501563 
        1.93218        0.616419        0.491915 
        1.94787        0.605007        0.482535 
        1.96363        0.595716        0.473365 
        1.97935        0.583742        0.464453 
        1.99499        0.574655        0.455821 
        2.01064        0.565337        0.447398 
         2.0264        0.551568        0.439136 
        2.04216        0.544148        0.431088 
        2.05781        0.537192        0.423293 
        2.07353        0.527242        0.415664 
        2.08928        0.519229        0.408208 
        2.10499        0.508846        0.400955 
        2.12065        0.501252        0.393901 
        2.13633        0.494351        0.387012 
        2.15211        0.483945        0.380244 
        2.16785        0.478031        0.373657 
        2.18349        0.471475        0.367268 
        2.19916        0.462582        0.361016 
        2.21489        0.454319         0.35489 
        2.23063        0.446678        0.348902 
         2.2463         0.44157         0.34308 
        2.26194        0.435745        0.337406 
        2.27765        0.427144        0.331832 
        2.29341        0.421527         0.32637 
        2.30914        0.413288        0.321043 
        2.32486        0.407592        0.315838 
        2.34061        0.400984        0.310741 
        2.35635        0.395448        0.305761 
        2.37203        0.392861        0.300907 
        2.38768        0.384889         0.29617 
        2.40339        0.379584        0.291518 
        2.41914        0.374282        0.286956 
        2.43483        0.368182        0.282508 
         2.4505        0.363281        0.278162 
        2.46622        0.358713        0.273892 
        2.48195        0.351846        0.269713 
        2.49759        0.351423        0.265644 
        2.51328        0.342926        0.261648 
        2.52906        0.337332        0.257709 
        2.54479        0.333666        0.253867 
        2.56049        0.327946        0.250111 
        2.57618        0.325857        0.246434 
        2.59189        0.319427        0.242826 
        2.60758        0.317397        0.239296 
        2.62325         0.31235        0.235841 
        2.63898        0.309323        0.232443 
        2.65468        0.302382        0.229119 
        2.67044        0.299834        0.225846 
        2.68618        0.295855        0.222644 
        2.70184        0.291961        0.219518 
        2.71755        0.286838        0.216444 
        2.73329        0.286404        0.213425 
        2.74897        0.280152        0.210473 
        2.76462        0.277697        0.207584 
        2.78034        0.273392        0.204738 
        2.79607        0.271024        0.201942 
        2.81179        0.265329        0.199201 
        2.82749        0.263957        0.196515 
        2.84321        0.260957        0.193875 
        2.85893        0.256879        0.191285 
        2.87462        0.253652        0.188747 
        2.89033        0.250454        0.186253 
        2.90605        0.248139        0.183802 
        2.92176        0.246125        0.181396 
        2.93747        0.241908        0.179035 
        2.95318         0.23943        0.176716 
        2.96891        0.236678        0.174437 
        2.98456        0.234718        0.172208 
        3.00023        0.231224        0.170015 
        3.01596        0.228212        0.167853 
        3.03164        0.225558        0.165736 
        3.04738         0.22385        0.163649 
         3.0631        0.221273        0.161599 
        3.07883        0.218676        0.159583 
        3.09456        0.215953        0.157603 
        3.11026        0.212824         0.15566 
        3.12596        0.210246        0.153749 
        3.14163        0.208778        0.151875 
        3.15734        0.207016        0.150028 
        3.17308        0.204067        0.148208 
        3.18879        0.201928        0.146423 
        3.20447         0.19945         0.14467 
         3.2202        0.198003         0.14294 
         3.2359        0.195534        0.141242 
        3.25157        0.193137        0.139575 
        3.26729        0.191467        0.137931 
        3.28304        0.189667        0.136309 
        3.29877        0.187177        0.134716 
        3.31446        0.185703        0.133152 
        3.33014        0.183711        0.131615 
        3.34585        0.181106        0.130099 
        3.36158        0.179598        0.128605 
        3.37727         0.17866         0.12714 
        3.39294         0.17663        0.125698 
        3.40867        0.174495        0.124274 
        3.42439        0.172975        0.122873 
        3.44008        0.171725        0.121496 
        3.45578        0.169325        0.120139 
        3.47153        0.168393          0.1188 
        3.48724        0.166367        0.117484 
        3.50292        0.165164        0.116191 
        3.51859        0.163361        0.114918 
        3.53431        0.161788         0.11366 
        3.55007        0.160139        0.112419 
        3.56577        0.159377          0.1112 
        3.58146        0.157546            0.11 
        3.59719        0.155994        0.108816 
        3.61292        0.154726        0.107649 
        3.62859        0.153534        0.106504 
        3.64429          0.1516        0.105373 
        3.66003        0.151005        0.104255 
        3.67578        0.149358        0.103154 
        3.69146        0.148118        0.102073 
        3.70712        0.146621         0.10101 
        3.72284        0.145919       0.0999576 
        3.73853        0.144678       0.0989223 
        3.75422        0.143067       0.0979013 
        3.76993        0.141886       0.0968939 
        3.78564        0.141056       0.0959011 
        3.80137        0.139903       0.0949206 
        3.81707        0.137988        0.093956 
        3.83279        0.137201        0.093004 
        3.84853        0.136146       0.0920638 
        3.86424        0.135133       0.0911384 
        3.87992        0.133991       0.0902271 
        3.89561        0.133008       0.0893283 
        3.91134         0.13185       0.0884399 
        3.92704        0.130619       0.0875647 
        3.94273        0.129519       0.0867023 
        3.95845        0.128144       0.0858499 
        3.97418        0.127504       0.0850088 
        3.98988        0.125748       0.0841802 
        4.00554         0.12521       0.0833649 
        4.02125        0.124096       0.0825581 
        4.03698        0.122278       0.0817608 
        4.05268        0.121711       0.0809758 
        4.06839        0.120073       0.0802006 
         4.0841        0.118825       0.0794358 
        4.09983        0.117626         0.07868 
        4.11555        0.116432       0.0779343 
        4.13124        0.115118       0.0772003 
        4.14693        0.113979       0.0764753 
        4.16266        0.112723       0.0757578 
        4.17839        0.111586       0.0750501 
        4.19408        0.110559        0.074353 
        4.20977        0.109414       0.0736645 
        4.22551        0.108777       0.0729831 
        4.24123         0.10745       0.0723111 
        4.25691        0.106545       0.0716493 
        4.27259        0.105653       0.0709957 
        4.28831        0.105203       0.0703489 
        4.30404        0.103711       0.0697096 
        4.31974        0.103336       0.0690797 
        4.33543        0.102353       0.0684579 
        4.35116        0.101892       0.0678423 
        4.36688        0.100803       0.0672345 
        4.38255        0.100345       0.0666365 
        4.39825       0.0998319       0.0660444 
        4.41398       0.0991314       0.0654584 
         4.4297        0.098585       0.0648802 
        4.44541       0.0980734        0.064309 
        4.46111       0.0973246       0.0637452 
        4.47683        0.096846       0.0631878 
        4.49251       0.0965859       0.0626382 
        4.50819       0.0961436       0.0620953 
         4.5239       0.0955559       0.0615581 
        4.53962       0.0952299       0.0610265 
        4.55535       0.0951532        0.060501 
        4.57106       0.0944264       0.0599825 
        4.58678        0.094338       0.0594699 
         4.6025       0.0940651       0.0589633 
        4.61821       0.0937917       0.0584626 
        4.63391       0.0936553       0.0579685 
         4.6496       0.0934056       0.0574802 
        4.66532       0.0932313       0.0569969 
        4.68103       0.0932638       0.0565193 
        4.69673       0.0929505       0.0560476 
        4.71241       0.0933857       0.0555819 
        4.72811       0.0929185       0.0551207 
        4.74384        0.092751       0.0546641 
        4.75955       0.0928591       0.0542134 
        4.77525       0.0930039       0.0537681 
        4.79096       0.0931105       0.0533272 
        4.80669        0.092877       0.0528911 
         4.8224       0.0932271       0.0524604 
        4.83809       0.0934077       0.0520349 
        4.85379       0.0934879       0.0516139 
         4.8695       0.0938612       0.0511973 
        4.88521       0.0939282       0.0507854 
        4.90093       0.0944858        0.050378 
        4.91663       0.0946178       0.0499755 
        4.93234       0.0946012       0.0495769 
        4.94807       0.0950832       0.0491825 
        4.96377       0.0954593       0.0487931 
        4.97943       0.0962829       0.0484087 
        4.99514       0.0965926       0.0480275 
        5.01086       0.0965779       0.0476501 
        5.02654       0.0975932       0.0472778 
        5.04227       0.0978544       0.0469083 
          5.058       0.0983504       0.0465426 
        5.07371       0.0990215       0.0461816 
        5.08942       0.0999316       0.0458243 
        5.10513        0.100467       0.0454708 
        5.12084         0.10114       0.0451209 
        5.13656        0.101913       0.0447747 
        5.15225        0.102815       0.0444328 
        5.16796        0.103526       0.0440939 
        5.18369        0.104114       0.0437582 
         5.1994        0.105141       0.0434267 
        5.21509        0.106082       0.0430988 
        5.23079        0.106773        0.042774 
        5.24649        0.107861       0.0424528 
        5.26217        0.108718       0.0421352 
        5.27788        0.110056       0.0418203 
        5.29359        0.110912       0.0415086 
        5.30933        0.111781       0.0411997 
        5.32504        0.113092       0.0408944 
        5.34073        0.113977       0.0405926 
        5.35646        0.115376       0.0402932 
        5.37218        0.116636       0.0399968 
        5.38789        0.118066       0.0397038 
        5.40357        0.119291       0.0394141 
        5.41929        0.120429       0.0391267 
        5.43502        0.122089       0.0388421 
         5.4507        0.123677       0.0385611 
        5.46639        0.124704       0.0382828 
        5.48212        0.126027       0.0380066 
        5.49786        0.128331       0.0377328 
        5.51353        0.130116        0.037463 
        5.52921        0.130753       0.0371957 
        5.54495        0.133507       0.0369301 
        5.56066        0.134685       0.0366675 
        5.57637        0.136835       0.0364075 
        5.59207         0.13788       0.0361502 
        5.60778        0.140022       0.0358953 
        5.62346        0.141509       0.0356432 
        5.63916         0.14388       0.0353933 
        5.65487         0.14609       0.0351457 
         5.6706        0.147315       0.0349002 
        5.68633        0.150111       0.0346569 
        5.70203        0.152068       0.0344165 
        5.71773        0.154465       0.0341784 
        5.73344        0.156821       0.0339424 
        5.74916        0.159567       0.0337084 
        5.76486         0.16153        0.033477 
        5.78054         0.16353       0.0332481 
        5.79626        0.166422       0.0330207 
          5.812        0.167911       0.0327953 
         5.8277        0.171122       0.0325725 
        5.84339        0.173337       0.0323519 
        5.85911        0.175767       0.0321329 
        5.87484        0.178076       0.0319159 
        5.89053        0.180768       0.0317014 
        5.90623        0.185189       0.0314888 
        5.92195         0.18674       0.0312778 
        5.93767        0.189131       0.0310688 
        5.95336        0.191968       0.0308621 
        5.96905        0.196198       0.0306573 
        5.98476        0.198195       0.0304541 
        6.00048        0.201246       0.0302527 
        6.01617        0.204546       0.0300534 
        6.03185        0.207464       0.0298562 
        6.04756        0.209299       0.0296602 
        6.06331        0.214488       0.0294656 
        6.07903        0.217431       0.0292731 
        6.09473        0.219521       0.0290826 
        6.11044         0.22476       0.0288935 
        6.12616        0.225791       0.0287062 
        6.14186        0.230195       0.0285208 
        6.15755        0.233736        0.028337 
        6.17326        0.237624       0.0281546 
        6.18898        0.240251       0.0279738 
        6.20467        0.243393        0.027795 
        6.22036        0.246337       0.0276177 
         6.2361        0.249731       0.0274414 
         6.2518        0.255012        0.027267 
        6.26748        0.258783       0.0270945 
        6.28319        0.262349       0.0269231 
        6.29893        0.266859       0.0267529 
        6.31463        0.270398       0.0265845 
        6.33033        0.272735       0.0264177 
        6.34604        0.278149       0.0262521 
        6.36177        0.279965       0.0260878 
        6.37747        0.285873       0.0259253 
