# k  (h/Mpc)    Pcb(k)  (Mpc/h)^3    Pcb_linear(k) (Mpc/h)^3   ShotnoiseSubtracted = true
      0.0200456         23266.9         23711.6 
      0.0350414         18778.9         18284.1 
      0.0492313           13486         13916.7 
      0.0637834         11010.4         11747.1 
      0.0800726          8651.5         9338.67 
       0.096163         7094.53            6949 
       0.111083         5922.17         5714.67 
       0.126058         4898.18         5074.51 
       0.142273         4280.57         4243.29 
       0.158546         3547.98         3404.44 
        0.17375         3228.16         2948.16 
       0.188953         3081.31         2670.13 
       0.204907         2655.81         2329.82 
       0.220756         2411.86         1985.98 
        0.23588         2168.14         1763.77 
         0.2514         1978.27         1609.55 
       0.267535         1901.75          1441.9 
       0.283568         1710.57         1274.07 
       0.299022         1636.34         1150.88 
       0.314451         1703.18         1057.86 
       0.330372         1534.72         965.735 
       0.346141         1411.73         876.323 
       0.361624          1353.3         802.638 
       0.377134         1303.61         742.593 
       0.392932         1242.55         686.415 
       0.408854         1194.19         632.482 
       0.424564         1171.62         585.357 
       0.440253         1099.11         544.933 
       0.455999          1051.6         508.174 
       0.471626            1061         473.997 
        0.48727         1009.53         442.881 
       0.502856         977.915         415.225 
       0.518488         942.548         389.985 
       0.534347         908.737         366.247 
       0.550082         870.787          344.54 
       0.565732         854.177         324.872 
       0.581496         834.356         306.683 
       0.597222          822.56         289.863 
       0.612804         801.638           274.4 
       0.628434         769.704         260.055 
       0.644267         749.236         246.619 
       0.660051          740.36          234.18 
       0.675724         728.172         222.673 
       0.691403         700.029         211.935 
       0.707174         682.939         201.848 
       0.722871         675.126         192.461 
        0.73838         659.262         183.775 
       0.754018         647.935         175.563 
       0.769845         634.817         167.765 
        0.78569         619.791         160.437 
       0.801365         601.328         153.621 
       0.817031         594.037          147.21 
       0.832809         581.872         141.127 
       0.848511         570.867         135.418 
       0.864097         564.038         130.067 
       0.879701         563.054         125.003 
       0.895507         540.004         120.152 
       0.911279         535.614          115.57 
        0.92691         524.112         111.267 
       0.942635         517.426         107.161 
       0.958396         504.978         103.256 
       0.974128         495.923         99.5536 
       0.989692         482.591         96.0713 
        1.00528         477.881         92.7518 
        1.02113         467.129         89.5383 
        1.03692         459.908         86.4903 
        1.05264         453.663         83.5993 
        1.06832         443.237          80.846 
        1.08405         440.052         78.2104 
        1.09979         429.484         75.6917 
        1.11537          419.65         73.3098 
        1.13105         413.685         71.0169 
        1.14679         405.767          68.814 
        1.16256         402.835          66.701 
        1.17828         395.428         64.6843 
        1.19395         387.242         62.7585 
         1.2097         381.313         60.9019 
        1.22537         374.372         59.1299 
          1.241         367.765         57.4342 
        1.25666         362.958         55.8014 
        1.27241         358.417         54.2248 
        1.28819         349.472         52.7069 
        1.30392         347.149          51.252 
        1.31957         339.368         49.8589 
        1.33529         335.131         48.5128 
        1.35108         333.386         47.2115 
        1.36674          323.69         45.9675 
         1.3824         317.829         44.7698 
        1.39811         314.386         43.6111 
        1.41389         308.679         42.4893 
        1.42964         303.523         41.4091 
        1.44531         297.711          40.372 
        1.46101         291.252         39.3684 
        1.47667         290.381         38.4022 
        1.49229         285.365         37.4712 
        1.50793         279.751         36.5702 
        1.52367         274.215         35.6932 
        1.53953         270.705         34.8393 
        1.55526         266.502         34.0204 
        1.57092         262.091         33.2313 
        1.58662         257.685         32.4655 
        1.60235         254.135         31.7225 
        1.61809         250.881         31.0026 
        1.63369         246.637         30.3115 
        1.64941         243.027         29.6367 
        1.66519         239.002         28.9801 
        1.68085         234.632         28.3482 
        1.69652          231.46          27.735 
        1.71228         227.559         27.1367 
        1.72806         224.431         26.5556 
        1.74368         221.322         25.9974 
        1.75933         218.744         25.4543 
        1.77505         214.647         24.9242 
        1.79081          212.28         24.4084 
         1.8065         209.894         23.9095 
        1.82218         204.918          23.425 
        1.83797         202.826         22.9508 
        1.85367         198.871         22.4923 
        1.86928         195.518         22.0492 
        1.88497         193.152         21.6157 
        1.90073         191.639         21.1922 
        1.91647         188.139         20.7806 
        1.93218         185.204         20.3809 
        1.94787         181.263         19.9923 
        1.96363         180.369         19.6123 
        1.97935         177.429         19.2431 
        1.99499         175.281         18.8854 
        2.01064         170.983         18.5365 
         2.0264          170.13         18.1942 
        2.04216         166.995         17.8607 
        2.05781         165.259         17.5377 
        2.07353         164.078         17.2217 
        2.08928         161.687         16.9127 
        2.10499         158.481         16.6122 
        2.12065         156.458           16.32 
        2.13633         154.091         16.0345 
        2.15211         152.326         15.7541 
        2.16785         150.156         15.4812 
        2.18349          148.15         15.2165 
        2.19916         146.406         14.9575 
        2.21489         144.111         14.7037 
        2.23063         142.445         14.4556 
         2.2463         140.454         14.2144 
        2.26194         138.204         13.9793 
        2.27765         136.268         13.7484 
        2.29341         134.762         13.5221 
        2.30914           132.9         13.3013 
        2.32486         131.361         13.0857 
        2.34061         128.946         12.8745 
        2.35635         127.365         12.6682 
        2.37203         126.256         12.4671 
        2.38768         125.005         12.2708 
        2.40339         122.353         12.0781 
        2.41914          120.93         11.8891 
        2.43483         119.687         11.7048 
         2.4505         118.355         11.5247 
        2.46622          116.28         11.3478 
        2.48195         115.339         11.1747 
        2.49759         113.062         11.0061 
        2.51328         112.159         10.8405 
        2.52906         110.935         10.6773 
        2.54479         109.214         10.5181 
        2.56049         108.022         10.3625 
        2.57618         106.727         10.2102 
        2.59189         105.755         10.0607 
        2.60758         104.292         9.91445 
        2.62325          102.56         9.77131 
        2.63898         101.154          9.6305 
        2.65468         100.128         9.49277 
        2.67044         99.2016         9.35717 
        2.68618         97.4902         9.22453 
        2.70184         96.5979           9.095 
        2.71755         95.0025         8.96765 
        2.73329         93.9071         8.84256 
        2.74897         92.9742         8.72026 
        2.76462         91.9994         8.60056 
        2.78034         90.9312         8.48262 
        2.79607         89.8185         8.36678 
        2.81179         88.7183         8.25324 
        2.82749         87.8569         8.14195 
        2.84321         86.5064         8.03259 
        2.85893         85.3886         7.92528 
        2.87462         84.3539         7.82012 
        2.89033         83.5581         7.71678 
        2.90605         82.5833         7.61523 
        2.92176         81.4332         7.51556 
        2.93747         80.7643         7.41774 
        2.95318         79.6659         7.32164 
        2.96891         78.9182          7.2272 
        2.98456         77.6703         7.13486 
        3.00023         77.0014           7.044 
        3.01596         76.2289         6.95445 
        3.03164         75.4129         6.86672 
        3.04738         74.6724         6.78025 
         3.0631         73.6916          6.6953 
        3.07883         72.8267         6.61181 
        3.09456         71.8692         6.52976 
        3.11026          71.279         6.44924 
        3.12596         70.1812         6.37008 
        3.14163         69.7163         6.29245 
        3.15734         68.7286         6.21593 
        3.17308         68.0859          6.1405 
        3.18879         67.5921         6.06654 
        3.20447         66.7902         5.99391 
         3.2202         65.7529         5.92224 
         3.2359         65.4742         5.85188 
        3.25157         64.8414         5.78283 
        3.26729         63.7544         5.71469 
        3.28304         63.2585         5.64753 
        3.29877         62.5337         5.58153 
        3.31446         61.9031         5.51673 
        3.33014         61.3658         5.45303 
        3.34585         60.6124         5.39023 
        3.36158         59.9737         5.32833 
        3.37727         59.3346         5.26761 
        3.39294         58.6666         5.20789 
        3.40867         57.9225         5.14888 
        3.42439         57.3052         5.09082 
        3.44008         56.8052         5.03378 
        3.45578         56.4932         4.97756 
        3.47153         55.7267         4.92209 
        3.48724         55.1266         4.86756 
        3.50292         54.7646         4.81399 
        3.51859         54.0439         4.76125 
        3.53431         53.4546         4.70914 
        3.55007         52.9772         4.65769 
        3.56577          52.575         4.60721 
        3.58146         51.7938         4.55751 
        3.59719         51.4492         4.50842 
        3.61292         50.8698         4.46008 
        3.62859         50.3369         4.41263 
        3.64429         49.9556         4.36578 
        3.66003         49.3244         4.31947 
        3.67578         48.8083         4.27385 
        3.69146         48.3169         4.22906 
        3.70712         47.8163           4.185 
        3.72284         47.3739         4.14141 
        3.73853         46.9116         4.09852 
        3.75422         46.5577         4.05621 
        3.76993         46.0309         4.01448 
        3.78564         45.5563         3.97334 
        3.80137         45.0228         3.93272 
        3.81707          44.726         3.89276 
        3.83279         44.3691         3.85331 
        3.84853         43.8699         3.81436 
        3.86424         43.4687         3.77602 
        3.87992         43.0125         3.73826 
        3.89561         42.7097         3.70102 
        3.91134         42.2032         3.66422 
        3.92704         41.9245         3.62795 
        3.94273         41.4531         3.59222 
        3.95845         41.0527          3.5569 
        3.97418         40.6173         3.52206 
        3.98988         40.3148         3.48773 
        4.00554         39.7877         3.45395 
        4.02125         39.3953         3.42052 
        4.03698         39.1089         3.38749 
        4.05268         38.7404         3.35496 
        4.06839         38.4719         3.32285 
         4.0841         38.1757         3.29116 
        4.09983         37.7408         3.25984 
        4.11555         37.4098         3.22895 
        4.13124         37.0189         3.19854 
        4.14693         36.8538          3.1685 
        4.16266         36.3752         3.13878 
        4.17839         36.0463         3.10945 
        4.19408         35.7108         3.08057 
        4.20977         35.3687         3.05204 
        4.22551         35.0435         3.02381 
        4.24123         34.7845         2.99597 
        4.25691         34.3455         2.96855 
        4.27259         34.2171         2.94147 
        4.28831         33.8674         2.91467 
        4.30404         33.5343         2.88819 
        4.31974         33.2849         2.86209 
        4.33543         32.9108         2.83633 
        4.35116         32.6388         2.81082 
        4.36688         32.3732         2.78564 
        4.38255         32.1456         2.76086 
        4.39825          31.751         2.73633 
        4.41398         31.6458         2.71205 
         4.4297         31.2642          2.6881 
        4.44541         30.9937         2.66443 
        4.46111         30.7298         2.64107 
        4.47683         30.5619         2.61798 
        4.49251         30.2749         2.59521 
        4.50819         29.9376         2.57271 
         4.5239         29.6219         2.55045 
        4.53962         29.4008         2.52843 
        4.55535         29.1768         2.50666 
        4.57106         28.9159         2.48518 
        4.58678         28.6305         2.46394 
         4.6025         28.4516         2.44295 
        4.61821         28.1814         2.42221 
        4.63391         27.9178         2.40173 
         4.6496         27.6975          2.3815 
        4.66532         27.5117         2.36148 
        4.68103         27.2514         2.34169 
        4.69673         26.9838         2.32215 
        4.71241         26.8433         2.30285 
        4.72811         26.6125         2.28374 
        4.74384         26.3342         2.26483 
        4.75955         26.1247         2.24615 
        4.77525         25.9094          2.2277 
        4.79096         25.7135         2.20944 
        4.80669         25.4939         2.19137 
         4.8224         25.2801         2.17352 
        4.83809         25.0832         2.15589 
        4.85379         24.8596         2.13845 
         4.8695         24.6324         2.12119 
        4.88521         24.4453         2.10413 
        4.90093         24.2445         2.08725 
        4.91663         24.0857         2.07057 
        4.93234         23.9449         2.05406 
        4.94807         23.6926         2.03771 
        4.96377          23.545         2.02158 
        4.97943         23.3103         2.00565 
        4.99514         23.0862         1.98986 
        5.01086          22.911         1.97422 
        5.02654         22.7686          1.9588 
        5.04227          22.525         1.94349 
          5.058          22.392         1.92834 
        5.07371         22.2487         1.91338 
        5.08942         22.0566         1.89858 
        5.10513         21.8898         1.88393 
        5.12084         21.7115         1.86944 
        5.13656         21.4989         1.85509 
        5.15225         21.3651         1.84093 
        5.16796         21.1923         1.82688 
        5.18369         20.9934         1.81298 
         5.1994         20.8565         1.79924 
        5.21509         20.6472         1.78566 
        5.23079         20.5264          1.7722 
        5.24649         20.3454         1.75889 
        5.26217         20.2243         1.74573 
        5.27788         20.0341         1.73269 
        5.29359         19.8719         1.71977 
        5.30933         19.7111         1.70697 
        5.32504         19.6451         1.69432 
        5.34073         19.4489         1.68182 
        5.35646         19.3113         1.66941 
        5.37218         19.1514         1.65713 
        5.38789         19.0284           1.645 
        5.40357         18.8097         1.63299 
        5.41929         18.7169         1.62109 
        5.43502         18.5814          1.6093 
         5.4507         18.4212         1.59765 
        5.46639         18.2813         1.58612 
        5.48212         18.1616         1.57468 
        5.49786         17.9704         1.56333 
        5.51353         17.8731         1.55216 
        5.52921         17.7125         1.54108 
        5.54495         17.5682         1.53008 
        5.56066         17.4783          1.5192 
        5.57637         17.3482         1.50842 
        5.59207         17.2042         1.49776 
        5.60778         17.0676          1.4872 
        5.62346         16.9633         1.47676 
        5.63916         16.8294          1.4664 
        5.65487         16.7151         1.45615 
         5.6706         16.5687         1.44597 
        5.68633         16.4455         1.43589 
        5.70203          16.336         1.42593 
        5.71773         16.2226         1.41607 
        5.73344         16.1006         1.40629 
        5.74916         15.9894          1.3966 
        5.76486         15.9011         1.38701 
        5.78054         15.7374         1.37753 
        5.79626         15.6638          1.3681 
          5.812         15.5091         1.35876 
         5.8277         15.4091         1.34953 
        5.84339         15.2836         1.34039 
        5.85911         15.1664         1.33132 
        5.87484         15.0709         1.32233 
        5.89053         14.9506         1.31344 
        5.90623         14.8914         1.30463 
        5.92195          14.766         1.29589 
        5.93767         14.6457         1.28723 
        5.95336         14.5618         1.27867 
        5.96905         14.4292         1.27018 
        5.98476         14.3388         1.26177 
        6.00048         14.2477         1.25342 
        6.01617         14.1043         1.24516 
        6.03185         14.0259         1.23699 
        6.04756         13.9498         1.22887 
        6.06331         13.8475         1.22081 
        6.07903           13.76         1.21283 
        6.09473         13.6235         1.20494 
        6.11044         13.5676         1.19711 
        6.12616         13.4715         1.18935 
        6.14186          13.371         1.18166 
        6.15755            13.3         1.17405 
        6.17326         13.1978         1.16649 
        6.18898         13.0933           1.159 
        6.20467         13.0177         1.15159 
        6.22036         12.8994         1.14425 
         6.2361         12.8402         1.13694 
         6.2518          12.754         1.12972 
        6.26748         12.6329         1.12257 
        6.28319         12.5612         1.11547 
        6.29893         12.4628         1.10842 
        6.31463         12.3799         1.10144 
        6.33033         12.3006         1.09453 
        6.34604         12.2421         1.08767 
        6.36177         12.1533         1.08086 
        6.37747         12.0667         1.07413 
