# k  (h/Mpc)    Pcb(k)  (Mpc/h)^3    Pcb_linear(k) (Mpc/h)^3   ShotnoiseSubtracted = true
      0.0200456         2234.73         2264.49 
      0.0350414         1769.69         1746.16 
      0.0492313         1329.35         1329.06 
      0.0637834         1104.19         1121.86 
      0.0800726          876.06         891.855 
       0.096163         675.263         663.638 
       0.111083         559.847         545.758 
       0.126058         480.245         484.622 
       0.142273         402.736          405.24 
       0.158546         329.811         325.129 
        0.17375         289.413         281.553 
       0.188953         261.006         255.001 
       0.204907         221.136         222.501 
       0.220756         195.577         189.663 
        0.23588         173.883         168.442 
         0.2514         158.081         153.714 
       0.267535         145.713         137.703 
       0.283568         128.144         121.675 
       0.299022         118.198         109.911 
       0.314451         112.132         101.028 
       0.330372         99.8842          92.229 
       0.346141          91.521         83.6901 
       0.361624         84.6362          76.653 
       0.377134         77.6334         70.9187 
       0.392932         75.2678         65.5536 
       0.408854         68.8727         60.4028 
       0.424564         65.9077         55.9024 
       0.440253         60.2739         52.0418 
       0.455999          55.319         48.5313 
       0.471626         52.4107         45.2674 
        0.48727         51.0378         42.2957 
       0.502856         47.6307         39.6546 
       0.518488          44.743         37.2441 
       0.534347         42.2106         34.9771 
       0.550082         40.6268         32.9041 
       0.565732          39.145         31.0257 
       0.581496         36.8259         29.2887 
       0.597222         34.8617         27.6823 
       0.612804         33.3599         26.2056 
       0.628434         32.7044         24.8356 
       0.644267         30.9873         23.5525 
       0.660051          29.489         22.3645 
       0.675724         28.1672         21.2656 
       0.691403          27.625         20.2401 
       0.707174         26.5637         19.2768 
       0.722871         25.6892         18.3803 
        0.73838         24.3487         17.5508 
       0.754018         23.2015         16.7665 
       0.769845         22.5916         16.0218 
        0.78569         21.8952         15.3219 
       0.801365         21.1032          14.671 
       0.817031         20.4021         14.0587 
       0.832809         19.7895         13.4778 
       0.848511         19.1953         12.9326 
       0.864097         18.5749         12.4216 
       0.879701         18.2759          11.938 
       0.895507          17.603         11.4746 
       0.911279         16.9012          11.037 
        0.92691         16.5751         10.6261 
       0.942635         16.1868          10.234 
       0.958396         15.6219         9.86105 
       0.974128         15.2633         9.50751 
       0.989692         14.6195         9.17494 
        1.00528         14.5232         8.85792 
        1.02113         14.0424         8.55103 
        1.03692         13.7235         8.25994 
        1.05264         13.4078         7.98385 
        1.06832         13.1195         7.72091 
        1.08405         12.7848          7.4692 
        1.09979         12.4784         7.22866 
        1.11537         12.1844         7.00118 
        1.13105         11.9585         6.78221 
        1.14679         11.7019         6.57183 
        1.16256         11.4319         6.37003 
        1.17828         11.2118         6.17744 
        1.19395         10.9932         5.99352 
         1.2097         10.6449         5.81621 
        1.22537         10.4679         5.64698 
          1.241         10.2185         5.48505 
        1.25666         10.1829         5.32911 
        1.27241         9.95588         5.17854 
        1.28819         9.57123         5.03358 
        1.30392         9.50172         4.89464 
        1.31957         9.30814         4.76159 
        1.33529         9.17974         4.63304 
        1.35108         8.97371         4.50876 
        1.36674         8.77655         4.38996 
         1.3824         8.68765         4.27558 
        1.39811         8.51696         4.16492 
        1.41389         8.31986         4.05779 
        1.42964         8.23193         3.95462 
        1.44531           8.069         3.85558 
        1.46101         7.97287         3.75974 
        1.47667         7.80831         3.66746 
        1.49229         7.63566         3.57855 
        1.50793         7.53931          3.4925 
        1.52367         7.41019         3.40875 
        1.53953         7.26711          3.3272 
        1.55526         7.22965         3.24899 
        1.57092         7.08116         3.17363 
        1.58662         6.97888          3.1005 
        1.60235         6.87468         3.02954 
        1.61809          6.7832         2.96079 
        1.63369         6.65083         2.89479 
        1.64941         6.55775         2.83034 
        1.66519         6.47241         2.76764 
        1.68085         6.36661         2.70729 
        1.69652          6.3036         2.64873 
        1.71228         6.22733         2.59159 
        1.72806         6.10974         2.53609 
        1.74368         6.06135         2.48279 
        1.75933         5.96795         2.43092 
        1.77505         5.85203          2.3803 
        1.79081         5.82209         2.33104 
         1.8065         5.74804         2.28339 
        1.82218         5.65253         2.23712 
        1.83797         5.55734         2.19183 
        1.85367         5.48808         2.14804 
        1.86928         5.46114         2.10573 
        1.88497          5.3422         2.06432 
        1.90073         5.29552         2.02389 
        1.91647         5.22438         1.98458 
        1.93218         5.16408          1.9464 
        1.94787         5.09737         1.90929 
        1.96363         5.04395           1.873 
        1.97935         4.99054         1.83774 
        1.99499         4.93261         1.80359 
        2.01064         4.88359         1.77026 
         2.0264         4.80805         1.73757 
        2.04216         4.75954         1.70572 
        2.05781         4.69646         1.67488 
        2.07353         4.66844         1.64469 
        2.08928          4.5772         1.61519 
        2.10499         4.53949         1.58649 
        2.12065         4.54179         1.55858 
        2.13633         4.46327         1.53132 
        2.15211         4.39601         1.50454 
        2.16785         4.34885         1.47848 
        2.18349         4.31739          1.4532 
        2.19916         4.27722         1.42846 
        2.21489         4.22343         1.40422 
        2.23063         4.16961         1.38053 
         2.2463         4.12681         1.35749 
        2.26194         4.08233         1.33504 
        2.27765         4.01451         1.31299 
        2.29341         3.98492         1.29138 
        2.30914         3.94444          1.2703 
        2.32486         3.92436          1.2497 
        2.34061         3.88263         1.22953 
        2.35635         3.84602         1.20983 
        2.37203         3.82122         1.19062 
        2.38768         3.78968         1.17188 
        2.40339         3.72762         1.15347 
        2.41914         3.68822         1.13542 
        2.43483         3.65323         1.11782 
         2.4505         3.63347         1.10062 
        2.46622         3.59137         1.08373 
        2.48195         3.56603          1.0672 
        2.49759         3.52585         1.05109 
        2.51328         3.49474         1.03528 
        2.52906         3.46452          1.0197 
        2.54479         3.42906          1.0045 
        2.56049         3.39789        0.989634 
        2.57618         3.37044        0.975086 
        2.59189         3.36411         0.96081 
        2.60758         3.31844        0.946844 
        2.62325         3.27196        0.933173 
        2.63898         3.24367        0.919726 
        2.65468         3.21712        0.906573 
        2.67044          3.2142        0.893622 
        2.68618         3.17655        0.880955 
        2.70184          3.1466        0.868585 
        2.71755         3.11229        0.856423 
        2.73329         3.08152        0.844476 
        2.74897         3.06176        0.832797 
        2.76462         3.02869        0.821365 
        2.78034         3.02224        0.810102 
        2.79607         2.98211        0.799039 
        2.81179         2.95847        0.788196 
        2.82749         2.93302        0.777567 
        2.84321         2.91604        0.767123 
        2.85893         2.88195        0.756875 
        2.87462         2.87392        0.746832 
        2.89033         2.84832        0.736963 
        2.90605         2.82892        0.727265 
        2.92176         2.80114        0.717746 
        2.93747         2.77344        0.708404 
        2.95318         2.75465        0.699226 
        2.96891         2.74446        0.690208 
        2.98456         2.72361        0.681389 
        3.00023         2.70174        0.672712 
        3.01596         2.66918        0.664159 
        3.03164         2.64957        0.655781 
        3.04738         2.63822        0.647523 
         3.0631         2.61603         0.63941 
        3.07883         2.59802        0.631437 
        3.09456         2.57092        0.623601 
        3.11026         2.55889        0.615911 
        3.12596         2.53787        0.608352 
        3.14163          2.5262        0.600937 
        3.15734          2.5029         0.59363 
        3.17308         2.49195        0.586426 
        3.18879         2.47056        0.579363 
        3.20447         2.44368        0.572426 
         3.2202         2.44502        0.565582 
         3.2359         2.41765        0.558862 
        3.25157         2.39611        0.552268 
        3.26729         2.38076        0.545761 
        3.28304         2.36316        0.539346 
        3.29877         2.34554        0.533043 
        3.31446         2.33495        0.526855 
        3.33014         2.31118        0.520771 
        3.34585         2.30457        0.514774 
        3.36158         2.28166        0.508863 
        3.37727         2.27685        0.503064 
        3.39294         2.25383         0.49736 
        3.40867         2.24561        0.491725 
        3.42439         2.22819         0.48618 
        3.44008         2.20922        0.480732 
        3.45578         2.19557        0.475364 
        3.47153         2.18323        0.470066 
        3.48724         2.16748        0.464859 
        3.50292         2.14923        0.459743 
        3.51859         2.14675        0.454706 
        3.53431         2.12275         0.44973 
        3.55007         2.11686        0.444816 
        3.56577         2.10002        0.439995 
        3.58146         2.09262        0.435248 
        3.59719         2.07375         0.43056 
        3.61292         2.06255        0.425943 
        3.62859         2.04603        0.421412 
        3.64429         2.03338        0.416938 
        3.66003          2.0226        0.412515 
        3.67578         2.00932        0.408158 
        3.69146         1.99305        0.403881 
        3.70712         1.98117        0.399674 
        3.72284         1.97055         0.39551 
        3.73853         1.96371        0.391414 
        3.75422         1.94598        0.387374 
        3.76993         1.93526        0.383388 
        3.78564         1.92208         0.37946 
        3.80137         1.91037         0.37558 
        3.81707          1.8984        0.371763 
        3.83279         1.89424        0.367997 
        3.84853         1.88002        0.364276 
        3.86424         1.86259        0.360615 
        3.87992         1.85628        0.357009 
        3.89561         1.83878        0.353453 
        3.91134         1.83552        0.349938 
        3.92704         1.82253        0.346475 
        3.94273          1.8124        0.343062 
        3.95845         1.79841        0.339689 
        3.97418         1.79412        0.336361 
        3.98988         1.78422        0.333083 
        4.00554         1.76948        0.329857 
        4.02125         1.76098        0.326664 
        4.03698         1.74659        0.323509 
        4.05268         1.73717        0.320404 
        4.06839         1.72447        0.317336 
         4.0841         1.71034         0.31431 
        4.09983          1.6996        0.311319 
        4.11555         1.69177        0.308369 
        4.13124         1.67512        0.305465 
        4.14693         1.66871        0.302596 
        4.16266         1.66011        0.299757 
        4.17839         1.64849        0.296957 
        4.19408         1.64142        0.294199 
        4.20977         1.62972        0.291474 
        4.22551         1.62293        0.288778 
        4.24123         1.60836        0.286119 
        4.25691         1.59689        0.283501 
        4.27259          1.5874        0.280914 
        4.28831         1.58382        0.278355 
        4.30404          1.5703        0.275826 
        4.31974         1.55936        0.273333 
        4.33543         1.55456        0.270873 
        4.35116         1.54585        0.268437 
        4.36688         1.53445        0.266032 
        4.38255         1.52508        0.263666 
        4.39825         1.52023        0.261323 
        4.41398         1.50978        0.259005 
         4.4297         1.49858        0.256717 
        4.44541         1.49222        0.254457 
        4.46111         1.47963        0.252226 
        4.47683         1.47574         0.25002 
        4.49251         1.46941        0.247846 
        4.50819         1.46046        0.245697 
         4.5239         1.45349        0.243572 
        4.53962         1.44298        0.241469 
        4.55535         1.43788        0.239389 
        4.57106         1.42845        0.237338 
        4.58678         1.42672         0.23531 
         4.6025         1.41486        0.233305 
        4.61821         1.41225        0.231324 
        4.63391         1.40249        0.229369 
         4.6496         1.39328        0.227437 
        4.66532         1.38916        0.225524 
        4.68103          1.3822        0.223634 
        4.69673         1.37794        0.221768 
        4.71241         1.36773        0.219925 
        4.72811         1.36488          0.2181 
        4.74384         1.35802        0.216294 
        4.75955         1.35451        0.214511 
        4.77525         1.34266        0.212749 
        4.79096         1.33666        0.211004 
        4.80669         1.33494        0.209279 
         4.8224         1.32553        0.207574 
        4.83809         1.32112        0.205891 
        4.85379         1.31461        0.204225 
         4.8695         1.30833        0.202576 
        4.88521         1.30462        0.200947 
        4.90093         1.29745        0.199335 
        4.91663         1.29244        0.197742 
        4.93234          1.2897        0.196165 
        4.94807         1.28066        0.194604 
        4.96377           1.277        0.193064 
        4.97943         1.27354        0.191543 
        4.99514         1.26834        0.190034 
        5.01086         1.25929        0.188541 
        5.02654         1.25496        0.187068 
        5.04227         1.25166        0.185606 
          5.058         1.24727        0.184159 
        5.07371         1.24098         0.18273 
        5.08942         1.23675        0.181317 
        5.10513          1.2364        0.179918 
        5.12084          1.2273        0.178534 
        5.13656         1.22104        0.177164 
        5.15225         1.21549        0.175811 
        5.16796         1.21308         0.17447 
        5.18369         1.20881        0.173142 
         5.1994         1.20788         0.17183 
        5.21509         1.19878        0.170533 
        5.23079         1.19688        0.169248 
        5.24649         1.19068        0.167977 
        5.26217         1.18851         0.16672 
        5.27788         1.18083        0.165474 
        5.29359         1.17914        0.164241 
        5.30933         1.17499        0.163018 
        5.32504         1.16937         0.16181 
        5.34073          1.1662        0.160616 
        5.35646         1.16174        0.159431 
        5.37218         1.15804        0.158258 
        5.38789         1.15658        0.157099 
        5.40357         1.15205        0.155953 
        5.41929          1.1486        0.154816 
        5.43502         1.14394         0.15369 
         5.4507          1.1375        0.152578 
        5.46639         1.13435        0.151477 
        5.48212         1.13169        0.150384 
        5.49786         1.12837          0.1493 
        5.51353         1.12592        0.148233 
        5.52921         1.11949        0.147175 
        5.54495         1.11713        0.146125 
        5.56066          1.1143        0.145085 
        5.57637         1.11215        0.144056 
        5.59207         1.10835        0.143038 
        5.60778         1.10511         0.14203 
        5.62346         1.10092        0.141032 
        5.63916          1.0984        0.140044 
        5.65487         1.09357        0.139064 
         5.6706         1.09084        0.138092 
        5.68633         1.08655         0.13713 
        5.70203         1.08647        0.136179 
        5.71773           1.081        0.135236 
        5.73344         1.07721        0.134303 
        5.74916         1.07524        0.133377 
        5.76486         1.07055        0.132461 
        5.78054         1.06739        0.131556 
        5.79626         1.06602        0.130656 
          5.812         1.06293        0.129764 
         5.8277         1.05733        0.128882 
        5.84339         1.05812        0.128009 
        5.85911         1.05343        0.127143 
        5.87484          1.0524        0.126284 
        5.89053         1.04623        0.125436 
        5.90623         1.04612        0.124594 
        5.92195         1.04118        0.123759 
        5.93767         1.03825        0.122932 
        5.95336         1.03437        0.122114 
        5.96905         1.03092        0.121304 
        5.98476         1.03043          0.1205 
        6.00048         1.02737        0.119703 
        6.01617         1.02521        0.118915 
        6.03185         1.02199        0.118134 
        6.04756         1.02135        0.117359 
        6.06331           1.016        0.116589 
        6.07903         1.01579        0.115827 
        6.09473         1.01374        0.115073 
        6.11044         1.00814        0.114325 
        6.12616         1.00643        0.113584 
        6.14186         1.00222         0.11285 
        6.15755         1.00094        0.112123 
        6.17326        0.998045        0.111402 
        6.18898        0.996207        0.110686 
        6.20467        0.993951        0.109979 
        6.22036        0.989429        0.109277 
         6.2361        0.987254         0.10858 
         6.2518        0.985688         0.10789 
        6.26748        0.983451        0.107207 
        6.28319        0.980619        0.106529 
        6.29893        0.978177        0.105855 
        6.31463        0.975216        0.105189 
        6.33033        0.975346        0.104529 
        6.34604        0.972729        0.103874 
        6.36177         0.96882        0.103224 
        6.37747        0.965497        0.102581 
