# k  (h/Mpc)    Pcb(k)  (Mpc/h)^3    Pcb_linear(k) (Mpc/h)^3   ShotnoiseSubtracted = true
      0.0200456         26983.4         27529.1 
      0.0350414           21818         21227.8 
      0.0492313         15576.5         16157.2 
      0.0637834         12705.7         13638.4 
      0.0800726         9971.77         10842.2 
       0.096163          8228.8         8067.77 
       0.111083         6860.52         6634.72 
       0.126058         5674.82          5891.5 
       0.142273         4979.79         4926.46 
       0.158546         4122.86         3952.55 
        0.17375            3776         3422.81 
       0.188953         3633.96         3100.02 
       0.204907         3134.34         2704.92 
       0.220756         2857.45         2305.71 
        0.23588         2569.79         2047.73 
         0.2514         2354.34         1868.68 
       0.267535         2255.39         1674.04 
       0.283568         2043.46         1479.19 
       0.299022         1952.04         1336.17 
       0.314451         2029.47         1228.18 
       0.330372         1855.34         1121.22 
       0.346141         1714.44         1017.41 
       0.361624         1636.52         931.861 
       0.377134         1586.78          862.15 
       0.392932         1501.99         796.927 
       0.408854         1451.46          734.31 
       0.424564         1423.82         679.598 
       0.440253         1350.11         632.666 
       0.455999         1289.65         589.989 
       0.471626         1288.69          550.31 
        0.48727         1234.84         514.184 
       0.502856         1210.32         482.076 
       0.518488         1154.89         452.772 
       0.534347         1118.72         425.212 
       0.550082         1081.08         400.011 
       0.565732         1053.83         377.176 
       0.581496         1026.15         356.059 
       0.597222         1019.54          336.53 
       0.612804         987.642         318.578 
       0.628434          951.64         301.923 
       0.644267          929.68         286.325 
       0.660051         913.187         271.883 
       0.675724         902.388         258.523 
       0.691403          861.29         246.056 
       0.707174         844.258         234.345 
       0.722871         837.632         223.447 
        0.73838         808.775         213.363 
       0.754018          802.68         203.828 
       0.769845         781.824         194.775 
        0.78569         761.533         186.267 
       0.801365         743.334         178.354 
       0.817031         731.064          170.91 
       0.832809         712.869         163.848 
       0.848511         693.705          157.22 
       0.864097         687.346         151.008 
       0.879701         686.651         145.129 
       0.895507         664.312         139.496 
       0.911279         657.414         134.176 
        0.92691         641.982          129.18 
       0.942635         628.389         124.414 
       0.958396           622.2          119.88 
       0.974128         605.257         115.582 
       0.989692         593.583         111.539 
        1.00528         582.259         107.685 
        1.02113         569.777         103.954 
        1.03692         558.726         100.415 
        1.05264          553.01         97.0587 
        1.06832         542.162         93.8621 
        1.08405         533.051         90.8022 
        1.09979         521.657          87.878 
        1.11537         509.387         85.1125 
        1.13105         502.345         82.4505 
        1.14679         493.058          79.893 
        1.16256         487.178         77.4398 
        1.17828         478.702         75.0984 
        1.19395         468.976         72.8625 
         1.2097         457.587          70.707 
        1.22537         452.786         68.6497 
          1.241         442.216         66.6811 
        1.25666         434.547         64.7853 
        1.27241         432.194         62.9549 
        1.28819          421.47         61.1927 
        1.30392         416.308         59.5035 
        1.31957         406.706         57.8861 
        1.33529         403.124         56.3233 
        1.35108         401.495         54.8125 
        1.36674         391.478         53.3682 
         1.3824         381.538         51.9777 
        1.39811         379.222         50.6325 
        1.41389         373.727           49.33 
        1.42964         365.246         48.0759 
        1.44531         361.114         46.8718 
        1.46101         350.458         45.7067 
        1.47667         349.527         44.5849 
        1.49229         344.856          43.504 
        1.50793         336.024          42.458 
        1.52367         331.313         41.4398 
        1.53953         325.951         40.4484 
        1.55526         318.814         39.4976 
        1.57092         314.664         38.5815 
        1.58662         311.105         37.6924 
        1.60235         305.543         36.8298 
        1.61809         300.076         35.9939 
        1.63369         296.798         35.1916 
        1.64941         291.404         34.4081 
        1.66519         288.274         33.6458 
        1.68085          280.94         32.9122 
        1.69652         277.673         32.2003 
        1.71228         273.204         31.5056 
        1.72806         270.192          30.831 
        1.74368         267.225          30.183 
        1.75933         263.288         29.5524 
        1.77505         258.746          28.937 
        1.79081         254.892         28.3382 
         1.8065         252.244         27.7589 
        1.82218         246.202         27.1964 
        1.83797         243.687         26.6458 
        1.85367         239.216         26.1135 
        1.86928         235.738         25.5991 
        1.88497         232.454         25.0957 
        1.90073         230.235         24.6042 
        1.91647          226.16         24.1263 
        1.93218         223.013         23.6621 
        1.94787         219.087          23.211 
        1.96363         217.534         22.7698 
        1.97935         211.667         22.3412 
        1.99499         210.499          21.926 
        2.01064         205.446         21.5208 
         2.0264         203.135         21.1234 
        2.04216         200.803         20.7362 
        2.05781         197.066         20.3613 
        2.07353         195.879         19.9943 
        2.08928         192.236         19.6357 
        2.10499         190.753         19.2868 
        2.12065         187.666         18.9475 
        2.13633         184.719         18.6161 
        2.15211         181.582         18.2905 
        2.16785         179.857         17.9737 
        2.18349         176.632         17.6664 
        2.19916         175.822         17.3657 
        2.21489         172.514          17.071 
        2.23063         170.721         16.7829 
         2.2463         167.797         16.5029 
        2.26194         165.476           16.23 
        2.27765         164.133         15.9618 
        2.29341         161.608         15.6991 
        2.30914         159.413         15.4428 
        2.32486         157.967         15.1925 
        2.34061         155.077         14.9473 
        2.35635         152.968         14.7077 
        2.37203         151.821         14.4743 
        2.38768         149.386         14.2464 
        2.40339         146.897         14.0226 
        2.41914         145.759         13.8032 
        2.43483         144.015         13.5892 
         2.4505         142.022         13.3802 
        2.46622         139.983         13.1748 
        2.48195         138.187         12.9738 
        2.49759         136.675          12.778 
        2.51328         134.212         12.5858 
        2.52906         132.905         12.3964 
        2.54479         131.224         12.2115 
        2.56049         129.764         12.0309 
        2.57618         128.028          11.854 
        2.59189          127.01         11.6805 
        2.60758         125.874         11.5107 
        2.62325         123.816         11.3445 
        2.63898         121.976          11.181 
        2.65468         120.983         11.0211 
        2.67044         119.817         10.8637 
        2.68618         117.604         10.7097 
        2.70184         116.685         10.5593 
        2.71755             115         10.4114 
        2.73329         113.803         10.2662 
        2.74897         111.901         10.1242 
        2.76462         110.856         9.98524 
        2.78034         109.754         9.84831 
        2.79607         108.448         9.71382 
        2.81179          107.03           9.582 
        2.82749         105.822         9.45279 
        2.84321         104.612         9.32582 
        2.85893         103.603         9.20124 
        2.87462         102.094         9.07915 
        2.89033         101.149         8.95917 
        2.90605         99.6395         8.84127 
        2.92176         98.5009         8.72555 
        2.93747         97.5299         8.61198 
        2.95318          96.799         8.50041 
        2.96891          95.486         8.39077 
        2.98456         94.3605         8.28356 
        3.00023         93.3592         8.17808 
        3.01596         92.2824         8.07411 
        3.03164         91.2921         7.97225 
        3.04738         90.2869         7.87186 
         3.0631         89.3879         7.77323 
        3.07883         88.3816          7.6763 
        3.09456         87.3372         7.58104 
        3.11026         86.2475         7.48755 
        3.12596         85.1485         7.39566 
        3.14163         83.8924         7.30552 
        3.15734         83.3436         7.21668 
        3.17308         82.4053         7.12911 
        3.18879         81.5757         7.04324 
        3.20447         80.6667         6.95891 
         3.2202         79.8713         6.87571 
         3.2359         79.1159         6.79402 
        3.25157         78.2446         6.71386 
        3.26729         77.2821         6.63475 
        3.28304         76.7624         6.55677 
        3.29877         75.6249         6.48014 
        3.31446           74.97         6.40492 
        3.33014         74.3428         6.33095 
        3.34585         73.4097         6.25805 
        3.36158         72.5584         6.18619 
        3.37727         71.8329         6.11568 
        3.39294         71.1531         6.04635 
        3.40867         70.3565         5.97784 
        3.42439         69.4924         5.91044 
        3.44008         68.6284         5.84421 
        3.45578         68.2317         5.77895 
        3.47153         67.3493         5.71454 
        3.48724         66.7217         5.65123 
        3.50292         66.1576         5.58904 
        3.51859         65.4792         5.52781 
        3.53431         64.8325         5.46731 
        3.55007         64.1042         5.40757 
        3.56577         63.3836         5.34897 
        3.58146          62.867         5.29126 
        3.59719          62.334         5.23427 
        3.61292         61.6897         5.17814 
        3.62859         60.8982         5.12305 
        3.64429         60.5508         5.06866 
        3.66003         59.8948          5.0149 
        3.67578         59.1548         4.96193 
        3.69146         58.7632         4.90994 
        3.70712         58.0087         4.85878 
        3.72284         57.5535         4.80817 
        3.73853         56.9338         4.75837 
        3.75422         56.5239         4.70926 
        3.76993         55.8968          4.6608 
        3.78564         55.3215         4.61305 
        3.80137         54.8773         4.56588 
        3.81707         54.3703         4.51948 
        3.83279         53.7056         4.47369 
        3.84853         53.4093         4.42846 
        3.86424         52.7809         4.38395 
        3.87992         52.1566         4.34012 
        3.89561         51.9355         4.29688 
        3.91134          51.386         4.25415 
        3.92704         50.9287         4.21205 
        3.94273         50.2259         4.17056 
        3.95845         49.8205         4.12956 
        3.97418         49.4072          4.0891 
        3.98988         49.0449         4.04925 
        4.00554         48.4181         4.01003 
        4.02125         48.0386         3.97122 
        4.03698         47.5733         3.93287 
        4.05268         47.2466         3.89511 
        4.06839         46.7932         3.85782 
         4.0841         46.3378         3.82103 
        4.09983          45.881         3.78467 
        4.11555         45.5366          3.7488 
        4.13124          45.072          3.7135 
        4.14693         44.5596         3.67862 
        4.16266          44.286         3.64411 
        4.17839         43.8611         3.61007 
        4.19408         43.4275         3.57654 
        4.20977         43.0945         3.54342 
        4.22551         42.6704         3.51064 
        4.24123         42.3396         3.47831 
        4.25691         41.9161         3.44648 
        4.27259         41.6019         3.41504 
        4.28831         41.1943         3.38393 
        4.30404              41         3.35318 
        4.31974         40.5356         3.32288 
        4.33543         40.1005         3.29297 
        4.35116         39.7913         3.26336 
        4.36688         39.3715         3.23412 
        4.38255         39.1067         3.20536 
        4.39825         38.6826         3.17688 
        4.41398         38.3106         3.14869 
         4.4297         38.1127         3.12087 
        4.44541         37.6986          3.0934 
        4.46111         37.3195         3.06628 
        4.47683         37.0643         3.03947 
        4.49251         36.7769         3.01303 
        4.50819         36.5156         2.98691 
         4.5239         36.1679         2.96107 
        4.53962           35.82          2.9355 
        4.55535         35.5122         2.91023 
        4.57106         35.3284         2.88529 
        4.58678         34.9608         2.86063 
         4.6025         34.6269         2.83626 
        4.61821         34.3348         2.81218 
        4.63391         34.0269         2.78841 
         4.6496         33.8303         2.76492 
        4.66532         33.4698         2.74167 
        4.68103         33.1911          2.7187 
        4.69673         32.9635         2.69601 
        4.71241         32.6768         2.67361 
        4.72811         32.3834         2.65142 
        4.74384         32.1221         2.62946 
        4.75955          31.904         2.60778 
        4.77525         31.5333         2.58636 
        4.79096         31.3503         2.56515 
        4.80669         31.0631         2.54417 
         4.8224         30.8655         2.52346 
        4.83809         30.6078         2.50299 
        4.85379         30.3948         2.48274 
         4.8695         30.1184          2.4627 
        4.88521         29.7848         2.44289 
        4.90093         29.5462         2.42329 
        4.91663         29.3478         2.40393 
        4.93234         29.0809         2.38476 
        4.94807         28.8709         2.36578 
        4.96377         28.6524         2.34705 
        4.97943         28.3953         2.32856 
        4.99514           28.17         2.31022 
        5.01086         27.9756         2.29207 
        5.02654         27.7263         2.27416 
        5.04227          27.451         2.25639 
          5.058          27.282          2.2388 
        5.07371         27.0637         2.22143 
        5.08942         26.8463         2.20425 
        5.10513         26.6247         2.18724 
        5.12084         26.4666         2.17041 
        5.13656         26.2301         2.15376 
        5.15225         26.0716         2.13731 
        5.16796         25.8144         2.12101 
        5.18369         25.6341         2.10486 
         5.1994         25.4697         2.08891 
        5.21509           25.22         2.07315 
        5.23079         24.9858         2.05752 
        5.24649         24.8389         2.04207 
        5.26217         24.6481         2.02679 
        5.27788         24.4199         2.01165 
        5.29359          24.263         1.99665 
        5.30933         24.0674         1.98179 
        5.32504         23.8708         1.96711 
        5.34073         23.6966         1.95259 
        5.35646         23.5372         1.93819 
        5.37218         23.3705         1.92393 
        5.38789         23.1486         1.90984 
        5.40357         22.9638          1.8959 
        5.41929         22.8377         1.88208 
        5.43502          22.637         1.86839 
         5.4507         22.4856         1.85487 
        5.46639         22.3026         1.84148 
        5.48212         22.1466          1.8282 
        5.49786         21.9583         1.81503 
        5.51353         21.7763         1.80205 
        5.52921         21.6379         1.78919 
        5.54495         21.5106         1.77642 
        5.56066         21.3534         1.76378 
        5.57637         21.1436         1.75128 
        5.59207         21.0102          1.7389 
        5.60778         20.8309         1.72664 
        5.62346         20.7308         1.71451 
        5.63916         20.5101         1.70249 
        5.65487         20.3713         1.69058 
         5.6706         20.2821         1.67877 
        5.68633         20.1115         1.66707 
        5.70203         19.9513         1.65551 
        5.71773         19.7948         1.64405 
        5.73344          19.645          1.6327 
        5.74916         19.5099         1.62145 
        5.76486         19.3603         1.61032 
        5.78054         19.2362         1.59931 
        5.79626         19.0873         1.58837 
          5.812         18.9407         1.57752 
         5.8277         18.8116         1.56681 
        5.84339         18.6438         1.55619 
        5.85911         18.5245         1.54566 
        5.87484         18.4511         1.53522 
        5.89053         18.2665         1.52491 
        5.90623         18.1227         1.51468 
        5.92195         17.9789         1.50453 
        5.93767          17.843         1.49448 
        5.95336         17.7325         1.48453 
        5.96905         17.6066         1.47468 
        5.98476         17.4778         1.46491 
        6.00048         17.3643         1.45522 
        6.01617         17.2477         1.44563 
        6.03185         17.1034         1.43614 
        6.04756         16.9989         1.42672 
        6.06331         16.8687         1.41736 
        6.07903         16.7634          1.4081 
        6.09473         16.6278         1.39893 
        6.11044         16.5341         1.38984 
        6.12616         16.4171         1.38083 
        6.14186          16.293         1.37191 
        6.15755         16.1911         1.36307 
        6.17326         16.0796          1.3543 
        6.18898         15.9629          1.3456 
        6.20467         15.8609           1.337 
        6.22036         15.7194         1.32847 
         6.2361         15.6457         1.31999 
         6.2518         15.5102          1.3116 
        6.26748         15.3964          1.3033 
        6.28319         15.3152         1.29506 
        6.29893         15.2256         1.28687 
        6.31463          15.129         1.27877 
        6.33033         15.0151         1.27075 
        6.34604         14.9131         1.26278 
        6.36177         14.7872         1.25488 
        6.37747         14.7034         1.24706 
