# k  (h/Mpc)    Pcb(k)  (Mpc/h)^3    Pcb_linear(k) (Mpc/h)^3   ShotnoiseSubtracted = true
      0.0200456         26068.7         26588.8 
      0.0350414         21069.3         20502.7 
      0.0492313         15063.3         15605.3 
      0.0637834         12289.5         13172.5 
      0.0800726         9647.79         10471.8 
       0.096163         7949.54          7792.2 
       0.111083         6629.94         6408.09 
       0.126058         5483.42         5690.26 
       0.142273         4807.32         4758.18 
       0.158546         3981.17         3817.55 
        0.17375         3640.41         3305.89 
       0.188953         3496.39         2994.13 
       0.204907         3015.45         2612.53 
       0.220756         2746.25         2226.96 
        0.23588         2469.66         1977.79 
         0.2514         2260.49         1804.85 
       0.267535         2167.12         1616.86 
       0.283568          1960.2         1428.66 
       0.299022         1873.05         1290.53 
       0.314451         1948.32         1186.23 
       0.330372         1775.33         1082.92 
       0.346141         1638.12         982.658 
       0.361624         1565.48         900.031 
       0.377134         1515.09         832.701 
       0.392932         1436.68         769.706 
       0.408854          1386.4         709.228 
       0.424564          1360.2         656.385 
       0.440253         1286.48         611.056 
       0.455999         1229.36         569.837 
       0.471626         1231.46         531.513 
        0.48727         1177.92          496.62 
       0.502856         1151.53         465.609 
       0.518488         1101.08         437.306 
       0.534347         1065.86         410.688 
       0.550082         1027.53         386.347 
       0.565732         1002.95         364.293 
       0.581496         977.243         343.897 
       0.597222         969.383         325.035 
       0.612804         940.551         307.697 
       0.628434         905.275          291.61 
       0.644267         883.247         276.545 
       0.660051         869.173         262.596 
       0.675724         858.138         249.693 
       0.691403         819.994         237.651 
       0.707174         803.028         226.341 
       0.722871         796.026         215.815 
        0.73838         770.526         206.075 
       0.754018         762.905         196.866 
       0.769845         744.293         188.122 
        0.78569         725.268         179.904 
       0.801365         706.622         172.262 
       0.817031         695.573         165.072 
       0.832809         678.651         158.251 
       0.848511         662.053          151.85 
       0.864097         655.799          145.85 
       0.879701         655.864         140.172 
       0.895507         632.456         134.731 
       0.911279         626.645         129.593 
        0.92691         611.679         124.768 
       0.942635         600.228         120.164 
       0.958396         592.165         115.785 
       0.974128         577.315         111.634 
       0.989692         565.288         107.729 
        1.00528         555.786         104.006 
        1.02113         543.481         100.403 
        1.03692         533.653         96.9852 
        1.05264          527.99         93.7434 
        1.06832         516.954          90.656 
        1.08405         509.283         87.7006 
        1.09979         498.055         84.8763 
        1.11537         486.959         82.2053 
        1.13105         479.831         79.6342 
        1.14679         470.713          77.164 
        1.16256         465.936         74.7946 
        1.17828         457.343         72.5332 
        1.19395         448.464         70.3737 
         1.2097         438.343         68.2918 
        1.22537         433.284         66.3048 
          1.241         423.499         64.4034 
        1.25666         416.812         62.5724 
        1.27241          414.01         60.8045 
        1.28819         403.496         59.1025 
        1.30392         399.031          57.471 
        1.31957         390.318         55.9089 
        1.33529          386.72         54.3995 
        1.35108         385.259         52.9402 
        1.36674         374.945         51.5453 
         1.3824         365.435         50.2023 
        1.39811         363.606          48.903 
        1.41389         358.158          47.645 
        1.42964         350.507         46.4337 
        1.44531         345.642         45.2708 
        1.46101         335.572         44.1454 
        1.47667         335.266          43.062 
        1.49229         330.581          42.018 
        1.50793         322.319         41.0077 
        1.52367         317.209         40.0243 
        1.53953         312.581         39.0668 
        1.55526         306.219         38.1485 
        1.57092         301.957         37.2636 
        1.58662         298.138         36.4049 
        1.60235         292.961         35.5718 
        1.61809         288.143         34.7645 
        1.63369         284.739         33.9895 
        1.64941         280.011         33.2328 
        1.66519         276.367         32.4966 
        1.68085         269.918          31.788 
        1.69652         266.455         31.1005 
        1.71228         262.291         30.4295 
        1.72806         259.333         29.7779 
        1.74368         256.414          29.152 
        1.75933         252.712          28.543 
        1.77505         248.045         27.9486 
        1.79081         244.181         27.3702 
         1.8065         242.099         26.8107 
        1.82218         236.196         26.2675 
        1.83797         233.647         25.7356 
        1.85367         229.277         25.2215 
        1.86928         225.619         24.7247 
        1.88497         222.767         24.2385 
        1.90073         220.806         23.7637 
        1.91647         216.914         23.3022 
        1.93218         213.547         22.8539 
        1.94787         209.566         22.4181 
        1.96363         208.263         21.9921 
        1.97935         202.963          21.578 
        1.99499          201.65          21.177 
        2.01064         196.528         20.7857 
         2.0264         194.892         20.4019 
        2.04216          192.12         20.0279 
        2.05781         188.962         19.6658 
        2.07353         187.995         19.3114 
        2.08928          184.82          18.965 
        2.10499          182.51          18.628 
        2.12065         179.706         18.3003 
        2.13633         176.936         17.9802 
        2.15211          174.24         17.6658 
        2.16785         172.377         17.3597 
        2.18349         169.493         17.0629 
        2.19916         168.572         16.7725 
        2.21489         165.346         16.4879 
        2.23063           163.6         16.2097 
         2.2463         161.161         15.9392 
        2.26194         158.857         15.6756 
        2.27765         157.144         15.4166 
        2.29341         154.787         15.1629 
        2.30914         152.683         14.9154 
        2.32486         151.176         14.6735 
        2.34061          148.43         14.4367 
        2.35635         146.355         14.2054 
        2.37203         145.451         13.9799 
        2.38768         142.893         13.7598 
        2.40339         140.673         13.5437 
        2.41914         139.511         13.3317 
        2.43483         137.951          13.125 
         2.4505         135.864         12.9231 
        2.46622         133.903         12.7248 
        2.48195         132.447         12.5306 
        2.49759         130.547         12.3416 
        2.51328         128.514         12.1559 
        2.52906         127.322         11.9729 
        2.54479         125.659         11.7944 
        2.56049         124.291         11.6199 
        2.57618         122.545         11.4491 
        2.59189         121.569         11.2815 
        2.60758         120.568         11.1175 
        2.62325         118.692          10.957 
        2.63898         116.607         10.7991 
        2.65468         115.771         10.6446 
        2.67044          114.63         10.4926 
        2.68618         112.526         10.3438 
        2.70184         111.721         10.1986 
        2.71755          109.91         10.0558 
        2.73329         108.891         9.91553 
        2.74897          107.04         9.77839 
        2.76462         106.049         9.64417 
        2.78034         104.815         9.51192 
        2.79607         103.765         9.38202 
        2.81179         102.411          9.2547 
        2.82749         101.099          9.1299 
        2.84321         99.9926         9.00728 
        2.85893         99.0455         8.88695 
        2.87462         97.5525         8.76903 
        2.89033         96.6286         8.65315 
        2.90605           95.34         8.53927 
        2.92176         93.9929         8.42751 
        2.93747         93.3826         8.31782 
        2.95318          92.482         8.21006 
        2.96891         91.2543         8.10416 
        2.98456         90.1476         8.00062 
        3.00023         89.2515         7.89873 
        3.01596         88.0684         7.79832 
        3.03164         87.3474         7.69994 
        3.04738         86.1937         7.60297 
         3.0631         85.3477         7.50772 
        3.07883          84.514          7.4141 
        3.09456         83.3637         7.32209 
        3.11026         82.4791          7.2318 
        3.12596         81.3029         7.14304 
        3.14163         80.3725         7.05598 
        3.15734         79.7403         6.97018 
        3.17308         78.7143          6.8856 
        3.18879         78.0994         6.80266 
        3.20447         77.0931         6.72122 
         3.2202         76.2054         6.64085 
         3.2359         75.6908         6.56196 
        3.25157         74.8625         6.48453 
        3.26729         73.9393         6.40812 
        3.28304         73.4309          6.3328 
        3.29877         72.3028          6.2588 
        3.31446         71.7063         6.18614 
        3.33014         71.1782          6.1147 
        3.34585          70.249         6.04429 
        3.36158         69.3764         5.97488 
        3.37727         68.7715         5.90679 
        3.39294         68.0512         5.83982 
        3.40867         67.3117         5.77365 
        3.42439         66.3713         5.70855 
        3.44008         65.6634         5.64458 
        3.45578         65.3609         5.58155 
        3.47153         64.5116         5.51935 
        3.48724         63.9324          5.4582 
        3.50292         63.3786         5.39813 
        3.51859          62.611         5.33899 
        3.53431         62.0475         5.28056 
        3.55007         61.4415         5.22286 
        3.56577         60.6947         5.16626 
        3.58146         60.1418         5.11052 
        3.59719         59.5902         5.05548 
        3.61292         59.0476         5.00127 
        3.62859         58.2501         4.94806 
        3.64429         57.8897         4.89553 
        3.66003         57.2888          4.8436 
        3.67578         56.6401         4.79245 
        3.69146         56.1407         4.74223 
        3.70712         55.4598         4.69282 
        3.72284         55.1025         4.64394 
        3.73853          54.487         4.59584 
        3.75422         54.0162          4.5484 
        3.76993         53.4492          4.5016 
        3.78564         53.0504         4.45547 
        3.80137         52.4444         4.40992 
        3.81707          51.932         4.36511 
        3.83279         51.3791         4.32088 
        3.84853         51.0192          4.2772 
        3.86424          50.448          4.2342 
        3.87992         49.9346         4.19187 
        3.89561         49.5833         4.15011 
        3.91134         49.1879         4.10884 
        3.92704         48.6235         4.06818 
        3.94273         48.0205         4.02811 
        3.95845         47.5094         3.98851 
        3.97418         47.2187         3.94943 
        3.98988         46.8518         3.91093 
        4.00554          46.257         3.87305 
        4.02125         45.8843         3.83557 
        4.03698         45.5222         3.79853 
        4.05268         45.1562         3.76206 
        4.06839          44.675         3.72604 
         4.0841         44.1933         3.69051 
        4.09983         43.7424          3.6554 
        4.11555         43.4466         3.62075 
        4.13124         42.9473         3.58666 
        4.14693         42.6062         3.55297 
        4.16266         42.3067         3.51964 
        4.17839         41.8649         3.48676 
        4.19408         41.4788         3.45437 
        4.20977         41.0847         3.42238 
        4.22551         40.7029         3.39073 
        4.24123         40.3795          3.3595 
        4.25691         39.9232         3.32876 
        4.27259         39.7316         3.29839 
        4.28831         39.2931         3.26834 
        4.30404         39.0632         3.23864 
        4.31974         38.6078         3.20938 
        4.33543         38.2638         3.18049 
        4.35116          37.936         3.15189 
        4.36688         37.5423         3.12365 
        4.38255         37.2483         3.09587 
        4.39825         36.8028         3.06836 
        4.41398         36.5109         3.04114 
         4.4297         36.3159         3.01427 
        4.44541         35.9486         2.98774 
        4.46111         35.6419         2.96154 
        4.47683         35.3256         2.93565 
        4.49251         35.0552         2.91011 
        4.50819         34.8302         2.88489 
         4.5239         34.4859         2.85993 
        4.53962          34.097         2.83524 
        4.55535         33.8475         2.81082 
        4.57106         33.6658         2.78673 
        4.58678         33.3508         2.76292 
         4.6025           33.02         2.73938 
        4.61821         32.7116         2.71612 
        4.63391         32.4267         2.69316 
         4.6496         32.1889         2.67048 
        4.66532         31.9303         2.64802 
        4.68103         31.6332         2.62583 
        4.69673         31.3974         2.60392 
        4.71241         31.1695         2.58228 
        4.72811         30.8758         2.56085 
        4.74384         30.5989         2.53964 
        4.75955         30.3614         2.51871 
        4.77525         30.1005         2.49802 
        4.79096         29.8668         2.47753 
        4.80669         29.6277         2.45727 
         4.8224          29.411         2.43726 
        4.83809         29.1647         2.41749 
        4.85379         28.9079         2.39794 
         4.8695         28.7288         2.37858 
        4.88521         28.3692         2.35944 
        4.90093         28.1925         2.34052 
        4.91663         27.9799         2.32182 
        4.93234         27.6886          2.3033 
        4.94807         27.5515         2.28497 
        4.96377         27.3261         2.26688 
        4.97943         27.0967         2.24902 
        4.99514         26.8008         2.23131 
        5.01086         26.6035         2.21378 
        5.02654         26.4025         2.19648 
        5.04227         26.1743         2.17932 
          5.058         26.0044         2.16233 
        5.07371         25.8076         2.14555 
        5.08942         25.5727         2.12896 
        5.10513         25.4172         2.11253 
        5.12084         25.2451         2.09628 
        5.13656         25.0279         2.08019 
        5.15225         24.8333         2.06431 
        5.16796         24.6023         2.04856 
        5.18369         24.4025         2.03297 
         5.1994         24.2535         2.01756 
        5.21509         24.0365         2.00233 
        5.23079         23.8145         1.98724 
        5.24649         23.6327         1.97232 
        5.26217         23.4543         1.95756 
        5.27788         23.2642         1.94293 
        5.29359          23.084         1.92845 
        5.30933         22.9221          1.9141 
        5.32504         22.7881         1.89992 
        5.34073         22.5805         1.88589 
        5.35646         22.4394         1.87198 
        5.37218         22.2538         1.85821 
        5.38789         22.0579          1.8446 
        5.40357         21.8995         1.83114 
        5.41929         21.7778         1.81779 
        5.43502         21.5659         1.80457 
         5.4507         21.4235         1.79151 
        5.46639          21.247         1.77858 
        5.48212         21.0953         1.76575 
        5.49786         20.9276         1.75303 
        5.51353          20.775          1.7405 
        5.52921         20.6303         1.72808 
        5.54495         20.5024         1.71574 
        5.56066         20.3485         1.70354 
        5.57637         20.1601         1.69146 
        5.59207         20.0054          1.6795 
        5.60778         19.8624         1.66766 
        5.62346         19.7596         1.65595 
        5.63916         19.5583         1.64434 
        5.65487         19.4126         1.63284 
         5.6706         19.3316         1.62143 
        5.68633         19.1517         1.61013 
        5.70203         18.9808         1.59896 
        5.71773         18.8495          1.5879 
        5.73344         18.6887         1.57693 
        5.74916         18.6263         1.56606 
        5.76486         18.4336         1.55531 
        5.78054         18.3225         1.54468 
        5.79626         18.1846         1.53411 
          5.812         18.0596         1.52364 
         5.8277          17.936         1.51329 
        5.84339         17.7832         1.50304 
        5.85911         17.6633         1.49286 
        5.87484         17.5807         1.48279 
        5.89053         17.4339         1.47282 
        5.90623         17.2832         1.46294 
        5.92195         17.1435         1.45314 
        5.93767         17.0033         1.44343 
        5.95336         16.8899         1.43382 
        5.96905         16.8063         1.42431 
        5.98476         16.6543         1.41487 
        6.00048         16.5458         1.40551 
        6.01617          16.416         1.39625 
        6.03185         16.3375         1.38709 
        6.04756         16.2239         1.37798 
        6.06331         16.1196         1.36894 
        6.07903         15.9913            1.36 
        6.09473         15.8448         1.35115 
        6.11044         15.7579         1.34237 
        6.12616         15.6604         1.33366 
        6.14186         15.5362         1.32505 
        6.15755         15.4586         1.31651 
        6.17326         15.3337         1.30804 
        6.18898         15.2066         1.29964 
        6.20467         15.1388         1.29133 
        6.22036          14.985         1.28309 
         6.2361         14.9275          1.2749 
         6.2518         14.7956          1.2668 
        6.26748         14.6889         1.25879 
        6.28319         14.5997         1.25082 
        6.29893         14.5125         1.24292 
        6.31463         14.4106         1.23509 
        6.33033         14.2967         1.22734 
        6.34604         14.2216         1.21965 
        6.36177         14.0954         1.21202 
        6.37747         14.0066         1.20446 
