# k  (h/Mpc)    Pcb(k)  (Mpc/h)^3    Pcb_linear(k) (Mpc/h)^3   ShotnoiseSubtracted = true
      0.0200456         362.651         367.473 
      0.0350414         285.391         283.361 
      0.0492313         216.286         215.675 
      0.0637834         180.908         182.052 
      0.0800726         143.692         144.727 
       0.096163         108.812         107.693 
       0.111083         89.7009         88.5638 
       0.126058         78.2274         78.6429 
       0.142273         65.4053          65.761 
       0.158546         52.9748         52.7608 
        0.17375         46.1118         45.6895 
       0.188953          41.447         41.3807 
       0.204907         35.6228         36.1067 
       0.220756         30.8833         30.7779 
        0.23588         27.4031         27.3343 
         0.2514         24.9925         24.9442 
       0.267535         22.5057          22.346 
       0.283568          19.877          19.745 
       0.299022         17.9906          17.836 
       0.314451         16.7409         16.3944 
       0.330372         15.1531         14.9666 
       0.346141         13.7716         13.5809 
       0.361624         12.5858          12.439 
       0.377134          11.599         11.5084 
       0.392932          10.986         10.6378 
       0.408854         9.94382         9.80197 
       0.424564         9.37342         9.07165 
       0.440253         8.63743         8.44517 
       0.455999         7.96895         7.87549 
       0.471626          7.4466         7.34583 
        0.48727         7.09223          6.8636 
       0.502856         6.65598         6.43501 
       0.518488         6.15448         6.04384 
       0.534347         5.75687         5.67597 
       0.550082          5.5033         5.33956 
       0.565732         5.24864         5.03475 
       0.581496         4.92163         4.75287 
       0.597222         4.64497         4.49219 
       0.612804          4.3876         4.25256 
       0.628434         4.18233         4.03023 
       0.644267         3.98768         3.82202 
       0.660051         3.78707         3.62923 
       0.675724          3.5739         3.45091 
       0.691403         3.41781         3.28449 
       0.707174         3.25585         3.12817 
       0.722871         3.17115          2.9827 
        0.73838         2.96349         2.84808 
       0.754018          2.8346         2.72081 
       0.769845         2.68546         2.59996 
        0.78569         2.60782         2.48639 
       0.801365         2.50051         2.38076 
       0.817031         2.40884          2.2814 
       0.832809         2.28718         2.18713 
       0.848511         2.21047         2.09866 
       0.864097         2.13422         2.01574 
       0.879701         2.06684         1.93726 
       0.895507         1.96354         1.86206 
       0.911279         1.90523         1.79105 
        0.92691         1.85093         1.72437 
       0.942635         1.75749         1.66074 
       0.958396         1.70152         1.60022 
       0.974128         1.64755         1.54285 
       0.989692          1.5878         1.48888 
        1.00528         1.53002         1.43743 
        1.02113         1.49434         1.38763 
        1.03692          1.4492          1.3404 
        1.05264         1.38586         1.29559 
        1.06832         1.34824         1.25292 
        1.08405         1.29827         1.21208 
        1.09979         1.26656         1.17304 
        1.11537         1.22152         1.13613 
        1.13105         1.17595         1.10059 
        1.14679         1.14992         1.06645 
        1.16256         1.11615         1.03371 
        1.17828          1.0897         1.00245 
        1.19395         1.05494        0.972608 
         1.2097         1.02222        0.943835 
        1.22537        0.988828        0.916373 
          1.241        0.965282        0.890095 
        1.25666        0.945952        0.864789 
        1.27241        0.915664        0.840356 
        1.28819        0.886813        0.816833 
        1.30392        0.866468        0.794285 
        1.31957        0.843846        0.772695 
        1.33529        0.818557        0.751834 
        1.35108        0.797811        0.731666 
        1.36674        0.775742        0.712388 
         1.3824        0.762903        0.693827 
        1.39811        0.738966         0.67587 
        1.41389        0.723457        0.658484 
        1.42964         0.70461        0.641743 
        1.44531        0.687265         0.62567 
        1.46101        0.666891        0.610117 
        1.47667        0.654669        0.595143 
        1.49229         0.63492        0.580715 
        1.50793        0.623549        0.566752 
        1.52367         0.60537        0.553161 
        1.53953        0.592129        0.539927 
        1.55526        0.580517        0.527235 
        1.57092        0.572528        0.515006 
        1.58662        0.559006        0.503138 
        1.60235          0.5445        0.491624 
        1.61809        0.530748        0.480466 
        1.63369        0.517767        0.469756 
        1.64941        0.509177        0.459298 
        1.66519        0.499624        0.449123 
        1.68085        0.485825         0.43933 
        1.69652        0.476628        0.429827 
        1.71228        0.465892        0.420554 
        1.72806        0.457383        0.411549 
        1.74368        0.447871        0.402899 
        1.75933         0.43969        0.394482 
        1.77505        0.431838        0.386267 
        1.79081        0.419204        0.378273 
         1.8065        0.414544        0.370541 
        1.82218         0.40322        0.363033 
        1.83797        0.393742        0.355682 
        1.85367        0.389057        0.348577 
        1.86928        0.380397         0.34171 
        1.88497         0.37183        0.334992 
        1.90073        0.366076         0.32843 
        1.91647        0.359961         0.32205 
        1.93218        0.353984        0.315855 
        1.94787        0.345572        0.309833 
        1.96363        0.339757        0.303944 
        1.97935        0.333259        0.298222 
        1.99499        0.326915         0.29268 
        2.01064        0.321715        0.287271 
         2.0264        0.314983        0.281966 
        2.04216        0.308792        0.276798 
        2.05781          0.3043        0.271794 
        2.07353        0.299296        0.266895 
        2.08928        0.294519        0.262107 
        2.10499        0.287908         0.25745 
        2.12065        0.283553        0.252921 
        2.13633        0.279346        0.248498 
        2.15211        0.274138        0.244152 
        2.16785        0.269224        0.239922 
        2.18349        0.265539         0.23582 
        2.19916        0.259713        0.231806 
        2.21489        0.255327        0.227872 
        2.23063        0.251087        0.224028 
         2.2463        0.247813         0.22029 
        2.26194        0.244215        0.216646 
        2.27765         0.23926        0.213067 
        2.29341         0.23555         0.20956 
        2.30914         0.23109        0.206139 
        2.32486        0.227556        0.202797 
        2.34061         0.22408        0.199524 
        2.35635        0.220422        0.196327 
        2.37203        0.219211        0.193211 
        2.38768        0.213962        0.190169 
        2.40339        0.211119        0.187182 
        2.41914        0.207582        0.184252 
        2.43483        0.204589        0.181396 
         2.4505        0.201022        0.178606 
        2.46622        0.198459        0.175864 
        2.48195        0.195184        0.173181 
        2.49759        0.193602        0.170568 
        2.51328        0.188538        0.168002 
        2.52906        0.186405        0.165473 
        2.54479          0.1839        0.163006 
        2.56049        0.180458        0.160594 
        2.57618        0.179379        0.158234 
        2.59189        0.175572        0.155917 
        2.60758        0.174057        0.153651 
        2.62325        0.170873        0.151432 
        2.63898        0.169271         0.14925 
        2.65468        0.165663        0.147116 
        2.67044        0.163808        0.145014 
        2.68618        0.161402        0.142958 
        2.70184        0.159618        0.140951 
        2.71755        0.156687        0.138977 
        2.73329        0.155389        0.137039 
        2.74897        0.152898        0.135143 
        2.76462        0.150591        0.133288 
        2.78034        0.148622        0.131461 
        2.79607        0.147023        0.129665 
        2.81179        0.144183        0.127906 
        2.82749        0.142992        0.126181 
        2.84321         0.14089        0.124486 
        2.85893        0.138565        0.122823 
        2.87462        0.137495        0.121193 
        2.89033        0.135049        0.119592 
        2.90605        0.133864        0.118018 
        2.92176        0.132254        0.116473 
        2.93747        0.130152        0.114957 
        2.95318         0.12899        0.113468 
        2.96891        0.127087        0.112005 
        2.98456        0.125813        0.110573 
        3.00023        0.124361        0.109165 
        3.01596        0.122066        0.107778 
        3.03164        0.120572        0.106418 
        3.04738        0.119565        0.105078 
         3.0631        0.117646        0.103761 
        3.07883        0.116423        0.102467 
        3.09456        0.115093        0.101196 
        3.11026        0.113345       0.0999479 
        3.12596        0.112309       0.0987212 
        3.14163        0.110782        0.097518 
        3.15734        0.110003       0.0963322 
        3.17308        0.108198       0.0951633 
        3.18879        0.107003        0.094017 
        3.20447         0.10562       0.0928913 
         3.2202        0.104617       0.0917807 
         3.2359        0.103444       0.0906903 
        3.25157        0.102309       0.0896202 
        3.26729        0.100985       0.0885642 
        3.28304         0.10017       0.0875233 
        3.29877       0.0985576       0.0865005 
        3.31446       0.0975079       0.0854963 
        3.33014       0.0967322        0.084509 
        3.34585       0.0952846       0.0835358 
        3.36158       0.0943656       0.0825766 
        3.37727       0.0934753       0.0816354 
        3.39294       0.0926353       0.0807099 
        3.40867       0.0914815       0.0797955 
        3.42439       0.0904851       0.0788957 
        3.44008       0.0897998       0.0780116 
        3.45578       0.0887751       0.0771405 
        3.47153       0.0879708       0.0762808 
        3.48724       0.0867612       0.0754357 
        3.50292       0.0861849       0.0746055 
        3.51859       0.0851385       0.0737882 
        3.53431       0.0843193       0.0729806 
        3.55007       0.0834221       0.0721832 
        3.56577       0.0826881       0.0714009 
        3.58146        0.081903       0.0706306 
        3.59719       0.0809726       0.0698698 
        3.61292       0.0800889       0.0691206 
        3.62859        0.079451       0.0683853 
        3.64429       0.0786409       0.0676592 
        3.66003       0.0781819       0.0669415 
        3.67578       0.0774366       0.0662346 
        3.69146       0.0765858       0.0655405 
        3.70712       0.0759447       0.0648577 
        3.72284       0.0749862       0.0641821 
        3.73853       0.0747037       0.0635173 
        3.75422       0.0736651       0.0628617 
        3.76993       0.0731332       0.0622149 
        3.78564       0.0726005       0.0615774 
        3.80137        0.071979       0.0609479 
        3.81707       0.0710433       0.0603285 
        3.83279       0.0703574       0.0597172 
        3.84853       0.0698348       0.0591135 
        3.86424       0.0694408       0.0585193 
        3.87992       0.0688148       0.0579342 
        3.89561       0.0679637       0.0573571 
        3.91134       0.0674864       0.0567867 
        3.92704       0.0667771       0.0562247 
        3.94273       0.0662515       0.0556709 
        3.95845        0.065667       0.0551236 
        3.97418       0.0650272       0.0545836 
        3.98988       0.0643489       0.0540515 
        4.00554       0.0638971        0.053528 
        4.02125       0.0633298         0.05301 
        4.03698       0.0624492        0.052498 
        4.05268       0.0621953        0.051994 
        4.06839       0.0612859       0.0514962 
         4.0841       0.0605002       0.0510052 
        4.09983       0.0597611       0.0505199 
        4.11555       0.0591377       0.0500411 
        4.13124       0.0583627       0.0495698 
        4.14693       0.0579248       0.0491042 
        4.16266       0.0570775       0.0486436 
        4.17839       0.0565914       0.0481891 
        4.19408       0.0560026       0.0477416 
        4.20977       0.0554039       0.0472995 
        4.22551       0.0548472       0.0468619 
        4.24123       0.0543102       0.0464304 
        4.25691       0.0538381       0.0460055 
        4.27259       0.0533551       0.0455858 
        4.28831       0.0530041       0.0451705 
        4.30404       0.0524629       0.0447601 
        4.31974       0.0519955       0.0443556 
        4.33543       0.0515526       0.0439563 
        4.35116       0.0512409       0.0435611 
        4.36688        0.050747       0.0431708 
        4.38255       0.0503893       0.0427868 
        4.39825        0.050152       0.0424067 
        4.41398       0.0497417       0.0420304 
         4.4297       0.0495977       0.0416591 
        4.44541       0.0492783       0.0412924 
        4.46111        0.048843       0.0409304 
        4.47683       0.0487288       0.0405725 
        4.49251       0.0485444       0.0402196 
        4.50819       0.0482225       0.0398709 
         4.5239       0.0480579        0.039526 
        4.53962       0.0481046       0.0391847 
        4.55535       0.0478113       0.0388473 
        4.57106       0.0476068       0.0385143 
        4.58678       0.0474988       0.0381852 
         4.6025       0.0472702       0.0378599 
        4.61821       0.0472707       0.0375385 
        4.63391       0.0471486       0.0372211 
         4.6496       0.0469816       0.0369076 
        4.66532       0.0470898       0.0365973 
        4.68103        0.047183       0.0362906 
        4.69673       0.0470496       0.0359878 
        4.71241       0.0470878       0.0356887 
        4.72811       0.0470299       0.0353926 
        4.74384       0.0469559       0.0350994 
        4.75955       0.0471278       0.0348101 
        4.77525       0.0472308       0.0345241 
        4.79096       0.0473502        0.034241 
        4.80669       0.0474391        0.033961 
         4.8224       0.0475767       0.0336845 
        4.83809       0.0475961       0.0334113 
        4.85379       0.0479241        0.033141 
         4.8695       0.0481032       0.0328734 
        4.88521       0.0482778        0.032609 
        4.90093       0.0485402       0.0323474 
        4.91663       0.0487887       0.0320889 
        4.93234       0.0487691        0.031833 
        4.94807       0.0493583       0.0315797 
        4.96377       0.0494244       0.0313297 
        4.97943       0.0500271       0.0310829 
        4.99514       0.0501754       0.0308381 
        5.01086       0.0505894       0.0305958 
        5.02654       0.0509666       0.0303567 
        5.04227       0.0512568       0.0301195 
          5.058       0.0517523       0.0298847 
        5.07371        0.052048       0.0296529 
        5.08942       0.0525605       0.0294235 
        5.10513       0.0529054       0.0291965 
        5.12084       0.0535368       0.0289718 
        5.13656        0.054343       0.0287496 
        5.15225       0.0545056         0.02853 
        5.16796        0.055326       0.0283124 
        5.18369       0.0556947       0.0280968 
         5.1994       0.0563983        0.027884 
        5.21509       0.0571927       0.0276735 
        5.23079       0.0575408       0.0274649 
        5.24649        0.058371       0.0272587 
        5.26217       0.0589351       0.0270547 
        5.27788       0.0599218       0.0268525 
        5.29359       0.0605946       0.0266524 
        5.30933       0.0614664        0.026454 
        5.32504       0.0621865        0.026258 
        5.34073       0.0628791       0.0260642 
        5.35646       0.0636566        0.025872 
        5.37218       0.0648771       0.0256816 
        5.38789       0.0655547       0.0254935 
        5.40357       0.0666354       0.0253075 
        5.41929        0.067884        0.025123 
        5.43502       0.0688001       0.0249403 
         5.4507       0.0696919       0.0247598 
        5.46639       0.0705359       0.0245811 
        5.48212       0.0717655       0.0244038 
        5.49786       0.0733502        0.024228 
        5.51353       0.0744291       0.0240548 
        5.52921       0.0752494       0.0238831 
        5.54495       0.0765013       0.0237126 
        5.56066       0.0779901       0.0235439 
        5.57637         0.07944        0.023377 
        5.59207       0.0804428       0.0232118 
        5.60778       0.0816866       0.0230481 
        5.62346         0.08295       0.0228863 
        5.63916         0.08503       0.0227258 
        5.65487       0.0863103       0.0225668 
         5.6706       0.0874205       0.0224092 
        5.68633       0.0888072        0.022253 
        5.70203       0.0906682       0.0220986 
        5.71773       0.0929024       0.0219457 
        5.73344        0.094663       0.0217942 
        5.74916       0.0963727        0.021644 
        5.76486       0.0982334       0.0214954 
        5.78054        0.100589       0.0213484 
        5.79626        0.101755       0.0212024 
          5.812        0.104289       0.0210576 
         5.8277        0.105511       0.0209146 
        5.84339        0.107859       0.0207729 
        5.85911        0.109662       0.0206323 
        5.87484        0.111613        0.020493 
        5.89053        0.114704       0.0203553 
        5.90623        0.116537       0.0202188 
        5.92195        0.118764       0.0200832 
        5.93767         0.12125       0.0199491 
        5.95336        0.123239       0.0198163 
        5.96905        0.126654       0.0196849 
        5.98476        0.128127       0.0195544 
        6.00048        0.130857       0.0194251 
        6.01617        0.134202       0.0192971 
        6.03185        0.136305       0.0191704 
        6.04756        0.138877       0.0190446 
        6.06331        0.142491       0.0189196 
        6.07903        0.144279       0.0187961 
        6.09473        0.147051       0.0186737 
        6.11044        0.151035       0.0185523 
        6.12616        0.154244       0.0184321 
        6.14186        0.156449        0.018313 
        6.15755        0.160356        0.018195 
        6.17326        0.163282       0.0180779 
        6.18898         0.16757       0.0179618 
        6.20467        0.169438        0.017847 
        6.22036        0.173999       0.0177331 
         6.2361        0.176362         0.01762 
         6.2518        0.181808        0.017508 
        6.26748        0.184051       0.0173972 
        6.28319        0.188372       0.0172871 
        6.29893        0.192865       0.0171779 
        6.31463        0.196238       0.0170698 
        6.33033        0.199186       0.0169626 
        6.34604        0.204067       0.0168563 
        6.36177        0.208749       0.0167508 
        6.37747          0.2122       0.0166464 
