# k  (h/Mpc)    Pcb(k)  (Mpc/h)^3    Pcb_linear(k) (Mpc/h)^3   ShotnoiseSubtracted = true
      0.0200456         91.9606         93.2384 
      0.0350414         71.8801         71.8966 
      0.0492313         54.9001         54.7229 
      0.0637834         46.2889         46.1918 
      0.0800726         36.7903         36.7214 
       0.096163         27.3976         27.3248 
       0.111083         22.4638         22.4711 
       0.126058         19.9402         19.9539 
       0.142273         16.7179         16.6854 
       0.158546         13.4548         13.3869 
        0.17375         11.5762         11.5927 
       0.188953         10.4879         10.4995 
       0.204907         9.24047          9.1613 
       0.220756         7.84732         7.80923 
        0.23588         6.96018         6.93548 
         0.2514         6.32462         6.32904 
       0.267535         5.67175          5.6698 
       0.283568         5.02573         5.00987 
       0.299022         4.54384         4.52549 
       0.314451         4.14205         4.15972 
       0.330372         3.79635         3.79745 
       0.346141         3.44773         3.44587 
       0.361624         3.16516         3.15612 
       0.377134         2.93469         2.92002 
       0.392932         2.67623         2.69911 
       0.408854         2.49791         2.48704 
       0.424564         2.30043         2.30173 
       0.440253         2.14401         2.14278 
       0.455999         2.00794         1.99824 
       0.471626         1.87698         1.86385 
        0.48727          1.7441         1.74149 
       0.502856         1.63217         1.63274 
       0.518488         1.54644         1.53349 
       0.534347         1.45837         1.44015 
       0.550082         1.35701          1.3548 
       0.565732         1.26881         1.27746 
       0.581496         1.21191         1.20594 
       0.597222         1.14736          1.1398 
       0.612804         1.08238         1.07899 
       0.628434          1.0324         1.02258 
       0.644267         0.97468        0.969754 
       0.660051        0.923568         0.92084 
       0.675724        0.881045        0.875594 
       0.691403        0.841075        0.833368 
       0.707174        0.798718        0.793704 
       0.722871         0.75769        0.756795 
        0.73838        0.729191         0.72264 
       0.754018        0.699482        0.690346 
       0.769845        0.667138        0.659683 
        0.78569        0.636931        0.630867 
       0.801365        0.608735        0.604068 
       0.817031         0.58428        0.578857 
       0.832809        0.560413        0.554938 
       0.848511        0.536509         0.53249 
       0.864097        0.513281         0.51145 
       0.879701        0.492995        0.491537 
       0.895507        0.477856        0.472458 
       0.911279        0.459238        0.454441 
        0.92691         0.44102        0.437522 
       0.942635        0.425336        0.421377 
       0.958396        0.408903        0.406021 
       0.974128        0.394214        0.391464 
       0.989692        0.381363         0.37777 
        1.00528        0.369173        0.364718 
        1.02113         0.35366        0.352082 
        1.03692        0.343391        0.340096 
        1.05264        0.331997        0.328728 
        1.06832        0.321348        0.317902 
        1.08405        0.309374        0.307538 
        1.09979          0.2995        0.297634 
        1.11537        0.292245        0.288268 
        1.13105        0.282688        0.279252 
        1.14679        0.275036         0.27059 
        1.16256        0.264147        0.262281 
        1.17828         0.25645        0.254351 
        1.19395        0.248274        0.246778 
         1.2097        0.240926        0.239478 
        1.22537        0.235562         0.23251 
          1.241        0.228144        0.225842 
        1.25666        0.222488        0.219422 
        1.27241        0.215445        0.213222 
        1.28819         0.20947        0.207254 
        1.30392        0.203663        0.201533 
        1.31957        0.198404        0.196055 
        1.33529        0.192486        0.190762 
        1.35108        0.187554        0.185645 
        1.36674        0.181333        0.180753 
         1.3824        0.178703        0.176043 
        1.39811        0.173097        0.171487 
        1.41389        0.168801        0.167076 
        1.42964        0.165338        0.162828 
        1.44531        0.159946         0.15875 
        1.46101        0.156585        0.154804 
        1.47667        0.151875        0.151005 
        1.49229        0.148705        0.147344 
        1.50793        0.144777        0.143801 
        1.52367        0.141619        0.140353 
        1.53953        0.138731        0.136995 
        1.55526        0.135393        0.133775 
        1.57092        0.131303        0.130672 
        1.58662        0.128839         0.12766 
        1.60235        0.126404        0.124739 
        1.61809        0.122568        0.121908 
        1.63369        0.120501        0.119191 
        1.64941        0.117897        0.116537 
        1.66519        0.114975        0.113955 
        1.68085        0.112198         0.11147 
        1.69652        0.109681        0.109059 
        1.71228        0.107985        0.106706 
        1.72806         0.10489        0.104422 
        1.74368        0.103202        0.102227 
        1.75933        0.101015        0.100091 
        1.77505       0.0988107       0.0980068 
        1.79081       0.0970877       0.0959786 
         1.8065       0.0944339       0.0940167 
        1.82218       0.0929401       0.0921117 
        1.83797       0.0908977       0.0902467 
        1.85367       0.0890466        0.088444 
        1.86928       0.0875501       0.0867016 
        1.88497       0.0858994       0.0849968 
        1.90073       0.0840545       0.0833319 
        1.91647       0.0822562       0.0817133 
        1.93218       0.0805846       0.0801414 
        1.94787       0.0790012       0.0786133 
        1.96363       0.0777498       0.0771193 
        1.97935         0.07598       0.0756673 
        1.99499       0.0747305       0.0742612 
        2.01064       0.0735094       0.0728889 
         2.0264       0.0721505       0.0715428 
        2.04216       0.0707245       0.0702316 
        2.05781        0.069496       0.0689617 
        2.07353       0.0678629       0.0677189 
        2.08928       0.0668151       0.0665041 
        2.10499       0.0653993       0.0653225 
        2.12065       0.0646057       0.0641733 
        2.13633       0.0631443       0.0630509 
        2.15211       0.0624583       0.0619482 
        2.16785       0.0613095       0.0608751 
        2.18349       0.0598334       0.0598343 
        2.19916       0.0593367       0.0588158 
        2.21489        0.058405       0.0578177 
        2.23063       0.0571866       0.0568422 
         2.2463       0.0560332       0.0558937 
        2.26194       0.0551111       0.0549693 
        2.27765       0.0541907       0.0540612 
        2.29341        0.053568       0.0531713 
        2.30914       0.0524382       0.0523034 
        2.32486       0.0515627       0.0514555 
        2.34061        0.050831        0.050625 
        2.35635       0.0499276       0.0498137 
        2.37203       0.0491717        0.049023 
        2.38768       0.0483404       0.0482512 
        2.40339       0.0475352       0.0474933 
        2.41914       0.0470352         0.04675 
        2.43483        0.045952       0.0460254 
         2.4505       0.0452985       0.0453173 
        2.46622       0.0446393       0.0446218 
        2.48195       0.0438359       0.0439409 
        2.49759       0.0433491       0.0432779 
        2.51328       0.0428481       0.0426269 
        2.52906       0.0420628       0.0419853 
        2.54479       0.0414149       0.0413593 
        2.56049       0.0408221       0.0407473 
        2.57618       0.0401843       0.0401484 
        2.59189       0.0395757       0.0395606 
        2.60758       0.0390994       0.0389855 
        2.62325       0.0384451       0.0384226 
        2.63898       0.0378716       0.0378689 
        2.65468       0.0372883       0.0373274 
        2.67044       0.0369043       0.0367941 
        2.68618       0.0363288       0.0362726 
        2.70184       0.0357828       0.0357633 
        2.71755       0.0351437       0.0352625 
        2.73329       0.0347082       0.0347706 
        2.74897       0.0343807       0.0342897 
        2.76462       0.0337834        0.033819 
        2.78034       0.0333141       0.0333553 
        2.79607       0.0329335       0.0328998 
        2.81179       0.0324132       0.0324533 
        2.82749       0.0319849       0.0320157 
        2.84321       0.0315505       0.0315857 
        2.85893       0.0311138       0.0311637 
        2.87462       0.0307904       0.0307502 
        2.89033       0.0303906       0.0303438 
        2.90605       0.0298597       0.0299445 
        2.92176       0.0296211       0.0295526 
        2.93747       0.0291587       0.0291679 
        2.95318       0.0287092       0.0287901 
        2.96891       0.0284303       0.0284187 
        2.98456       0.0281333       0.0280556 
        3.00023       0.0276464       0.0276984 
        3.01596       0.0272777       0.0273462 
        3.03164       0.0270702       0.0270012 
        3.04738       0.0266465       0.0266612 
         3.0631        0.026201       0.0263272 
        3.07883       0.0259149       0.0259989 
        3.09456       0.0257431       0.0256763 
        3.11026       0.0253471       0.0253596 
        3.12596       0.0251144       0.0250484 
        3.14163       0.0247341       0.0247431 
        3.15734       0.0244647       0.0244422 
        3.17308       0.0241346       0.0241456 
        3.18879       0.0238577       0.0238548 
        3.20447       0.0236263       0.0235692 
         3.2202       0.0233189       0.0232874 
         3.2359        0.023096       0.0230107 
        3.25157       0.0227526       0.0227392 
        3.26729       0.0225659       0.0224713 
        3.28304       0.0222457       0.0222071 
        3.29877       0.0220486       0.0219476 
        3.31446       0.0217579       0.0216928 
        3.33014       0.0214821       0.0214423 
        3.34585        0.021242       0.0211954 
        3.36158       0.0209897        0.020952 
        3.37727        0.020804       0.0207132 
        3.39294       0.0205725       0.0204784 
        3.40867       0.0203681       0.0202464 
        3.42439       0.0201818       0.0200181 
        3.44008       0.0199455       0.0197938 
        3.45578       0.0197326       0.0195727 
        3.47153       0.0194904       0.0193546 
        3.48724       0.0193857       0.0191402 
        3.50292       0.0190446       0.0189295 
        3.51859       0.0188257       0.0187221 
        3.53431       0.0187426       0.0185172 
        3.55007       0.0185473       0.0183149 
        3.56577       0.0184056       0.0181164 
        3.58146         0.01809        0.017921 
        3.59719       0.0179376        0.017728 
        3.61292       0.0177386       0.0175379 
        3.62859       0.0175762       0.0173513 
        3.64429       0.0174419       0.0171671 
        3.66003       0.0172663        0.016985 
        3.67578       0.0170845       0.0168056 
        3.69146       0.0169729       0.0166295 
        3.70712       0.0168124       0.0164562 
        3.72284        0.016607       0.0162848 
        3.73853       0.0164093       0.0161161 
        3.75422       0.0163551       0.0159498 
        3.76993       0.0161272       0.0157857 
        3.78564       0.0160478       0.0156239 
        3.80137       0.0158881       0.0154642 
        3.81707       0.0156686       0.0153071 
        3.83279       0.0155502        0.015152 
        3.84853       0.0154407       0.0149988 
        3.86424       0.0152657        0.014848 
        3.87992       0.0151461       0.0146995 
        3.89561       0.0150413       0.0145531 
        3.91134       0.0149249       0.0144084 
        3.92704       0.0147284       0.0142658 
        3.94273       0.0146399       0.0141253 
        3.95845       0.0144907       0.0139864 
        3.97418       0.0143564       0.0138494 
        3.98988       0.0142515       0.0137144 
        4.00554       0.0140664       0.0135816 
        4.02125       0.0139123       0.0134501 
        4.03698       0.0138165       0.0133202 
        4.05268       0.0136197       0.0131924 
        4.06839       0.0134452       0.0130661 
         4.0841       0.0133409       0.0129415 
        4.09983       0.0131423       0.0128183 
        4.11555        0.013036       0.0126968 
        4.13124       0.0128754       0.0125773 
        4.14693       0.0127405       0.0124591 
        4.16266         0.01259       0.0123423 
        4.17839       0.0124778        0.012227 
        4.19408       0.0123564       0.0121134 
        4.20977       0.0122219       0.0120012 
        4.22551       0.0121071       0.0118902 
        4.24123        0.011971       0.0117807 
        4.25691       0.0118751       0.0116729 
        4.27259       0.0117764       0.0115664 
        4.28831       0.0117018        0.011461 
        4.30404       0.0115756       0.0113569 
        4.31974       0.0114559       0.0112543 
        4.33543       0.0113778        0.011153 
        4.35116       0.0112854       0.0110527 
        4.36688       0.0111842       0.0109537 
        4.38255       0.0111265       0.0108562 
        4.39825       0.0110786       0.0107598 
        4.41398       0.0110389       0.0106643 
         4.4297       0.0109673       0.0105701 
        4.44541       0.0108841       0.0104771 
        4.46111       0.0108021       0.0103852 
        4.47683       0.0107863       0.0102944 
        4.49251       0.0107037       0.0102048 
        4.50819       0.0106866       0.0101164 
         4.5239       0.0106447       0.0100289 
        4.53962       0.0106154      0.00994227 
        4.55535       0.0105874      0.00985666 
        4.57106        0.010584      0.00977218 
        4.58678       0.0105247      0.00968868 
         4.6025       0.0105439      0.00960613 
        4.61821       0.0105399      0.00952457 
        4.63391       0.0105107      0.00944406 
         4.6496       0.0105208      0.00936451 
        4.66532       0.0104917      0.00928577 
        4.68103       0.0105125      0.00920796 
        4.69673       0.0105142      0.00913113 
        4.71241       0.0105512      0.00905525 
        4.72811       0.0105211       0.0089801 
        4.74384       0.0105599      0.00890572 
        4.75955       0.0105734       0.0088323 
        4.77525        0.010629      0.00875975 
        4.79096       0.0106615      0.00868792 
        4.80669       0.0106584      0.00861687 
         4.8224       0.0107421       0.0085467 
        4.83809       0.0107503      0.00847739 
        4.85379       0.0108428       0.0084088 
         4.8695       0.0108816      0.00834092 
        4.88521       0.0109384      0.00827382 
        4.90093       0.0109966      0.00820745 
        4.91663        0.011128      0.00814187 
        4.93234       0.0111606      0.00807694 
        4.94807       0.0112512      0.00801267 
        4.96377       0.0113007      0.00794923 
        4.97943         0.01139      0.00788661 
        4.99514       0.0115072       0.0078245 
        5.01086       0.0115774      0.00776302 
        5.02654       0.0117271      0.00770236 
        5.04227       0.0118326      0.00764217 
          5.058       0.0119365       0.0075826 
        5.07371       0.0120515      0.00752378 
        5.08942       0.0122353      0.00746557 
        5.10513       0.0122854      0.00740798 
        5.12084       0.0124315      0.00735097 
        5.13656       0.0125657      0.00729458 
        5.15225       0.0127103      0.00723887 
        5.16796       0.0128977      0.00718365 
        5.18369       0.0130611      0.00712897 
         5.1994       0.0132174      0.00707495 
        5.21509        0.013453      0.00702154 
        5.23079       0.0135246      0.00696863 
        5.24649       0.0137908       0.0069163 
        5.26217       0.0139289      0.00686455 
        5.27788        0.014191      0.00681325 
        5.29359       0.0143298      0.00676247 
        5.30933       0.0146461      0.00671214 
        5.32504       0.0147791       0.0066624 
        5.34073       0.0150807      0.00661323 
        5.35646       0.0152597      0.00656445 
        5.37218       0.0155081      0.00651616 
        5.38789       0.0157923      0.00646843 
        5.40357       0.0159795      0.00642124 
        5.41929       0.0162419      0.00637442 
        5.43502       0.0165615      0.00632805 
         5.4507       0.0168798      0.00628227 
        5.46639       0.0172496      0.00623692 
        5.48212       0.0173091      0.00619193 
        5.49786       0.0177568      0.00614732 
        5.51353         0.01812      0.00610337 
        5.52921       0.0184513      0.00605982 
        5.54495       0.0188043      0.00601656 
        5.56066       0.0191363      0.00597377 
        5.57637       0.0194817       0.0059314 
        5.59207       0.0198144      0.00588948 
        5.60778       0.0202081      0.00584796 
        5.62346       0.0206692      0.00580689 
        5.63916       0.0210075      0.00576618 
        5.65487       0.0215067      0.00572584 
         5.6706       0.0217249      0.00568584 
        5.68633        0.022339      0.00564621 
        5.70203        0.022758      0.00560704 
        5.71773       0.0232923      0.00556825 
        5.73344       0.0236842       0.0055298 
        5.74916       0.0243093      0.00549169 
        5.76486       0.0247443      0.00545398 
        5.78054       0.0252394      0.00541669 
        5.79626       0.0256707      0.00537965 
          5.812       0.0263527      0.00534291 
         5.8277       0.0268759      0.00530663 
        5.84339       0.0274535      0.00527068 
        5.85911       0.0282467        0.005235 
        5.87484        0.028815      0.00519966 
        5.89053       0.0294307      0.00516471 
        5.90623       0.0302856      0.00513007 
        5.92195       0.0309753      0.00509569 
        5.93767       0.0315156      0.00506164 
        5.95336       0.0322784      0.00502796 
        5.96905       0.0331677       0.0049946 
        5.98476       0.0335906       0.0049615 
        6.00048       0.0344508      0.00492869 
        6.01617        0.035284      0.00489622 
        6.03185       0.0361052      0.00486408 
        6.04756       0.0370639      0.00483216 
        6.06331       0.0377552      0.00480045 
        6.07903       0.0389542       0.0047691 
        6.09473       0.0395942      0.00473805 
        6.11044       0.0408579      0.00470726 
        6.12616       0.0419872      0.00467674 
        6.14186       0.0425757      0.00464652 
        6.15755       0.0436634      0.00461658 
        6.17326       0.0446077      0.00458688 
        6.18898       0.0461153      0.00455742 
        6.20467       0.0473894      0.00452828 
        6.22036       0.0484317      0.00449939 
         6.2361       0.0496118      0.00447068 
         6.2518       0.0509437      0.00444227 
        6.26748       0.0518116      0.00441417 
        6.28319       0.0536361      0.00438623 
        6.29893       0.0548988      0.00435851 
        6.31463       0.0564039      0.00433108 
        6.33033        0.057703      0.00430389 
        6.34604       0.0592281      0.00427692 
        6.36177       0.0610762      0.00425016 
        6.37747       0.0623983      0.00422367 
