# k  (h/Mpc)    Pcb(k)  (Mpc/h)^3    Pcb_linear(k) (Mpc/h)^3   ShotnoiseSubtracted = true
      0.0200456         92.0038         93.2384 
      0.0350414         72.2457         71.8966 
      0.0492313         54.9011         54.7229 
      0.0637834         46.0391         46.1918 
      0.0800726          36.579         36.7214 
       0.096163         27.5434         27.3248 
       0.111083         22.6643         22.4711 
       0.126058         19.8813         19.9539 
       0.142273          16.629         16.6854 
       0.158546         13.4298         13.3869 
        0.17375         11.6512         11.5927 
       0.188953         10.4872         10.4995 
       0.204907         9.08109          9.1613 
       0.220756         7.81639         7.80923 
        0.23588         6.93502         6.93548 
         0.2514         6.32268         6.32904 
       0.267535         5.67281          5.6698 
       0.283568         5.01542         5.00987 
       0.299022         4.52868         4.52549 
       0.314451          4.1873         4.15972 
       0.330372         3.80613         3.79745 
       0.346141         3.45621         3.44587 
       0.361624         3.15981         3.15612 
       0.377134         2.91621         2.92002 
       0.392932         2.73027         2.69911 
       0.408854         2.48845         2.48704 
       0.424564         2.32309         2.30173 
       0.440253         2.15215         2.14278 
       0.455999          1.9961         1.99824 
       0.471626         1.86157         1.86385 
        0.48727         1.75491         1.74149 
       0.502856          1.6466         1.63274 
       0.518488         1.53186         1.53349 
       0.534347         1.43429         1.44015 
       0.550082         1.36213          1.3548 
       0.565732         1.29317         1.27746 
       0.581496         1.21261         1.20594 
       0.597222         1.14542          1.1398 
       0.612804         1.08388         1.07899 
       0.628434         1.02619         1.02258 
       0.644267        0.977372        0.969754 
       0.660051        0.928765         0.92084 
       0.675724        0.878784        0.875594 
       0.691403        0.836536        0.833368 
       0.707174        0.797214        0.793704 
       0.722871        0.768904        0.756795 
        0.73838        0.724987         0.72264 
       0.754018        0.692202        0.690346 
       0.769845        0.658433        0.659683 
        0.78569        0.634238        0.630867 
       0.801365        0.608584        0.604068 
       0.817031        0.583805        0.578857 
       0.832809        0.557232        0.554938 
       0.848511        0.535709         0.53249 
       0.864097        0.516631         0.51145 
       0.879701        0.498154        0.491537 
       0.895507        0.474005        0.472458 
       0.911279        0.458897        0.454441 
        0.92691        0.444051        0.437522 
       0.942635        0.423886        0.421377 
       0.958396         0.40962        0.406021 
       0.974128        0.395195        0.391464 
       0.989692        0.381585         0.37777 
        1.00528        0.366342        0.364718 
        1.02113        0.356943        0.352082 
        1.03692        0.344905        0.340096 
        1.05264        0.331622        0.328728 
        1.06832        0.321304        0.317902 
        1.08405        0.310063        0.307538 
        1.09979        0.300913        0.297634 
        1.11537        0.289829        0.288268 
        1.13105        0.280236        0.279252 
        1.14679        0.272723         0.27059 
        1.16256         0.26546        0.262281 
        1.17828        0.257501        0.254351 
        1.19395        0.250024        0.246778 
         1.2097        0.241866        0.239478 
        1.22537        0.234075         0.23251 
          1.241        0.227774        0.225842 
        1.25666         0.22221        0.219422 
        1.27241        0.215192        0.213222 
        1.28819        0.208961        0.207254 
        1.30392         0.20402        0.201533 
        1.31957        0.197933        0.196055 
        1.33529        0.193359        0.190762 
        1.35108        0.187168        0.185645 
        1.36674        0.182927        0.180753 
         1.3824        0.177859        0.176043 
        1.39811        0.172691        0.171487 
        1.41389        0.169377        0.167076 
        1.42964        0.164578        0.162828 
        1.44531        0.160233         0.15875 
        1.46101        0.155872        0.154804 
        1.47667        0.152476        0.151005 
        1.49229        0.148853        0.147344 
        1.50793        0.145252        0.143801 
        1.52367        0.141667        0.140353 
        1.53953        0.137908        0.136995 
        1.55526         0.13475        0.133775 
        1.57092        0.132436        0.130672 
        1.58662        0.129064         0.12766 
        1.60235        0.125914        0.124739 
        1.61809        0.123003        0.121908 
        1.63369        0.120172        0.119191 
        1.64941        0.117593        0.116537 
        1.66519        0.115105        0.113955 
        1.68085        0.112343         0.11147 
        1.69652        0.110221        0.109059 
        1.71228        0.107431        0.106706 
        1.72806        0.105516        0.104422 
        1.74368        0.103058        0.102227 
        1.75933        0.101138        0.100091 
        1.77505       0.0991417       0.0980068 
        1.79081       0.0968199       0.0959786 
         1.8065       0.0949863       0.0940167 
        1.82218       0.0926629       0.0921117 
        1.83797       0.0909747       0.0902467 
        1.85367       0.0889913        0.088444 
        1.86928       0.0869249       0.0867016 
        1.88497       0.0854715       0.0849968 
        1.90073       0.0835472       0.0833319 
        1.91647       0.0825424       0.0817133 
        1.93218        0.081245       0.0801414 
        1.94787        0.078971       0.0786133 
        1.96363        0.077561       0.0771193 
        1.97935       0.0760439       0.0756673 
        1.99499       0.0747299       0.0742612 
        2.01064       0.0732567       0.0728889 
         2.0264       0.0721059       0.0715428 
        2.04216       0.0707779       0.0702316 
        2.05781       0.0691763       0.0689617 
        2.07353       0.0680928       0.0677189 
        2.08928       0.0669926       0.0665041 
        2.10499       0.0657415       0.0653225 
        2.12065       0.0645607       0.0641733 
        2.13633       0.0634231       0.0630509 
        2.15211       0.0624005       0.0619482 
        2.16785       0.0609418       0.0608751 
        2.18349       0.0600657       0.0598343 
        2.19916       0.0589314       0.0588158 
        2.21489       0.0579228       0.0578177 
        2.23063       0.0571635       0.0568422 
         2.2463       0.0561489       0.0558937 
        2.26194       0.0552417       0.0549693 
        2.27765       0.0543981       0.0540612 
        2.29341       0.0532064       0.0531713 
        2.30914       0.0524187       0.0523034 
        2.32486       0.0514535       0.0514555 
        2.34061       0.0506492        0.050625 
        2.35635       0.0499099       0.0498137 
        2.37203       0.0494851        0.049023 
        2.38768       0.0486508       0.0482512 
        2.40339       0.0477107       0.0474933 
        2.41914       0.0468374         0.04675 
        2.43483       0.0462802       0.0460254 
         2.4505       0.0454406       0.0453173 
        2.46622       0.0447138       0.0446218 
        2.48195       0.0440392       0.0439409 
        2.49759        0.043383       0.0432779 
        2.51328       0.0425713       0.0426269 
        2.52906       0.0420461       0.0419853 
        2.54479       0.0414921       0.0413593 
        2.56049       0.0407352       0.0407473 
        2.57618       0.0402395       0.0401484 
        2.59189       0.0394562       0.0395606 
        2.60758       0.0391414       0.0389855 
        2.62325       0.0383342       0.0384226 
        2.63898       0.0379328       0.0378689 
        2.65468       0.0372423       0.0373274 
        2.67044       0.0367206       0.0367941 
        2.68618       0.0361904       0.0362726 
        2.70184       0.0358823       0.0357633 
        2.71755       0.0352961       0.0352625 
        2.73329       0.0348616       0.0347706 
        2.74897       0.0342922       0.0342897 
        2.76462       0.0337627        0.033819 
        2.78034       0.0333681       0.0333553 
        2.79607       0.0328907       0.0328998 
        2.81179       0.0324572       0.0324533 
        2.82749       0.0321042       0.0320157 
        2.84321       0.0315856       0.0315857 
        2.85893       0.0311424       0.0311637 
        2.87462       0.0307252       0.0307502 
        2.89033       0.0303362       0.0303438 
        2.90605       0.0298946       0.0299445 
        2.92176       0.0296424       0.0295526 
        2.93747       0.0291088       0.0291679 
        2.95318        0.028811       0.0287901 
        2.96891       0.0283953       0.0284187 
        2.98456       0.0279803       0.0280556 
        3.00023        0.027796       0.0276984 
        3.01596       0.0272595       0.0273462 
        3.03164       0.0269861       0.0270012 
        3.04738       0.0266515       0.0266612 
         3.0631       0.0261961       0.0263272 
        3.07883       0.0260168       0.0259989 
        3.09456       0.0256896       0.0256763 
        3.11026        0.025258       0.0253596 
        3.12596       0.0250942       0.0250484 
        3.14163       0.0247478       0.0247431 
        3.15734        0.024499       0.0244422 
        3.17308       0.0242181       0.0241456 
        3.18879       0.0238476       0.0238548 
        3.20447       0.0235885       0.0235692 
         3.2202       0.0232962       0.0232874 
         3.2359       0.0230363       0.0230107 
        3.25157       0.0227625       0.0227392 
        3.26729       0.0225095       0.0224713 
        3.28304       0.0222945       0.0222071 
        3.29877       0.0220262       0.0219476 
        3.31446       0.0216938       0.0216928 
        3.33014       0.0215039       0.0214423 
        3.34585       0.0212926       0.0211954 
        3.36158       0.0210337        0.020952 
        3.37727       0.0207469       0.0207132 
        3.39294       0.0205328       0.0204784 
        3.40867       0.0203879       0.0202464 
        3.42439       0.0201198       0.0200181 
        3.44008       0.0199291       0.0197938 
        3.45578       0.0196688       0.0195727 
        3.47153        0.019496       0.0193546 
        3.48724       0.0192612       0.0191402 
        3.50292       0.0191418       0.0189295 
        3.51859       0.0189368       0.0187221 
        3.53431        0.018683       0.0185172 
        3.55007       0.0185088       0.0183149 
        3.56577       0.0183254       0.0181164 
        3.58146       0.0181145        0.017921 
        3.59719       0.0180116        0.017728 
        3.61292       0.0177698       0.0175379 
        3.62859       0.0175527       0.0173513 
        3.64429       0.0174139       0.0171671 
        3.66003       0.0172941        0.016985 
        3.67578       0.0171052       0.0168056 
        3.69146       0.0169568       0.0166295 
        3.70712       0.0167802       0.0164562 
        3.72284       0.0166083       0.0162848 
        3.73853       0.0164507       0.0161161 
        3.75422       0.0163131       0.0159498 
        3.76993       0.0161674       0.0157857 
        3.78564       0.0159972       0.0156239 
        3.80137       0.0158661       0.0154642 
        3.81707       0.0156925       0.0153071 
        3.83279       0.0155413        0.015152 
        3.84853       0.0154303       0.0149988 
        3.86424       0.0152681        0.014848 
        3.87992       0.0151778       0.0146995 
        3.89561       0.0150225       0.0145531 
        3.91134        0.014893       0.0144084 
        3.92704       0.0147576       0.0142658 
        3.94273       0.0146406       0.0141253 
        3.95845       0.0145072       0.0139864 
        3.97418       0.0143808       0.0138494 
        3.98988       0.0141924       0.0137144 
        4.00554       0.0141019       0.0135816 
        4.02125       0.0139504       0.0134501 
        4.03698       0.0137684       0.0133202 
        4.05268       0.0136251       0.0131924 
        4.06839       0.0134858       0.0130661 
         4.0841       0.0133034       0.0129415 
        4.09983       0.0131659       0.0128183 
        4.11555       0.0130245       0.0126968 
        4.13124       0.0128583       0.0125773 
        4.14693        0.012756       0.0124591 
        4.16266       0.0126061       0.0123423 
        4.17839       0.0124794        0.012227 
        4.19408        0.012326       0.0121134 
        4.20977        0.012194       0.0120012 
        4.22551       0.0120879       0.0118902 
        4.24123       0.0119759       0.0117807 
        4.25691       0.0118873       0.0116729 
        4.27259       0.0117412       0.0115664 
        4.28831       0.0116558        0.011461 
        4.30404       0.0115619       0.0113569 
        4.31974       0.0114886       0.0112543 
        4.33543       0.0113678        0.011153 
        4.35116       0.0112637       0.0110527 
        4.36688        0.011204       0.0109537 
        4.38255       0.0111506       0.0108562 
        4.39825       0.0111088       0.0107598 
        4.41398       0.0110029       0.0106643 
         4.4297       0.0109548       0.0105701 
        4.44541       0.0108853       0.0104771 
        4.46111       0.0108062       0.0103852 
        4.47683       0.0108135       0.0102944 
        4.49251       0.0107288       0.0102048 
        4.50819       0.0106916       0.0101164 
         4.5239       0.0106416       0.0100289 
        4.53962       0.0106327      0.00994227 
        4.55535       0.0105759      0.00985666 
        4.57106       0.0105935      0.00977218 
        4.58678       0.0105422      0.00968868 
         4.6025       0.0105321      0.00960613 
        4.61821       0.0105064      0.00952457 
        4.63391       0.0105087      0.00944406 
         4.6496       0.0104858      0.00936451 
        4.66532       0.0104968      0.00928577 
        4.68103       0.0104745      0.00920796 
        4.69673       0.0104754      0.00913113 
        4.71241       0.0105516      0.00905525 
        4.72811       0.0105395       0.0089801 
        4.74384       0.0105758      0.00890572 
        4.75955       0.0105741       0.0088323 
        4.77525       0.0105853      0.00875975 
        4.79096       0.0106453      0.00868792 
        4.80669        0.010683      0.00861687 
         4.8224       0.0107303       0.0085467 
        4.83809       0.0107909      0.00847739 
        4.85379       0.0108518       0.0084088 
         4.8695        0.010859      0.00834092 
        4.88521       0.0109457      0.00827382 
        4.90093       0.0109851      0.00820745 
        4.91663       0.0110872      0.00814187 
        4.93234       0.0111472      0.00807694 
        4.94807       0.0112064      0.00801267 
        4.96377       0.0113063      0.00794923 
        4.97943        0.011476      0.00788661 
        4.99514       0.0114984       0.0078245 
        5.01086       0.0116105      0.00776302 
        5.02654       0.0117002      0.00770236 
        5.04227       0.0118075      0.00764217 
          5.058       0.0119566       0.0075826 
        5.07371       0.0120341      0.00752378 
        5.08942       0.0122296      0.00746557 
        5.10513       0.0122818      0.00740798 
        5.12084        0.012427      0.00735097 
        5.13656       0.0125632      0.00729458 
        5.15225       0.0127356      0.00723887 
        5.16796       0.0129444      0.00718365 
        5.18369       0.0130668      0.00712897 
         5.1994       0.0132269      0.00707495 
        5.21509       0.0133798      0.00702154 
        5.23079       0.0135644      0.00696863 
        5.24649       0.0137443       0.0069163 
        5.26217       0.0139378      0.00686455 
        5.27788       0.0141293      0.00681325 
        5.29359       0.0143301      0.00676247 
        5.30933       0.0145852      0.00671214 
        5.32504       0.0147839       0.0066624 
        5.34073         0.01501      0.00661323 
        5.35646       0.0153071      0.00656445 
        5.37218       0.0155374      0.00651616 
        5.38789       0.0157036      0.00646843 
        5.40357        0.016006      0.00642124 
        5.41929       0.0162523      0.00637442 
        5.43502       0.0166013      0.00632805 
         5.4507       0.0168276      0.00628227 
        5.46639       0.0170894      0.00623692 
        5.48212       0.0173593      0.00619193 
        5.49786       0.0178255      0.00614732 
        5.51353       0.0181175      0.00610337 
        5.52921         0.01836      0.00605982 
        5.54495       0.0187315      0.00601656 
        5.56066       0.0191401      0.00597377 
        5.57637       0.0194531       0.0059314 
        5.59207       0.0198984      0.00588948 
        5.60778       0.0202951      0.00584796 
        5.62346       0.0206029      0.00580689 
        5.63916       0.0209362      0.00576618 
        5.65487       0.0214404      0.00572584 
         5.6706       0.0218289      0.00568584 
        5.68633        0.022335      0.00564621 
        5.70203       0.0228033      0.00560704 
        5.71773       0.0233126      0.00556825 
        5.73344       0.0235738       0.0055298 
        5.74916       0.0241533      0.00549169 
        5.76486       0.0248338      0.00545398 
        5.78054       0.0252365      0.00541669 
        5.79626         0.02576      0.00537965 
          5.812       0.0263873      0.00534291 
         5.8277       0.0268322      0.00530663 
        5.84339        0.027465      0.00527068 
        5.85911        0.028249        0.005235 
        5.87484       0.0288352      0.00519966 
        5.89053       0.0294055      0.00516471 
        5.90623       0.0302666      0.00513007 
        5.92195       0.0306634      0.00509569 
        5.93767         0.03148      0.00506164 
        5.95336       0.0322569      0.00502796 
        5.96905       0.0329687       0.0049946 
        5.98476        0.033488       0.0049615 
        6.00048        0.034624      0.00492869 
        6.01617       0.0351973      0.00489622 
        6.03185       0.0359903      0.00486408 
        6.04756       0.0370593      0.00483216 
        6.06331       0.0378893      0.00480045 
        6.07903       0.0387644       0.0047691 
        6.09473       0.0397809      0.00473805 
        6.11044       0.0409833      0.00470726 
        6.12616       0.0417183      0.00467674 
        6.14186       0.0428947      0.00464652 
        6.15755       0.0438762      0.00461658 
        6.17326       0.0449028      0.00458688 
        6.18898       0.0459624      0.00455742 
        6.20467       0.0472499      0.00452828 
        6.22036       0.0486692      0.00449939 
         6.2361       0.0496637      0.00447068 
         6.2518       0.0509717      0.00444227 
        6.26748       0.0518672      0.00441417 
        6.28319       0.0538948      0.00438623 
        6.29893       0.0550271      0.00435851 
        6.31463       0.0567287      0.00433108 
        6.33033       0.0574237      0.00430389 
        6.34604       0.0591726      0.00427692 
        6.36177       0.0606037      0.00425016 
        6.37747        0.062801      0.00422367 
