# k  (h/Mpc)    Pcb(k)  (Mpc/h)^3    Pcb_linear(k) (Mpc/h)^3   ShotnoiseSubtracted = true
      0.0200456         25143.6         25638.3 
      0.0350414         20312.5         19769.8 
      0.0492313         14543.5         15047.5 
      0.0637834         11867.9         12701.6 
      0.0800726         9319.51         10097.5 
       0.096163         7667.19         7513.64 
       0.111083         6396.51         6179.01 
       0.126058         5290.04         5486.84 
       0.142273         4633.16         4588.08 
       0.158546         3838.02         3681.07 
        0.17375         3503.78         3187.71 
       0.188953         3358.31         2887.09 
       0.204907         2895.97         2519.13 
       0.220756         2634.85         2147.35 
        0.23588         2369.27         1907.09 
         0.2514         2166.45         1740.33 
       0.267535         2078.72         1559.06 
       0.283568          1876.9         1377.59 
       0.299022         1794.07          1244.4 
       0.314451         1866.85         1143.82 
       0.330372         1695.15         1044.21 
       0.346141         1562.17         947.529 
       0.361624         1494.56         867.856 
       0.377134            1444         802.933 
       0.392932         1371.66          742.19 
       0.408854         1321.88         683.874 
       0.424564         1296.97          632.92 
       0.440253         1223.45         589.212 
       0.455999         1169.61         549.466 
       0.471626          1174.5         512.512 
        0.48727         1121.42         478.867 
       0.502856         1093.18         448.965 
       0.518488         1047.81         421.673 
       0.534347         1013.29         396.007 
       0.550082         974.648         372.536 
       0.565732         952.773          351.27 
       0.581496         929.068         331.603 
       0.597222         919.896         313.416 
       0.612804         893.933         296.697 
       0.628434         859.591         281.186 
       0.644267         837.833         266.659 
       0.660051         825.857         253.208 
       0.675724         814.473         240.767 
       0.691403         779.509         229.156 
       0.707174         762.566         218.249 
       0.722871         755.254           208.1 
        0.73838         733.121         198.708 
       0.754018         724.119         189.828 
       0.769845         707.543         181.397 
        0.78569         689.833         173.473 
       0.801365         670.972         166.104 
       0.817031         661.185         159.171 
       0.832809         645.781         152.594 
       0.848511         631.445         146.422 
       0.864097         625.177         140.636 
       0.879701          625.44         135.161 
       0.895507         601.482         129.914 
       0.911279          596.52          124.96 
        0.92691         582.364         120.308 
       0.942635         572.789         115.868 
       0.958396         563.062         111.646 
       0.974128          550.39         107.643 
       0.989692         537.834         103.878 
        1.00528         530.136         100.288 
        1.02113          518.17         96.8138 
        1.03692         509.425         93.5181 
        1.05264         503.647         90.3922 
        1.06832         492.655         87.4152 
        1.08405         486.494         84.5655 
        1.09979         475.489         81.8421 
        1.11537         465.206         79.2666 
        1.13105         458.174         76.7874 
        1.14679         449.352         74.4055 
        1.16256         445.508         72.1208 
        1.17828         437.077         69.9403 
        1.19395         428.762          67.858 
         1.2097         419.934         65.8505 
        1.22537         414.332         63.9345 
          1.241         405.524         62.1011 
        1.25666         399.756         60.3355 
        1.27241         396.354         58.6309 
        1.28819         386.158         56.9897 
        1.30392         382.439         55.4165 
        1.31957         374.423         53.9102 
        1.33529         370.537         52.4548 
        1.35108         369.124         51.0477 
        1.36674         358.749         49.7026 
         1.3824         350.142         48.4076 
        1.39811         348.156         47.1548 
        1.41389          342.71         45.9418 
        1.42964         335.948         44.7738 
        1.44531         330.362         43.6524 
        1.46101         321.333         42.5673 
        1.47667         321.236         41.5226 
        1.49229         316.462         40.5159 
        1.50793         308.851         39.5417 
        1.52367         303.375         38.5935 
        1.53953         299.503         37.6702 
        1.55526         293.852         36.7847 
        1.57092         289.406         35.9315 
        1.58662           285.3         35.1035 
        1.60235         280.724         34.3002 
        1.61809         276.496         33.5217 
        1.63369         272.733         32.7745 
        1.64941          268.63         32.0448 
        1.66519         264.455         31.3349 
        1.68085         258.904         30.6516 
        1.69652         255.414         29.9887 
        1.71228         251.408         29.3417 
        1.72806         248.355         28.7134 
        1.74368         245.347         28.1099 
        1.75933          241.95         27.5226 
        1.77505           237.2         26.9495 
        1.79081         233.811         26.3917 
         1.8065         231.913         25.8523 
        1.82218         226.229         25.3284 
        1.83797         223.746         24.8156 
        1.85367          219.47         24.3199 
        1.86928         215.703         23.8408 
        1.88497          213.12          23.372 
        1.90073         211.432         22.9142 
        1.91647         207.717         22.4692 
        1.93218         204.217         22.0369 
        1.94787         200.182         21.6167 
        1.96363         199.038         21.2059 
        1.97935          194.54         20.8067 
        1.99499         192.943           20.42 
        2.01064         187.931         20.0427 
         2.0264           186.8         19.6725 
        2.04216         183.727          19.312 
        2.05781         181.196         18.9628 
        2.07353         180.278          18.621 
        2.08928         177.524          18.287 
        2.10499         174.494         17.9621 
        2.12065         172.054         17.6461 
        2.13633         169.306         17.3374 
        2.15211         167.206         17.0342 
        2.16785         164.993         16.7392 
        2.18349         162.457          16.453 
        2.19916         161.322         16.1729 
        2.21489         158.323         15.8984 
        2.23063          156.64         15.6302 
         2.2463         154.594         15.3694 
        2.26194         152.092         15.1152 
        2.27765         150.205         14.8655 
        2.29341         148.019         14.6208 
        2.30914         146.006         14.3822 
        2.32486         144.642          14.149 
        2.34061         142.021         13.9206 
        2.35635         139.895         13.6975 
        2.37203         139.114         13.4801 
        2.38768         136.799         13.2679 
        2.40339         134.668         13.0595 
        2.41914         133.308         12.8551 
        2.43483         131.935         12.6558 
         2.4505         129.905         12.4611 
        2.46622         128.079         12.2699 
        2.48195         126.786         12.0827 
        2.49759         124.667         11.9004 
        2.51328         123.121         11.7214 
        2.52906          121.97         11.5449 
        2.54479         120.174         11.3728 
        2.56049         118.865         11.2045 
        2.57618         117.316         11.0398 
        2.59189         116.332         10.8782 
        2.60758         115.258         10.7201 
        2.62325         113.465         10.5653 
        2.63898         111.342          10.413 
        2.65468           110.6         10.2641 
        2.67044         109.488         10.1175 
        2.68618         107.551         9.97407 
        2.70184         106.811         9.83402 
        2.71755         104.839         9.69632 
        2.73329         103.958         9.56106 
        2.74897         102.387         9.42883 
        2.76462         101.343          9.2994 
        2.78034         100.059         9.17188 
        2.79607         99.1852         9.04663 
        2.81179         97.8578         8.92386 
        2.82749         96.5789         8.80352 
        2.84321         95.5276         8.68528 
        2.85893         94.5357         8.56925 
        2.87462         93.1087         8.45555 
        2.89033         92.1991         8.34381 
        2.90605         91.0839         8.23401 
        2.92176         89.6497         8.12624 
        2.93747          89.203         8.02047 
        2.95318         88.1218         7.91656 
        2.96891         87.1626         7.81445 
        2.98456         85.9751         7.71461 
        3.00023         85.1385         7.61637 
        3.01596         84.0586         7.51954 
        3.03164         83.4379         7.42467 
        3.04738         82.3212         7.33118 
         3.0631         81.4277         7.23933 
        3.07883         80.6005         7.14905 
        3.09456         79.5049         7.06034 
        3.11026         78.8264         6.97327 
        3.12596         77.5789         6.88769 
        3.14163          76.876         6.80374 
        3.15734         76.0103         6.72101 
        3.17308          75.049         6.63945 
        3.18879         74.6133         6.55948 
        3.20447         73.5382         6.48094 
         3.2202         72.5967         6.40345 
         3.2359          72.303         6.32738 
        3.25157          71.543         6.25272 
        3.26729         70.4754         6.17904 
        3.28304         69.9739         6.10642 
        3.29877         69.0453         6.03506 
        3.31446         68.5421           5.965 
        3.33014         67.9353         5.89611 
        3.34585         67.0796         5.82822 
        3.36158         66.2273         5.76129 
        3.37727         65.6437         5.69563 
        3.39294         64.9177         5.63106 
        3.40867         64.1897         5.56725 
        3.42439         63.2736         5.50448 
        3.44008         62.7041          5.4428 
        3.45578          62.473         5.38202 
        3.47153         61.5984         5.32204 
        3.48724         61.0624         5.26308 
        3.50292         60.5871         5.20515 
        3.51859         59.7393         5.14813 
        3.53431         59.1994         5.09179 
        3.55007         58.6707         5.03616 
        3.56577         58.0161         4.98157 
        3.58146         57.3556         4.92783 
        3.59719         56.8515         4.87475 
        3.61292         56.3374         4.82248 
        3.62859         55.6524         4.77118 
        3.64429         55.3146         4.72052 
        3.66003         54.6665         4.67045 
        3.67578         54.0927         4.62112 
        3.69146         53.5273          4.5727 
        3.70712         52.9617         4.52506 
        3.72284         52.6564         4.47792 
        3.73853         52.0389         4.43154 
        3.75422         51.5581          4.3858 
        3.76993         51.0096         4.34067 
        3.78564         50.6305          4.2962 
        3.80137         49.9904         4.25228 
        3.81707         49.5056         4.20906 
        3.83279         49.0797         4.16642 
        3.84853         48.6681         4.12429 
        3.86424         48.2207         4.08284 
        3.87992         47.7195         4.04201 
        3.89561           47.29         4.00175 
        3.91134         46.9128         3.96195 
        3.92704         46.3675         3.92274 
        3.94273         45.8218         3.88411 
        3.95845         45.3931         3.84592 
        3.97418         45.1204         3.80824 
        3.98988         44.7852         3.77112 
        4.00554          44.135          3.7346 
        4.02125         43.8004         3.69846 
        4.03698         43.4746         3.66274 
        4.05268         43.0179         3.62757 
        4.06839         42.6097         3.59284 
         4.0841         42.2155         3.55858 
        4.09983         41.7349         3.52472 
        4.11555         41.4388         3.49132 
        4.13124         41.0213         3.45844 
        4.14693         40.7998         3.42596 
        4.16266         40.4545         3.39382 
        4.17839         39.9614         3.36211 
        4.19408         39.6144         3.33088 
        4.20977         39.2277         3.30004 
        4.22551          38.842         3.26951 
        4.24123         38.5457         3.23941 
        4.25691         38.1302         3.20976 
        4.27259           37.88         3.18048 
        4.28831          37.488         3.15151 
        4.30404         37.2828         3.12287 
        4.31974         36.8934         3.09465 
        4.33543         36.5237         3.06679 
        4.35116          36.179         3.03921 
        4.36688         35.8997         3.01199 
        4.38255         35.5814          2.9852 
        4.39825         35.1963         2.95867 
        4.41398         34.9523         2.93242 
         4.4297         34.6491         2.90652 
        4.44541         34.3513         2.88093 
        4.46111         34.0877         2.85567 
        4.47683         33.7556          2.8307 
        4.49251         33.5179         2.80608 
        4.50819         33.2647         2.78176 
         4.5239         32.9477         2.75769 
        4.53962         32.5257         2.73388 
        4.55535         32.3768         2.71034 
        4.57106         32.1315         2.68711 
        4.58678         31.8424         2.66415 
         4.6025         31.5552         2.64145 
        4.61821         31.2305         2.61902 
        4.63391         30.9571         2.59688 
         4.6496         30.7074         2.57501 
        4.66532         30.4731         2.55336 
        4.68103         30.2093         2.53196 
        4.69673         29.9206         2.51084 
        4.71241         29.7533         2.48997 
        4.72811         29.4947         2.46931 
        4.74384         29.2044         2.44886 
        4.75955         28.9484         2.42867 
        4.77525         28.7262         2.40872 
        4.79096         28.4849         2.38897 
        4.80669         28.2465         2.36943 
         4.8224         28.0487         2.35013 
        4.83809         27.8169         2.33107 
        4.85379          27.502         2.31221 
         4.8695         27.3811         2.29355 
        4.88521         27.0784          2.2751 
        4.90093         26.8876         2.25685 
        4.91663         26.6506         2.23881 
        4.93234         26.4045         2.22096 
        4.94807         26.2949         2.20329 
        4.96377         26.0199         2.18584 
        4.97943         25.8069         2.16862 
        4.99514         25.5266         2.15155 
        5.01086         25.3691         2.13464 
        5.02654         25.1662         2.11796 
        5.04227         24.9896         2.10141 
          5.058         24.8023         2.08503 
        5.07371         24.6027         2.06885 
        5.08942         24.3886         2.05285 
        5.10513         24.2304         2.03701 
        5.12084         24.0457         2.02134 
        5.13656         23.8817         2.00583 
        5.15225           23.64         1.99051 
        5.16796         23.4672         1.97533 
        5.18369         23.2293         1.96029 
         5.1994         23.1127         1.94544 
        5.21509         22.8785         1.93075 
        5.23079         22.7023          1.9162 
        5.24649         22.5177         1.90181 
        5.26217         22.3597         1.88758 
        5.27788         22.1614         1.87348 
        5.29359         22.0381         1.85951 
        5.30933         21.8312         1.84567 
        5.32504         21.7504           1.832 
        5.34073         21.5425         1.81848 
        5.35646         21.3837         1.80506 
        5.37218         21.1919         1.79178 
        5.38789         21.0058         1.77866 
        5.40357         20.8778         1.76568 
        5.41929         20.7303         1.75281 
        5.43502         20.5229         1.74006 
         5.4507         20.3823         1.72747 
        5.46639         20.2574           1.715 
        5.48212         20.0991         1.70263 
        5.49786         19.9227         1.69036 
        5.51353         19.8142         1.67828 
        5.52921         19.6456          1.6663 
        5.54495         19.4954         1.65441 
        5.56066         19.3575         1.64264 
        5.57637         19.1842         1.63099 
        5.59207         19.0652         1.61946 
        5.60778         18.9032         1.60804 
        5.62346         18.7858         1.59675 
        5.63916         18.5978         1.58556 
        5.65487         18.4915         1.57447 
         5.6706         18.3741         1.56347 
        5.68633         18.2219         1.55257 
        5.70203         18.0248          1.5418 
        5.71773         17.9453         1.53113 
        5.73344         17.8244         1.52056 
        5.74916         17.7266         1.51008 
        5.76486         17.5606         1.49971 
        5.78054         17.4323         1.48946 
        5.79626          17.317         1.47927 
          5.812         17.2112         1.46917 
         5.8277         17.0396         1.45919 
        5.84339         16.9114         1.44931 
        5.85911         16.8126          1.4395 
        5.87484         16.7061         1.42978 
        5.89053         16.5601         1.42017 
        5.90623         16.4387         1.41064 
        5.92195         16.3188         1.40119 
        5.93767         16.1731         1.39183 
        5.95336         16.0734         1.38257 
        5.96905         15.9992         1.37339 
        5.98476         15.8382         1.36429 
        6.00048         15.7477         1.35527 
        6.01617         15.5949         1.34634 
        6.03185         15.5368          1.3375 
        6.04756         15.4391         1.32872 
        6.06331         15.3225         1.32001 
        6.07903         15.2056         1.31138 
        6.09473         15.0961         1.30285 
        6.11044         14.9768         1.29438 
        6.12616         14.9038         1.28599 
        6.14186         14.7615         1.27768 
        6.15755         14.7057         1.26945 
        6.17326         14.5869         1.26128 
        6.18898         14.4654         1.25318 
        6.20467         14.3834         1.24517 
        6.22036          14.263         1.23722 
         6.2361         14.1839         1.22933 
         6.2518         14.1018         1.22151 
        6.26748         13.9736         1.21379 
        6.28319          13.896         1.20611 
        6.29893          13.785         1.19848 
        6.31463         13.6808         1.19094 
        6.33033         13.5876         1.18347 
        6.34604         13.5163         1.17605 
        6.36177         13.4227         1.16869 
        6.37747         13.3302         1.16141 
