# k  (h/Mpc)    Pcb(k)  (Mpc/h)^3    Pcb_linear(k) (Mpc/h)^3   ShotnoiseSubtracted = true
      0.0200456         8526.58          8691.6 
      0.0350414         6516.45         6702.14 
      0.0492313         5052.74         5101.22 
      0.0637834          4367.3         4305.96 
      0.0800726         3464.53         3423.14 
       0.096163          2485.4         2547.19 
       0.111083         2023.32         2094.74 
       0.126058         1867.45         1860.09 
       0.142273          1594.4          1555.4 
       0.158546         1336.61         1247.92 
        0.17375         1098.19         1080.66 
       0.188953         1054.08         978.749 
       0.204907         983.693         854.008 
       0.220756         836.547         727.969 
        0.23588         741.361         646.519 
         0.2514         652.962         589.987 
       0.267535         629.407         528.534 
       0.283568         571.936         467.016 
       0.299022         532.853         421.862 
       0.314451         498.127         387.766 
       0.330372         460.645         353.995 
       0.346141         418.047         321.221 
       0.361624         400.736         294.211 
       0.377134         375.629         272.201 
       0.392932         352.869         251.609 
       0.408854          338.88         231.839 
       0.424564         324.171         214.566 
       0.440253         310.286         199.748 
       0.455999         292.633         186.274 
       0.471626         271.141         173.746 
        0.48727         264.947          162.34 
       0.502856         255.395         152.203 
       0.518488         251.469         142.951 
       0.534347         237.821          134.25 
       0.550082         222.585         126.293 
       0.565732         218.361         119.084 
       0.581496         207.898         112.416 
       0.597222         202.314         106.251 
       0.612804         194.097         100.583 
       0.628434         188.814         95.3244 
       0.644267         182.419         90.3996 
       0.660051         179.897         85.8398 
       0.675724         175.694         81.6221 
       0.691403         170.439         77.6858 
       0.707174          163.16         73.9884 
       0.722871         161.618         70.5477 
        0.73838         158.257         67.3638 
       0.754018         152.365         64.3534 
       0.769845         148.931         61.4951 
        0.78569         145.996         58.8088 
       0.801365         142.189         56.3106 
       0.817031         137.244         53.9605 
       0.832809         135.111         51.7308 
       0.848511         131.666         49.6382 
       0.864097          128.39         47.6769 
       0.879701         126.461         45.8206 
       0.895507          123.18         44.0421 
       0.911279         121.533         42.3626 
        0.92691         119.033         40.7854 
       0.942635         116.408         39.2804 
       0.958396         115.847         37.8489 
       0.974128         112.515         36.4919 
       0.989692         109.594         35.2154 
        1.00528         107.576         33.9986 
        1.02113         106.349         32.8207 
        1.03692         102.648         31.7035 
        1.05264         102.376         30.6438 
        1.06832         99.8078         29.6345 
        1.08405         98.4578         28.6684 
        1.09979         97.6644         27.7452 
        1.11537          94.405         26.8721 
        1.13105         94.3911         26.0316 
        1.14679         92.9818         25.2241 
        1.16256         91.4661         24.4496 
        1.17828         88.8274         23.7104 
        1.19395         88.3344         23.0044 
         1.2097         85.7727         22.3239 
        1.22537         85.9306         21.6743 
          1.241         83.7562         21.0528 
        1.25666         82.1545         20.4543 
        1.27241         81.3209         19.8764 
        1.28819         79.8951           19.32 
        1.30392         78.6415         18.7867 
        1.31957         77.5487          18.276 
        1.33529         76.4001         17.7826 
        1.35108         75.8253         17.3056 
        1.36674         74.7283         16.8496 
         1.3824         73.2471         16.4106 
        1.39811         72.5728         15.9859 
        1.41389         71.3587         15.5747 
        1.42964          70.512         15.1787 
        1.44531         69.2127         14.7986 
        1.46101         68.0921         14.4307 
        1.47667         67.8037         14.0765 
        1.49229         66.6327         13.7353 
        1.50793         65.8718          13.405 
        1.52367         64.9346         13.0835 
        1.53953         64.1914         12.7705 
        1.55526         63.4046         12.4703 
        1.57092         63.0341         12.1811 
        1.58662         61.8616         11.9004 
        1.60235         61.2385         11.6281 
        1.61809         60.2794         11.3641 
        1.63369         59.2077         11.1108 
        1.64941         58.5695         10.8635 
        1.66519          57.683         10.6228 
        1.68085         57.0886         10.3912 
        1.69652         56.3438         10.1664 
        1.71228         55.8036         9.94708 
        1.72806         55.3717         9.73408 
        1.74368         54.4753         9.52949 
        1.75933         53.9475         9.33041 
        1.77505         53.2588         9.13611 
        1.79081         52.5084         8.94703 
         1.8065         52.0199         8.76415 
        1.82218          51.225         8.58657 
        1.83797         50.6782         8.41272 
        1.85367         49.9016         8.24466 
        1.86928         49.5277         8.08224 
        1.88497         48.9371         7.92333 
        1.90073         48.4902         7.76813 
        1.91647         47.9032         7.61724 
        1.93218         47.1679         7.47071 
        1.94787         46.8024         7.32826 
        1.96363         46.1218         7.18899 
        1.97935         45.6755         7.05364 
        1.99499         44.9945         6.92256 
        2.01064         44.7807         6.79464 
         2.0264         43.9128         6.66916 
        2.04216         43.3998         6.54693 
        2.05781          42.898         6.42855 
        2.07353         42.4347         6.31269 
        2.08928         42.0636         6.19945 
        2.10499         41.6173          6.0893 
        2.12065         41.1598         5.98217 
        2.13633         40.9768         5.87755 
        2.15211         40.2482         5.77476 
        2.16785         39.5134         5.67472 
        2.18349          39.309          5.5777 
        2.19916         38.9913         5.48275 
        2.21489         38.3677         5.38971 
        2.23063         38.0021         5.29878 
         2.2463         37.5302         5.21036 
        2.26194          37.064         5.12419 
        2.27765         36.6706         5.03954 
        2.29341         36.3045         4.95658 
        2.30914         35.9222         4.87568 
        2.32486         35.4475         4.79663 
        2.34061         35.1543         4.71921 
        2.35635         34.7771         4.64358 
        2.37203         34.4212         4.56988 
        2.38768         33.9948         4.49793 
        2.40339         33.7825         4.42729 
        2.41914         33.4422           4.358 
        2.43483         32.8268         4.29044 
         2.4505         32.6067         4.22444 
        2.46622         32.3512          4.1596 
        2.48195         31.9932         4.09613 
        2.49759         31.5645         4.03433 
        2.51328          31.174         3.97364 
        2.52906         31.0477         3.91383 
        2.54479         30.5898         3.85548 
        2.56049         30.2327         3.79843 
        2.57618         29.8559         3.74259 
        2.59189         29.6988          3.6878 
        2.60758         29.4432         3.63419 
        2.62325         28.9761         3.58172 
        2.63898         28.8437         3.53011 
        2.65468         28.3804         3.47962 
        2.67044         28.1627         3.42992 
        2.68618         27.8683          3.3813 
        2.70184         27.5495         3.33382 
        2.71755         27.3847         3.28714 
        2.73329         27.0597         3.24128 
        2.74897         26.7346         3.19646 
        2.76462         26.4913         3.15258 
        2.78034         26.2641         3.10935 
        2.79607         25.9627         3.06689 
        2.81179         25.8005         3.02527 
        2.82749         25.4978         2.98447 
        2.84321         25.1284         2.94439 
        2.85893         24.8921         2.90505 
        2.87462         24.6488          2.8665 
        2.89033         24.4802         2.82863 
        2.90605         24.2778          2.7914 
        2.92176         24.0524         2.75487 
        2.93747         23.7704         2.71901 
        2.95318         23.4086         2.68378 
        2.96891         23.3185         2.64917 
        2.98456         22.9394         2.61532 
        3.00023         22.8311         2.58202 
        3.01596         22.5446         2.54919 
        3.03164         22.2996         2.51703 
        3.04738         22.1755         2.48533 
         3.0631         21.9262          2.4542 
        3.07883         21.7134         2.42359 
        3.09456         21.5008         2.39352 
        3.11026         21.2755           2.364 
        3.12596         21.0809         2.33499 
        3.14163         20.9621         2.30653 
        3.15734         20.7011         2.27848 
        3.17308         20.5377         2.25083 
        3.18879         20.3061         2.22372 
        3.20447         20.1146          2.1971 
         3.2202         19.9021         2.17083 
         3.2359         19.6882         2.14504 
        3.25157         19.6478         2.11973 
        3.26729         19.4574         2.09475 
        3.28304         19.2062         2.07013 
        3.29877         18.8983         2.04594 
        3.31446         18.8468         2.02219 
        3.33014         18.6366         1.99883 
        3.34585         18.3916         1.97582 
        3.36158         18.3272         1.95313 
        3.37727         18.0718         1.93087 
        3.39294         17.8936         1.90898 
        3.40867         17.7766         1.88735 
        3.42439         17.5758         1.86607 
        3.44008         17.3688         1.84516 
        3.45578         17.2459         1.82455 
        3.47153         17.1117         1.80422 
        3.48724         16.9359         1.78423 
        3.50292         16.7877         1.76459 
        3.51859         16.6299         1.74526 
        3.53431         16.4723         1.72616 
        3.55007         16.3387          1.7073 
        3.56577         16.1907          1.6888 
        3.58146         16.0385         1.67058 
        3.59719         15.8703         1.65258 
        3.61292         15.7213         1.63486 
        3.62859         15.5547         1.61747 
        3.64429         15.4243          1.6003 
        3.66003         15.3124         1.58332 
        3.67578         15.1876          1.5666 
        3.69146         15.0345         1.55019 
        3.70712         14.8868         1.53403 
        3.72284         14.8123         1.51806 
        3.73853          14.689         1.50233 
        3.75422         14.4418         1.48683 
        3.76993         14.3477         1.47153 
        3.78564         14.2316         1.45645 
        3.80137         14.1047         1.44156 
        3.81707         13.9652         1.42691 
        3.83279         13.7927         1.41245 
        3.84853         13.7305         1.39817 
        3.86424         13.6014         1.38412 
        3.87992         13.4674         1.37028 
        3.89561          13.379         1.35663 
        3.91134         13.2454         1.34314 
        3.92704         13.0873         1.32985 
        3.94273         13.0217         1.31675 
        3.95845         12.9018          1.3038 
        3.97418         12.8061         1.29103 
        3.98988         12.6962         1.27844 
        4.00554           12.54         1.26606 
        4.02125         12.4109         1.25381 
        4.03698         12.3748          1.2417 
        4.05268         12.2332         1.22978 
        4.06839           12.13         1.21801 
         4.0841         12.0307         1.20639 
        4.09983         11.9076         1.19491 
        4.11555         11.7906         1.18359 
        4.13124         11.7071         1.17244 
        4.14693         11.6076         1.16143 
        4.16266         11.5244         1.15053 
        4.17839         11.4037         1.13979 
        4.19408         11.3149          1.1292 
        4.20977         11.2221         1.11874 
        4.22551         11.1333         1.10839 
        4.24123         11.0282         1.09819 
        4.25691         10.9183         1.08814 
        4.27259         10.8436         1.07821 
        4.28831         10.7553         1.06839 
        4.30404         10.6403         1.05868 
        4.31974         10.5687         1.04911 
        4.33543           10.47         1.03967 
        4.35116         10.3907         1.03032 
        4.36688         10.2845         1.02109 
        4.38255         10.2286         1.01201 
        4.39825         10.1524         1.00302 
        4.41398         10.0596        0.994117 
         4.4297         9.95761        0.985335 
        4.44541         9.85209        0.976661 
        4.46111         9.79121        0.968099 
        4.47683         9.71845        0.959633 
        4.49251         9.64096        0.951286 
        4.50819         9.56568        0.943041 
         4.5239         9.49741        0.934882 
        4.53962         9.42074        0.926809 
        4.55535         9.32403        0.918829 
        4.57106         9.24457        0.910954 
        4.58678         9.16951         0.90317 
         4.6025         9.09963        0.895475 
        4.61821         9.02222        0.887872 
        4.63391         8.93614        0.880367 
         4.6496          8.8949        0.872952 
        4.66532         8.80213        0.865611 
        4.68103         8.73788        0.858358 
        4.69673         8.66801        0.851195 
        4.71241         8.58537        0.844122 
        4.72811         8.52282        0.837117 
        4.74384         8.46388        0.830183 
        4.75955         8.39758        0.823339 
        4.77525         8.33179        0.816576 
        4.79096         8.27872         0.80988 
        4.80669         8.21618        0.803257 
         4.8224         8.15844        0.796716 
        4.83809         8.08133        0.790254 
        4.85379           7.986        0.783861 
         4.8695          7.9601        0.777533 
        4.88521         7.88094        0.771278 
        4.90093         7.83391        0.765091 
        4.91663         7.76291        0.758978 
        4.93234         7.71028        0.752925 
        4.94807         7.64442        0.746934 
        4.96377         7.59284         0.74102 
        4.97943          7.5456        0.735183 
        4.99514         7.48457        0.729393 
        5.01086         7.41668        0.723662 
        5.02654          7.3594        0.718007 
        5.04227         7.32275        0.712396 
          5.058         7.25864        0.706843 
        5.07371         7.21854         0.70136 
        5.08942         7.14197        0.695934 
        5.10513         7.08561        0.690565 
        5.12084         7.05033        0.685251 
        5.13656          6.9973        0.679994 
        5.15225         6.92274        0.674801 
        5.16796         6.88225        0.669654 
        5.18369         6.83953        0.664556 
         5.1994         6.77061         0.65952 
        5.21509         6.72076        0.654542 
        5.23079         6.66895        0.649609 
        5.24649         6.61846        0.644731 
        5.26217         6.57868        0.639907 
        5.27788         6.52089        0.635125 
        5.29359          6.4848        0.630391 
        5.30933         6.45153        0.625699 
        5.32504          6.4001        0.621063 
        5.34073         6.34056        0.616479 
        5.35646         6.30054        0.611932 
        5.37218         6.24046        0.607431 
        5.38789         6.20959        0.602981 
        5.40357         6.16865        0.598582 
        5.41929         6.11576        0.594217 
        5.43502         6.06947        0.589895 
         5.4507         6.03194        0.585627 
        5.46639          5.9888          0.5814 
        5.48212         5.95353        0.577206 
        5.49786          5.9147        0.573047 
        5.51353         5.86554        0.568951 
        5.52921         5.82734         0.56489 
        5.54495          5.7708        0.560858 
        5.56066         5.73988        0.556869 
        5.57637         5.68957         0.55292 
        5.59207          5.6563        0.549012 
        5.60778         5.60705        0.545141 
        5.62346         5.57831        0.541313 
        5.63916         5.53438        0.537518 
        5.65487         5.50205        0.533758 
         5.6706         5.47624        0.530029 
        5.68633         5.42891        0.526334 
        5.70203         5.39027        0.522683 
        5.71773         5.36205        0.519067 
        5.73344         5.31611        0.515483 
        5.74916         5.27778         0.51193 
        5.76486         5.24856        0.508415 
        5.78054         5.21592        0.504939 
        5.79626         5.17738        0.501486 
          5.812         5.13441        0.498061 
         5.8277         5.09426        0.494679 
        5.84339         5.07516        0.491328 
        5.85911         5.03074        0.488002 
        5.87484         5.01132        0.484707 
        5.89053         4.96077         0.48145 
        5.90623         4.93757         0.47822 
        5.92195         4.90469        0.475015 
        5.93767         4.85527        0.471842 
        5.95336          4.8355        0.468702 
        5.96905         4.80321        0.465592 
        5.98476         4.78181        0.462507 
        6.00048         4.74552        0.459448 
        6.01617         4.70286        0.456421 
        6.03185         4.68627        0.453425 
        6.04756         4.65418        0.450449 
        6.06331         4.62364        0.447494 
        6.07903         4.58606        0.444571 
        6.09473         4.55506        0.441677 
        6.11044         4.53347        0.438806 
        6.12616         4.49448        0.435961 
        6.14186         4.46201        0.433145 
        6.15755         4.44692        0.430353 
        6.17326         4.41202        0.427584 
        6.18898         4.38411        0.424839 
        6.20467         4.36011        0.422122 
        6.22036         4.32754        0.419429 
         6.2361         4.29986        0.416753 
         6.2518         4.27597        0.414104 
        6.26748         4.24357        0.411485 
        6.28319         4.21546         0.40888 
        6.29893         4.19871        0.406296 
        6.31463         4.16742        0.403739 
        6.33033         4.14496        0.401205 
        6.34604         4.11698        0.398691 
        6.36177          4.0953        0.396196 
        6.37747         4.06531        0.393727 
