# k  (h/Mpc)    Pcb(k)  (Mpc/h)^3    Pcb_linear(k) (Mpc/h)^3   ShotnoiseSubtracted = true
      0.0200456         23.6657         23.9849 
      0.0350414         18.5634         18.4949 
      0.0492313         14.1258         14.0771 
      0.0637834         11.8618         11.8825 
      0.0800726         9.42622         9.44632 
       0.096163         7.07859          7.0291 
       0.111083         5.81978         5.78054 
       0.126058          5.1206           5.133 
       0.142273         4.28499         4.29221 
       0.158546         3.45686         3.44369 
        0.17375         2.99376         2.98214 
       0.188953         2.69806         2.70091 
       0.204907         2.34608         2.35668 
       0.220756          2.0124         2.00887 
        0.23588         1.78559          1.7841 
         0.2514         1.62739          1.6281 
       0.267535         1.45879         1.45852 
       0.283568         1.29059         1.28875 
       0.299022           1.165         1.16415 
       0.314451         1.07365         1.07006 
       0.330372        0.978025        0.976867 
       0.346141         0.88814        0.886425 
       0.361624        0.812658         0.81189 
       0.377134         0.75076        0.751154 
       0.392932        0.698567        0.694328 
       0.408854            0.64        0.639772 
       0.424564        0.594826        0.592105 
       0.440253        0.552488        0.551215 
       0.455999         0.51382        0.514032 
       0.471626        0.479232        0.479461 
        0.48727        0.449683        0.447986 
       0.502856        0.421828        0.420012 
       0.518488        0.394241         0.39448 
       0.534347        0.369619        0.370469 
       0.550082        0.349513        0.348512 
       0.565732        0.330864        0.328617 
       0.581496        0.311074        0.310219 
       0.597222        0.293886        0.293204 
       0.612804        0.278297        0.277564 
       0.628434          0.2634        0.263052 
       0.644267        0.250447        0.249462 
       0.660051        0.238012        0.236879 
       0.675724        0.225749         0.22524 
       0.691403        0.214768        0.214378 
       0.707174        0.204664        0.204175 
       0.722871        0.196269         0.19468 
        0.73838        0.186269        0.185894 
       0.754018        0.177822        0.177586 
       0.769845        0.169656        0.169699 
        0.78569        0.162789        0.162286 
       0.801365        0.156114        0.155392 
       0.817031        0.149599        0.148907 
       0.832809        0.143203        0.142754 
       0.848511        0.137506        0.136979 
       0.864097        0.132403        0.131567 
       0.879701        0.127455        0.126444 
       0.895507        0.121835        0.121537 
       0.911279        0.117625        0.116902 
        0.92691         0.11349        0.112549 
       0.942635        0.108903        0.108396 
       0.958396         0.10511        0.104446 
       0.974128        0.101336        0.100701 
       0.989692        0.097844       0.0971787 
        1.00528       0.0941645        0.093821 
        1.02113       0.0913885       0.0905705 
        1.03692       0.0882576       0.0874873 
        1.05264       0.0851292        0.084563 
        1.06832       0.0823765        0.081778 
        1.08405       0.0796734        0.079112 
        1.09979       0.0772143       0.0765643 
        1.11537       0.0745263       0.0741548 
        1.13105       0.0721976       0.0718355 
        1.14679       0.0700455       0.0696073 
        1.16256       0.0681276       0.0674699 
        1.17828       0.0660686         0.06543 
        1.19395       0.0641439       0.0634819 
         1.2097       0.0621671       0.0616039 
        1.22537       0.0602548       0.0598115 
          1.241       0.0585766       0.0580963 
        1.25666        0.057011       0.0564446 
        1.27241       0.0553385       0.0548499 
        1.28819       0.0537786       0.0533145 
        1.30392       0.0524426       0.0518428 
        1.31957       0.0509376       0.0504337 
        1.33529        0.049702       0.0490721 
        1.35108        0.048208       0.0477557 
        1.36674        0.047112       0.0464974 
         1.3824       0.0457466       0.0452859 
        1.39811        0.044542       0.0441139 
        1.41389       0.0435722       0.0429791 
        1.42964       0.0423546       0.0418864 
        1.44531       0.0413329       0.0408374 
        1.46101        0.040254       0.0398222 
        1.47667       0.0393276       0.0388449 
        1.49229       0.0384258       0.0379031 
        1.50793       0.0374864       0.0369918 
        1.52367       0.0365956       0.0361047 
        1.53953       0.0356485       0.0352409 
        1.55526       0.0348313       0.0344125 
        1.57092       0.0341658       0.0336143 
        1.58662       0.0333183       0.0328397 
        1.60235       0.0325177       0.0320882 
        1.61809       0.0318433         0.03136 
        1.63369       0.0311052       0.0306609 
        1.64941       0.0304045       0.0299783 
        1.66519       0.0297595       0.0293141 
        1.68085       0.0291258        0.028675 
        1.69652       0.0285462       0.0280548 
        1.71228       0.0278538       0.0274495 
        1.72806       0.0273384       0.0268617 
        1.74368       0.0267331       0.0262971 
        1.75933       0.0261902       0.0257477 
        1.77505       0.0256889       0.0252116 
        1.79081       0.0251278       0.0246898 
         1.8065       0.0246481       0.0241851 
        1.82218       0.0241042       0.0236951 
        1.83797       0.0236534       0.0232153 
        1.85367        0.023165       0.0227516 
        1.86928       0.0226576       0.0223034 
        1.88497       0.0222612       0.0218648 
        1.90073       0.0217821       0.0214365 
        1.91647       0.0214762       0.0210202 
        1.93218       0.0211107       0.0206158 
        1.94787       0.0206231       0.0202227 
        1.96363       0.0202271       0.0198384 
        1.97935       0.0198477       0.0194649 
        1.99499       0.0195236       0.0191032 
        2.01064       0.0191253       0.0187501 
         2.0264       0.0188045       0.0184039 
        2.04216       0.0184967       0.0180666 
        2.05781       0.0181121       0.0177399 
        2.07353       0.0178148       0.0174202 
        2.08928       0.0175005       0.0171077 
        2.10499       0.0172367       0.0168037 
        2.12065       0.0169075       0.0165081 
        2.13633       0.0166188       0.0162194 
        2.15211       0.0163299       0.0159357 
        2.16785       0.0159952       0.0156597 
        2.18349        0.015764        0.015392 
        2.19916       0.0154792       0.0151299 
        2.21489       0.0152241       0.0148732 
        2.23063       0.0150141       0.0146222 
         2.2463       0.0147661       0.0143783 
        2.26194       0.0145292       0.0141405 
        2.27765       0.0142957       0.0139069 
        2.29341       0.0140305       0.0136779 
        2.30914       0.0138127       0.0134547 
        2.32486       0.0135611       0.0132365 
        2.34061       0.0133679       0.0130229 
        2.35635        0.013179       0.0128142 
        2.37203       0.0130126       0.0126108 
        2.38768       0.0128321       0.0124123 
        2.40339       0.0125859       0.0122173 
        2.41914       0.0123884       0.0120261 
        2.43483       0.0122336       0.0118397 
         2.4505       0.0120135       0.0116576 
        2.46622       0.0118256       0.0114786 
        2.48195       0.0116566       0.0113035 
        2.49759       0.0114945       0.0111329 
        2.51328       0.0112993       0.0109655 
        2.52906       0.0111446       0.0108004 
        2.54479       0.0109939       0.0106394 
        2.56049       0.0108093        0.010482 
        2.57618       0.0106685       0.0103279 
        2.59189       0.0105037       0.0101767 
        2.60758        0.010393       0.0100287 
        2.62325       0.0102064      0.00988395 
        2.63898       0.0100914      0.00974152 
        2.65468      0.00992888       0.0096022 
        2.67044      0.00978255      0.00946503 
        2.68618      0.00964512      0.00933086 
        2.70184      0.00955792      0.00919985 
        2.71755      0.00940742      0.00907103 
        2.73329      0.00930449      0.00894449 
        2.74897      0.00914062      0.00882078 
        2.76462      0.00902597       0.0086997 
        2.78034      0.00891677      0.00858041 
        2.79607      0.00879446      0.00846323 
        2.81179      0.00867811      0.00834838 
        2.82749      0.00857477       0.0082358 
        2.84321      0.00845339      0.00812518 
        2.85893      0.00835091      0.00801664 
        2.87462      0.00824095      0.00791027 
        2.89033      0.00812736      0.00780574 
        2.90605      0.00801639      0.00770301 
        2.92176       0.0079221       0.0076022 
        2.93747      0.00782569      0.00750324 
        2.95318      0.00771927      0.00740604 
        2.96891      0.00761925      0.00731052 
        2.98456      0.00752582      0.00721711 
        3.00023      0.00746132       0.0071252 
        3.01596      0.00734445      0.00703462 
        3.03164      0.00725393      0.00694587 
        3.04738      0.00717629      0.00685841 
         3.0631      0.00706915      0.00677248 
        3.07883      0.00701022      0.00668803 
        3.09456      0.00691205      0.00660503 
        3.11026      0.00681495      0.00652358 
        3.12596      0.00676002      0.00644351 
        3.14163      0.00667654      0.00636498 
        3.15734      0.00661262      0.00628758 
        3.17308      0.00653679      0.00621129 
        3.18879      0.00643459      0.00613647 
        3.20447      0.00638129        0.006063 
         3.2202      0.00629393      0.00599051 
         3.2359      0.00623101      0.00591934 
        3.25157      0.00615136      0.00584949 
        3.26729      0.00607998      0.00578057 
        3.28304      0.00602823      0.00571263 
        3.29877       0.0059519      0.00564587 
        3.31446       0.0058771      0.00558033 
        3.33014      0.00581386      0.00551588 
        3.34585      0.00576816      0.00545237 
        3.36158      0.00570289      0.00538976 
        3.37727      0.00562598      0.00532833 
        3.39294      0.00556435      0.00526792 
        3.40867       0.0055134      0.00520823 
        3.42439      0.00545172      0.00514951 
        3.44008      0.00539362       0.0050918 
        3.45578      0.00533625      0.00503494 
        3.47153       0.0052776      0.00497883 
        3.48724      0.00521716      0.00492367 
        3.50292      0.00517392      0.00486948 
        3.51859      0.00513998      0.00481614 
        3.53431      0.00507187      0.00476343 
        3.55007      0.00501272      0.00471138 
        3.56577       0.0049619      0.00466032 
        3.58146      0.00491565      0.00461004 
        3.59719      0.00487736      0.00456039 
        3.61292      0.00481824      0.00451149 
        3.62859      0.00475498      0.00446349 
        3.64429      0.00472862       0.0044161 
        3.66003      0.00467976      0.00436926 
        3.67578       0.0046307      0.00432312 
        3.69146      0.00459795      0.00427781 
        3.70712      0.00453981      0.00423325 
        3.72284      0.00450005      0.00418915 
        3.73853      0.00444739      0.00414576 
        3.75422      0.00441715      0.00410297 
        3.76993      0.00437634      0.00406075 
        3.78564       0.0043413      0.00401915 
        3.80137      0.00429264      0.00397806 
        3.81707      0.00424699      0.00393763 
        3.83279      0.00420527      0.00389773 
        3.84853      0.00417562      0.00385833 
        3.86424      0.00413508      0.00381954 
        3.87992      0.00410123      0.00378135 
        3.89561      0.00406405      0.00374369 
        3.91134      0.00402739      0.00370646 
        3.92704      0.00400118      0.00366978 
        3.94273      0.00395681      0.00363363 
        3.95845      0.00393667      0.00359791 
        3.97418      0.00389192      0.00356266 
        3.98988      0.00385371      0.00352793 
        4.00554      0.00382203      0.00349376 
        4.02125      0.00378439      0.00345995 
        4.03698      0.00373093      0.00342654 
        4.05268      0.00370199      0.00339364 
        4.06839      0.00367135      0.00336115 
         4.0841      0.00363722       0.0033291 
        4.09983      0.00361314      0.00329742 
        4.11555       0.0035687      0.00326617 
        4.13124      0.00355171      0.00323541 
        4.14693      0.00351911      0.00320502 
        4.16266      0.00349813      0.00317496 
        4.17839       0.0034763       0.0031453 
        4.19408      0.00343796      0.00311608 
        4.20977      0.00341455      0.00308723 
        4.22551      0.00338926      0.00305867 
        4.24123      0.00337213       0.0030305 
        4.25691      0.00335757      0.00300277 
        4.27259      0.00332963      0.00297538 
        4.28831      0.00331115      0.00294827 
        4.30404      0.00328697      0.00292148 
        4.31974      0.00327973      0.00289508 
        4.33543      0.00325346      0.00286902 
        4.35116      0.00323577      0.00284322 
        4.36688      0.00321745      0.00281775 
        4.38255      0.00320916      0.00279269 
        4.39825      0.00319935      0.00276787 
        4.41398       0.0031839      0.00274332 
         4.4297      0.00316452      0.00271908 
        4.44541      0.00315664      0.00269515 
        4.46111      0.00314491      0.00267152 
        4.47683      0.00313784      0.00264816 
        4.49251      0.00312359      0.00262512 
        4.50819      0.00311732      0.00260237 
         4.5239      0.00311012      0.00257985 
        4.53962      0.00310829      0.00255758 
        4.55535      0.00309826      0.00253555 
        4.57106       0.0031043      0.00251382 
        4.58678      0.00309472      0.00249234 
         4.6025      0.00309641      0.00247111 
        4.61821        0.003089      0.00245013 
        4.63391      0.00309584      0.00242942 
         4.6496      0.00307967      0.00240895 
        4.66532      0.00309732       0.0023887 
        4.68103      0.00308976      0.00236868 
        4.69673      0.00309515      0.00234892 
        4.71241      0.00310606       0.0023294 
        4.72811      0.00310508      0.00231007 
        4.74384      0.00311445      0.00229093 
        4.75955      0.00313301      0.00227205 
        4.77525      0.00314112      0.00225338 
        4.79096      0.00314685      0.00223491 
        4.80669      0.00315115      0.00221663 
         4.8224      0.00316554      0.00219858 
        4.83809      0.00317432      0.00218075 
        4.85379      0.00319308       0.0021631 
         4.8695      0.00321703      0.00214564 
        4.88521      0.00323181      0.00212838 
        4.90093      0.00324534      0.00211131 
        4.91663      0.00326884      0.00209444 
        4.93234      0.00328943      0.00207773 
        4.94807      0.00330543       0.0020612 
        4.96377      0.00332026      0.00204488 
        4.97943      0.00335797      0.00202877 
        4.99514      0.00336719       0.0020128 
        5.01086      0.00340597      0.00199698 
        5.02654      0.00344176      0.00198138 
        5.04227      0.00346174      0.00196589 
          5.058      0.00349604      0.00195057 
        5.07371      0.00351888      0.00193544 
        5.08942      0.00357709      0.00192047 
        5.10513      0.00359344      0.00190565 
        5.12084      0.00363379      0.00189099 
        5.13656      0.00367611      0.00187648 
        5.15225      0.00371682      0.00186215 
        5.16796      0.00377154      0.00184794 
        5.18369      0.00379175      0.00183388 
         5.1994      0.00386484      0.00181998 
        5.21509      0.00388387      0.00180624 
        5.23079      0.00393246      0.00179263 
        5.24649      0.00399525      0.00177917 
        5.26217      0.00404568      0.00176586 
        5.27788      0.00409171      0.00175266 
        5.29359      0.00414363       0.0017396 
        5.30933      0.00421298      0.00172665 
        5.32504      0.00425034      0.00171386 
        5.34073      0.00433081      0.00170121 
        5.35646      0.00439036      0.00168866 
        5.37218      0.00445944      0.00167624 
        5.38789      0.00453258      0.00166396 
        5.40357      0.00457362      0.00165182 
        5.41929      0.00466432      0.00163977 
        5.43502      0.00475114      0.00162785 
         5.4507      0.00482436      0.00161607 
        5.46639      0.00486696       0.0016044 
        5.48212      0.00496731      0.00159283 
        5.49786      0.00506882      0.00158135 
        5.51353      0.00515852      0.00157005 
        5.52921      0.00522563      0.00155884 
        5.54495      0.00536671      0.00154772 
        5.56066      0.00545093      0.00153671 
        5.57637      0.00553882      0.00152581 
        5.59207      0.00564085      0.00151503 
        5.60778      0.00572388      0.00150435 
        5.62346      0.00582175      0.00149378 
        5.63916      0.00595732      0.00148331 
        5.65487      0.00609303      0.00147293 
         5.6706      0.00619208      0.00146264 
        5.68633      0.00631082      0.00145245 
        5.70203      0.00647197      0.00144237 
        5.71773      0.00650889      0.00143239 
        5.73344      0.00667506       0.0014225 
        5.74916      0.00687227       0.0014127 
        5.76486      0.00696663        0.001403 
        5.78054      0.00710334       0.0013934 
        5.79626       0.0072566      0.00138388 
          5.812      0.00742479      0.00137443 
         5.8277      0.00756458      0.00136509 
        5.84339      0.00774309      0.00135584 
        5.85911      0.00793679      0.00134667 
        5.87484      0.00808885      0.00133757 
        5.89053      0.00829831      0.00132858 
        5.90623      0.00846675      0.00131967 
        5.92195      0.00865537      0.00131083 
        5.93767      0.00884975      0.00130207 
        5.95336      0.00905486      0.00129341 
        5.96905      0.00930157      0.00128483 
        5.98476      0.00949448      0.00127631 
        6.00048      0.00976604      0.00126787 
        6.01617      0.00994809      0.00125952 
        6.03185       0.0101546      0.00125125 
        6.04756       0.0104308      0.00124304 
        6.06331       0.0106419      0.00123488 
        6.07903        0.010944      0.00122682 
        6.09473       0.0112256      0.00121883 
        6.11044       0.0115519      0.00121091 
        6.12616       0.0118028      0.00120306 
        6.14186       0.0120037      0.00119529 
        6.15755       0.0124364      0.00118758 
        6.17326       0.0126609      0.00117994 
        6.18898       0.0130123      0.00117236 
        6.20467       0.0133479      0.00116487 
        6.22036        0.013646      0.00115744 
         6.2361       0.0139286      0.00115005 
         6.2518        0.014376      0.00114274 
        6.26748       0.0146765      0.00113551 
        6.28319       0.0151807      0.00112833 
        6.29893       0.0155732       0.0011212 
        6.31463       0.0159047      0.00111414 
        6.33033       0.0163434      0.00110715 
        6.34604        0.016744      0.00110021 
        6.36177       0.0171473      0.00109332 
        6.37747       0.0178124      0.00108651 
