# k  (h/Mpc)    Pcb(k)  (Mpc/h)^3    Pcb_linear(k) (Mpc/h)^3   ShotnoiseSubtracted = true
      0.0200456         19315.4         19796.5 
      0.0350414         14548.2         15265.2 
      0.0492313         11320.5         11618.8 
      0.0637834         9910.56          9807.5 
      0.0800726         7832.79         7796.72 
       0.096163         5544.86         5801.62 
       0.111083         4545.98          4771.1 
       0.126058          4203.9         4236.64 
       0.142273         3606.46         3542.67 
       0.158546         3181.66         2842.32 
        0.17375         2581.48         2461.38 
       0.188953         2524.71         2229.25 
       0.204907         2368.66         1945.14 
       0.220756         2062.62         1658.06 
        0.23588         1845.31         1472.55 
         0.2514         1613.73         1343.79 
       0.267535         1617.04         1203.82 
       0.283568         1468.36          1063.7 
       0.299022         1388.79         960.857 
       0.314451         1326.05         883.197 
       0.330372         1219.67         806.279 
       0.346141         1168.33          731.63 
       0.361624         1122.25         670.111 
       0.377134         1044.64         619.981 
       0.392932         1007.79         573.078 
       0.408854         985.849          528.05 
       0.424564         915.394         488.706 
       0.440253         897.884         454.957 
       0.455999         867.508         424.267 
       0.471626         831.933         395.734 
        0.48727         800.724         369.755 
       0.502856         777.684         346.666 
       0.518488          769.01         325.593 
       0.534347          721.57         305.775 
       0.550082         702.541         287.652 
       0.565732         700.072         271.231 
       0.581496         662.131         256.046 
       0.597222         649.064         242.002 
       0.612804         635.318         229.093 
       0.628434         617.037         217.116 
       0.644267         600.032         205.899 
       0.660051         581.306         195.514 
       0.675724         576.738         185.907 
       0.691403         556.965         176.941 
       0.707174         539.347          168.52 
       0.722871         532.445         160.683 
        0.73838         521.869         153.432 
       0.754018         509.846         146.575 
       0.769845         498.921         140.065 
        0.78569         490.209         133.946 
       0.801365         477.174         128.256 
       0.817031         463.989         122.903 
       0.832809         459.772         117.825 
       0.848511         449.021         113.059 
       0.864097         435.605         108.592 
       0.879701         429.542         104.364 
       0.895507           426.5         100.313 
       0.911279         413.101         96.4874 
        0.92691          406.76          92.895 
       0.942635         396.925         89.4672 
       0.958396         386.035         86.2067 
       0.974128         380.156         83.1159 
       0.989692         376.142         80.2086 
        1.00528         366.999         77.4372 
        1.02113         364.792         74.7543 
        1.03692         353.211         72.2096 
        1.05264         350.393         69.7959 
        1.06832         340.972         67.4972 
        1.08405          336.23         65.2968 
        1.09979         330.438          63.194 
        1.11537         322.969         61.2053 
        1.13105         317.341          59.291 
        1.14679         311.475         57.4519 
        1.16256         303.133         55.6877 
        1.17828         302.668         54.0041 
        1.19395         295.039         52.3962 
         1.2097         291.133         50.8461 
        1.22537         283.739         49.3667 
          1.241         281.997         47.9511 
        1.25666         275.828         46.5878 
        1.27241         272.012         45.2715 
        1.28819         267.314         44.0043 
        1.30392          260.89         42.7896 
        1.31957         260.093         41.6265 
        1.33529         254.627         40.5027 
        1.35108         249.164         39.4162 
        1.36674         245.282         38.3777 
         1.3824         243.476         37.3777 
        1.39811         239.407         36.4103 
        1.41389         236.366         35.4737 
        1.42964         233.213         34.5719 
        1.44531         228.851          33.706 
        1.46101         225.239         32.8681 
        1.47667         221.985         32.0614 
        1.49229         219.071         31.2842 
        1.50793         214.197          30.532 
        1.52367          211.75         29.7998 
        1.53953         208.338         29.0869 
        1.55526         203.391         28.4031 
        1.57092         202.464         27.7443 
        1.58662         199.643          27.105 
        1.60235         195.677         26.4847 
        1.61809         193.512         25.8836 
        1.63369         190.584         25.3066 
        1.64941         186.728         24.7432 
        1.66519         184.988         24.1951 
        1.68085         182.782         23.6675 
        1.69652         179.017         23.1556 
        1.71228         175.564          22.656 
        1.72806         173.682         22.1709 
        1.74368         170.867         21.7049 
        1.75933          167.91         21.2514 
        1.77505          166.58         20.8089 
        1.79081         164.583         20.3783 
         1.8065         161.717         19.9617 
        1.82218         159.214         19.5572 
        1.83797         158.008         19.1613 
        1.85367         154.916         18.7785 
        1.86928         152.333         18.4086 
        1.88497         150.243         18.0466 
        1.90073         148.902         17.6931 
        1.91647         147.068         17.3495 
        1.93218         144.961         17.0157 
        1.94787         142.212         16.6913 
        1.96363         139.697          16.374 
        1.97935         139.195         16.0658 
        1.99499         136.347         15.7672 
        2.01064          135.08         15.4758 
         2.0264         133.301           15.19 
        2.04216         131.342         14.9116 
        2.05781         129.665          14.642 
        2.07353         127.952         14.3781 
        2.08928          125.82         14.1202 
        2.10499         124.045         13.8693 
        2.12065         122.253         13.6253 
        2.13633         121.766          13.387 
        2.15211         118.775         13.1529 
        2.16785         117.317         12.9251 
        2.18349         116.343         12.7041 
        2.19916         114.548         12.4878 
        2.21489         113.409         12.2759 
        2.23063         111.395         12.0688 
         2.2463         109.519         11.8674 
        2.26194         108.189         11.6711 
        2.27765         107.375         11.4783 
        2.29341         105.784         11.2894 
        2.30914         104.628         11.1051 
        2.32486         103.093         10.9251 
        2.34061         101.523         10.7487 
        2.35635         100.362         10.5765 
        2.37203         99.3031         10.4086 
        2.38768         97.6387         10.2447 
        2.40339         96.6344         10.0838 
        2.41914         95.5343         9.92601 
        2.43483         94.2134         9.77215 
         2.4505         93.3334         9.62182 
        2.46622         91.9431         9.47414 
        2.48195         90.8241         9.32958 
        2.49759         89.5759         9.18881 
        2.51328         88.7687         9.05059 
        2.52906         87.3592         8.91436 
        2.54479         86.5161         8.78145 
        2.56049         85.4735         8.65152 
        2.57618         84.1953         8.52434 
        2.59189         83.4744         8.39954 
        2.60758         82.5015         8.27744 
        2.62325         81.1479         8.15793 
        2.63898         79.9785         8.04037 
        2.65468         79.5265         7.92539 
        2.67044         78.2484         7.81217 
        2.68618         77.2366         7.70143 
        2.70184         76.9228         7.59329 
        2.71755         75.7657         7.48697 
        2.73329         74.7135         7.38253 
        2.74897         73.9436         7.28043 
        2.76462          72.865         7.18049 
        2.78034         72.3721         7.08202 
        2.79607         71.0913         6.98531 
        2.81179         70.4007         6.89052 
        2.82749         69.4792          6.7976 
        2.84321         69.0133          6.7063 
        2.85893         68.0157         6.61671 
        2.87462         67.1384         6.52891 
        2.89033         66.2933         6.44263 
        2.90605         65.4078         6.35785 
        2.92176         64.8054         6.27464 
        2.93747         64.2501         6.19297 
        2.95318           63.28         6.11273 
        2.96891         62.7115         6.03389 
        2.98456         61.9883          5.9568 
        3.00023         61.3084         5.88094 
        3.01596         60.6141         5.80617 
        3.03164         59.8926         5.73293 
        3.04738         59.2627         5.66073 
         3.0631         58.5823         5.58981 
        3.07883         57.9289         5.52011 
        3.09456         57.4663         5.45161 
        3.11026         56.6611         5.38438 
        3.12596         55.9775         5.31829 
        3.14163         55.3386         5.25348 
        3.15734         54.7233         5.18959 
        3.17308         54.3058         5.12662 
        3.18879         53.6181         5.06487 
        3.20447         52.8672         5.00423 
         3.2202         52.6128          4.9444 
         3.2359         51.7602         4.88565 
        3.25157         51.3214         4.82801 
        3.26729         50.8154         4.77112 
        3.28304         50.3858         4.71504 
        3.29877         49.6682         4.65994 
        3.31446         49.1506         4.60584 
        3.33014         48.7388         4.55266 
        3.34585         48.0058         4.50023 
        3.36158         47.6651         4.44855 
        3.37727         47.1972         4.39785 
        3.39294         46.6092         4.34799 
        3.40867         46.2926         4.29873 
        3.42439         45.7304         4.25026 
        3.44008         45.2071         4.20263 
        3.45578         44.5968          4.1557 
        3.47153         44.3081         4.10939 
        3.48724         43.8443         4.06386 
        3.50292         43.4851         4.01913 
        3.51859         43.0926          3.9751 
        3.53431         42.6017          3.9316 
        3.55007         42.0614         3.88864 
        3.56577         41.9071          3.8465 
        3.58146         41.2512           3.805 
        3.59719         40.8396         3.76402 
        3.61292         40.4225         3.72366 
        3.62859         39.9776         3.68404 
        3.64429         39.7114         3.64493 
        3.66003         39.2194         3.60626 
        3.67578         38.8209         3.56818 
        3.69146         38.5228         3.53079 
        3.70712         38.0439           3.494 
        3.72284         37.6085         3.45761 
        3.73853         37.2726         3.42179 
        3.75422         36.8608         3.38648 
        3.76993         36.5161         3.35163 
        3.78564         36.2037         3.31729 
        3.80137           35.88         3.28338 
        3.81707         35.5617         3.25001 
        3.83279         35.1987         3.21708 
        3.84853         34.8214         3.18455 
        3.86424         34.5246         3.15254 
        3.87992         34.2204         3.12102 
        3.89561         33.9251         3.08993 
        3.91134          33.489          3.0592 
        3.92704         33.2515         3.02893 
        3.94273         32.9179          2.9991 
        3.95845         32.6445         2.96961 
        3.97418         32.3955         2.94052 
        3.98988         31.9873         2.91185 
        4.00554         31.7341         2.88365 
        4.02125         31.4472         2.85575 
        4.03698         31.1593         2.82817 
        4.05268         30.8666         2.80101 
        4.06839         30.5913          2.7742 
         4.0841         30.2974         2.74774 
        4.09983         30.0629          2.7216 
        4.11555         29.7331          2.6958 
        4.13124         29.4973         2.67042 
        4.14693         29.1954         2.64534 
        4.16266         28.9412         2.62052 
        4.17839         28.6912         2.59604 
        4.19408         28.3694         2.57193 
        4.20977         28.1362         2.54811 
        4.22551         27.9464         2.52454 
        4.24123         27.6417         2.50129 
        4.25691         27.4034          2.4784 
        4.27259         27.1306         2.45579 
        4.28831         26.9097         2.43342 
        4.30404         26.6404         2.41131 
        4.31974         26.3824         2.38952 
        4.33543         26.1915         2.36801 
        4.35116         25.9426         2.34671 
        4.36688         25.7674         2.32569 
        4.38255         25.4927           2.305 
        4.39825         25.2994         2.28453 
        4.41398         25.0736         2.26426 
         4.4297         24.7943         2.24425 
        4.44541         24.5986          2.2245 
        4.46111         24.3738         2.20499 
        4.47683         24.2383         2.18571 
        4.49251         23.9822          2.1667 
        4.50819         23.7942         2.14792 
         4.5239          23.631         2.12934 
        4.53962         23.4296         2.11095 
        4.55535         23.2443         2.09278 
        4.57106         22.9448         2.07484 
        4.58678         22.8577         2.05711 
         4.6025         22.6879         2.03958 
        4.61821         22.4702         2.02227 
        4.63391         22.2262         2.00517 
         4.6496          22.039         1.98828 
        4.66532          21.829         1.97156 
        4.68103         21.6891         1.95504 
        4.69673          21.554         1.93873 
        4.71241          21.345         1.92262 
        4.72811         21.1372         1.90666 
        4.74384         20.9757         1.89087 
        4.75955         20.8375         1.87528 
        4.77525          20.585         1.85988 
        4.79096         20.4931         1.84463 
        4.80669         20.3293         1.82954 
         4.8224         20.1852         1.81464 
        4.83809          19.944         1.79993 
        4.85379         19.7557         1.78536 
         4.8695         19.6393         1.77095 
        4.88521         19.4868         1.75671 
        4.90093         19.2887         1.74261 
        4.91663         19.1582         1.72869 
        4.93234         19.0004          1.7149 
        4.94807         18.8418         1.70126 
        4.96377         18.7192         1.68779 
        4.97943         18.5677         1.67449 
        4.99514         18.3748         1.66131 
        5.01086         18.2568         1.64825 
        5.02654         18.1167         1.63537 
        5.04227         18.0057         1.62259 
          5.058         17.7842         1.60994 
        5.07371         17.7058         1.59746 
        5.08942          17.543          1.5851 
        5.10513         17.4266         1.57287 
        5.12084         17.2399         1.56077 
        5.13656         17.1517         1.54879 
        5.15225         17.0091         1.53696 
        5.16796         16.8602         1.52524 
        5.18369          16.737         1.51363 
         5.1994         16.6131         1.50216 
        5.21509         16.4789         1.49082 
        5.23079          16.355         1.47959 
        5.24649         16.2036         1.46848 
        5.26217         16.1117         1.45749 
        5.27788         15.9842          1.4466 
        5.29359         15.8329         1.43581 
        5.30933         15.7223         1.42513 
        5.32504         15.6048         1.41457 
        5.34073         15.5156         1.40413 
        5.35646         15.3766         1.39377 
        5.37218         15.2646         1.38352 
        5.38789         15.1315         1.37338 
        5.40357         15.0245         1.36336 
        5.41929         14.9237         1.35342 
        5.43502          14.785         1.34358 
         5.4507         14.7208         1.33386 
        5.46639         14.5762         1.32423 
        5.48212         14.4457         1.31468 
        5.49786         14.3357          1.3052 
        5.51353         14.2521         1.29587 
        5.52921         14.1759         1.28663 
        5.54495          14.058         1.27744 
        5.56066         13.9162         1.26836 
        5.57637         13.8413         1.25936 
        5.59207         13.7192         1.25046 
        5.60778         13.6171         1.24164 
        5.62346         13.5345         1.23292 
        5.63916         13.4474         1.22428 
        5.65487          13.327         1.21572 
         5.6706         13.2346         1.20722 
        5.68633         13.1551         1.19881 
        5.70203         13.0696         1.19049 
        5.71773         12.9606         1.18226 
        5.73344          12.896         1.17409 
        5.74916         12.7699           1.166 
        5.76486         12.6872         1.15799 
        5.78054          12.598         1.15008 
        5.79626         12.4994         1.14221 
          5.812         12.3946         1.13441 
         5.8277         12.3105         1.12671 
        5.84339         12.2129         1.11908 
        5.85911         12.1326          1.1115 
        5.87484         12.0613           1.104 
        5.89053         11.9862         1.09658 
        5.90623          11.882         1.08922 
        5.92195         11.7933         1.08192 
        5.93767         11.6995         1.07469 
        5.95336         11.6397         1.06754 
        5.96905         11.5565         1.06046 
        5.98476          11.462         1.05343 
        6.00048         11.3827         1.04646 
        6.01617         11.3262         1.03957 
        6.03185          11.238         1.03275 
        6.04756         11.1551         1.02597 
        6.06331         11.0791         1.01924 
        6.07903         10.9805         1.01258 
        6.09473         10.9216         1.00599 
        6.11044         10.8371        0.999449 
        6.12616         10.7677         0.99297 
        6.14186         10.7089        0.986555 
        6.15755         10.6068        0.980197 
        6.17326         10.5523         0.97389 
        6.18898         10.4727        0.967636 
        6.20467          10.391        0.961448 
        6.22036         10.3095        0.955315 
         6.2361         10.2726        0.949219 
         6.2518         10.1831        0.943187 
        6.26748         10.1261         0.93722 
        6.28319         10.0351        0.931288 
        6.29893          9.9806        0.925403 
        6.31463         9.91663        0.919579 
        6.33033         9.85735        0.913807 
        6.34604         9.79674        0.908081 
        6.36177            9.72        0.902398 
        6.37747         9.65532        0.896775 
