# k  (h/Mpc)    Pcb(k)  (Mpc/h)^3    Pcb_linear(k) (Mpc/h)^3   ShotnoiseSubtracted = true
      0.0200456         17264.4         17544.4 
      0.0350414         11665.1         11238.6 
      0.0492313          7458.4         7512.02 
      0.0637834         6025.38          6242.9 
      0.0800726         4741.54         4978.38 
       0.096163          3594.3         3399.15 
       0.111083         2809.08         2593.29 
       0.126058         2360.76         2349.08 
       0.142273         2070.42         2027.99 
       0.158546         1658.72         1543.93 
        0.17375         1429.86         1256.73 
       0.188953         1342.56         1151.49 
       0.204907         1151.99         1040.75 
       0.220756         1030.09         867.491 
        0.23588         906.919         734.768 
         0.2514         808.976         667.077 
       0.267535         786.182         613.143 
       0.283568         687.561         539.321 
       0.299022         652.716          472.76 
       0.314451          667.08         429.661 
       0.330372         571.889         397.115 
       0.346141         526.951         361.257 
       0.361624          502.78         325.809 
       0.377134         474.352         297.934 
       0.392932         454.566         276.178 
       0.408854         434.019         255.216 
       0.424564          419.91         234.583 
       0.440253         380.947         216.554 
       0.455999         363.281         201.607 
       0.471626         367.714          188.24 
        0.48727         345.767         175.355 
       0.502856         321.295         163.555 
       0.518488          319.01         153.183 
       0.534347          299.07         143.748 
       0.550082         286.428          135.01 
       0.565732         284.993         126.901 
       0.581496         272.888         119.487 
       0.597222         264.685         112.766 
       0.612804         256.553         106.603 
       0.628434         247.712         100.833 
       0.644267          236.95         95.4164 
       0.660051         234.034         90.4486 
       0.675724         228.726         85.8777 
       0.691403         224.003         81.6177 
       0.707174         215.286         77.6214 
       0.722871         211.597         73.9075 
        0.73838         208.561         70.4755 
       0.754018          199.68         67.2352 
       0.769845         199.517         64.1631 
        0.78569         193.198         61.2803 
       0.801365         187.131         58.6033 
       0.817031         185.121          56.089 
       0.832809         180.809         53.7072 
       0.848511         176.436         51.4757 
       0.864097         171.578         49.3875 
       0.879701         170.961         47.4141 
       0.895507         166.981         45.5262 
       0.911279         162.279         43.7458 
        0.92691         159.354         42.0761 
       0.942635         157.607         40.4851 
       0.958396         154.021         38.9736 
       0.974128         151.746         37.5425 
       0.989692         146.419         36.1979 
        1.00528         145.999         34.9177 
        1.02113         143.077         33.6797 
        1.03692         140.094         32.5066 
        1.05264         137.639         31.3951 
        1.06832         136.891         30.3376 
        1.08405         133.228         29.3263 
        1.09979         131.986         28.3608 
        1.11537         129.962         27.4485 
        1.13105         127.451         26.5712 
        1.14679         125.965          25.729 
        1.16256         123.314         24.9219 
        1.17828         122.149         24.1523 
        1.19395         119.398          23.418 
         1.2097         118.254         22.7106 
        1.22537         117.043          22.036 
          1.241         113.942         21.3911 
        1.25666         112.799         20.7704 
        1.27241         110.218         20.1717 
        1.28819         109.297         19.5957 
        1.30392         107.911         19.0439 
        1.31957         105.648          18.516 
        1.33529         104.024         18.0063 
        1.35108         103.056         17.5139 
        1.36674         101.265         17.0435 
         1.3824         100.473         16.5909 
        1.39811         98.7577         16.1533 
        1.41389         97.0939         15.7299 
        1.42964         95.4128         15.3225 
        1.44531         94.6991         14.9316 
        1.46101         92.8246         14.5536 
        1.47667         92.4945         14.1898 
        1.49229         91.4014         13.8395 
        1.50793         89.6691         13.5007 
        1.52367         88.4288         13.1711 
        1.53953         87.5767         12.8504 
        1.55526         86.4093          12.543 
        1.57092         85.7044         12.2469 
        1.58662         84.2577         11.9597 
        1.60235         83.1781         11.6812 
        1.61809         82.2877         11.4115 
        1.63369           80.81         11.1528 
        1.64941         80.7657         10.9002 
        1.66519         79.2433         10.6546 
        1.68085         77.7769         10.4184 
        1.69652         76.9436         10.1892 
        1.71228         75.8949         9.96573 
        1.72806         75.5429         9.74878 
        1.74368          74.038         9.54049 
        1.75933         73.5079         9.33789 
        1.77505         72.6862         9.14026 
        1.79081         71.4321         8.94802 
         1.8065         70.5851         8.76216 
        1.82218         69.8668         8.58176 
        1.83797         69.3789         8.40523 
        1.85367         68.0302         8.23466 
        1.86928         67.4722         8.06987 
        1.88497         66.5656          7.9087 
        1.90073         65.9047         7.75136 
        1.91647         65.0627         7.59846 
        1.93218         64.1503         7.45002 
        1.94787         63.2505         7.30579 
        1.96363         62.5511         7.16482 
        1.97935         62.0843         7.02787 
        1.99499         61.3972         6.89529 
        2.01064         60.3843         6.76595 
         2.0264         59.7258         6.63913 
        2.04216         58.8927         6.51563 
        2.05781         58.2795         6.39607 
        2.07353         57.6634         6.27909 
        2.08928         57.0795          6.1648 
        2.10499         56.2018         6.05366 
        2.12065         55.9365         5.94561 
        2.13633         55.0476         5.84012 
        2.15211         54.3469         5.73651 
        2.16785         53.4714         5.63571 
        2.18349         53.1289         5.53798 
        2.19916         52.5211         5.44237 
        2.21489         51.8186         5.34871 
        2.23063         51.1296         5.25719 
         2.2463         50.8084         5.16824 
        2.26194         50.4053         5.08157 
        2.27765         49.5823         4.99645 
        2.29341         49.1254         4.91307 
        2.30914          48.401         4.83177 
        2.32486         47.9524         4.75236 
        2.34061         47.3246         4.67461 
        2.35635         46.9427         4.59867 
        2.37203          46.165         4.52469 
        2.38768         45.9051          4.4525 
        2.40339         45.3993         4.38162 
        2.41914         44.5771         4.31213 
        2.43483         44.4131         4.24439 
         2.4505         44.0123         4.17823 
        2.46622         43.3551         4.11325 
        2.48195         42.8531         4.04966 
        2.49759          42.441         3.98776 
        2.51328         42.0126         3.92699 
        2.52906         41.5832         3.86711 
        2.54479         41.1198          3.8087 
        2.56049         40.3225         3.75162 
        2.57618         40.1107         3.69576 
        2.59189         39.7969         3.64096 
        2.60758         39.2364         3.58735 
        2.62325         38.9094          3.5349 
        2.63898         38.5544         3.48331 
        2.65468         38.1514         3.43287 
        2.67044         37.7721         3.38321 
        2.68618         37.4078         3.33465 
        2.70184         36.8074         3.28724 
        2.71755          36.415         3.24064 
        2.73329         36.1389         3.19487 
        2.74897         35.8655         3.15014 
        2.76462         35.4797         3.10636 
        2.78034         35.0459         3.06324 
        2.79607         34.5007          3.0209 
        2.81179         34.1908          2.9794 
        2.82749         33.9376         2.93874 
        2.84321         33.6219         2.89879 
        2.85893         33.1364         2.85959 
        2.87462         32.7373         2.82119 
        2.89033         32.4216         2.78347 
        2.90605         32.1478          2.7464 
        2.92176         31.8562         2.71002 
        2.93747         31.5413         2.67433 
        2.95318         31.2058         2.63927 
        2.96891         30.8357         2.60483 
        2.98456         30.6535         2.57116 
        3.00023         30.3052         2.53803 
        3.01596         29.9619         2.50539 
        3.03164         29.6572         2.47341 
        3.04738         29.3017         2.44191 
         3.0631          29.157         2.41096 
        3.07883         28.7866         2.38055 
        3.09456         28.4583         2.35067 
        3.11026          28.031         2.32135 
        3.12596         27.9072         2.29253 
        3.14163          27.654         2.26427 
        3.15734         27.3852         2.23643 
        3.17308         27.1435         2.20898 
        3.18879         26.8152         2.18207 
        3.20447         26.4458         2.15565 
         3.2202           26.28         2.12959 
         3.2359         26.0713         2.10401 
        3.25157         25.7845         2.07891 
        3.26729         25.4715         2.05414 
        3.28304         25.2481         2.02973 
        3.29877          24.974         2.00575 
        3.31446         24.7045         1.98221 
        3.33014         24.5089         1.95906 
        3.34585         24.2595         1.93626 
        3.36158         24.0467         1.91378 
        3.37727         23.8305         1.89173 
        3.39294         23.5662         1.87005 
        3.40867         23.3624         1.84864 
        3.42439         23.1668         1.82757 
        3.44008         22.9495         1.80687 
        3.45578         22.7302         1.78648 
        3.47153           22.54         1.76635 
        3.48724          22.278         1.74658 
        3.50292          22.095         1.72715 
        3.51859         21.8916         1.70803 
        3.53431         21.6175         1.68914 
        3.55007         21.4208         1.67049 
        3.56577         21.2097         1.65219 
        3.58146         20.9592         1.63418 
        3.59719         20.8661          1.6164 
        3.61292          20.672         1.59888 
        3.62859         20.4234          1.5817 
        3.64429         20.2227         1.56473 
        3.66003         20.0704         1.54796 
        3.67578          19.882         1.53144 
        3.69146         19.7182         1.51523 
        3.70712         19.5096         1.49928 
        3.72284         19.3913         1.48351 
        3.73853         19.2332         1.46798 
        3.75422         19.0122         1.45268 
        3.76993         18.8375         1.43758 
        3.78564         18.6122          1.4227 
        3.80137         18.4571         1.40801 
        3.81707         18.2805         1.39356 
        3.83279         18.0848         1.37929 
        3.84853         17.9983         1.36521 
        3.86424         17.8174         1.35135 
        3.87992         17.6247          1.3377 
        3.89561         17.5352         1.32425 
        3.91134          17.337         1.31095 
        3.92704         17.1758         1.29785 
        3.94273         16.9977         1.28494 
        3.95845         16.8703         1.27218 
        3.97418         16.7309         1.25959 
        3.98988          16.552          1.2472 
        4.00554          16.438           1.235 
        4.02125         16.2637         1.22293 
        4.03698         16.0961           1.211 
        4.05268         15.9784         1.19927 
        4.06839           15.82         1.18767 
         4.0841         15.7312         1.17624 
        4.09983         15.5609         1.16494 
        4.11555         15.4188         1.15379 
        4.13124         15.2852         1.14282 
        4.14693         15.1694         1.13199 
        4.16266         15.0539         1.12127 
        4.17839         14.9042         1.11069 
        4.19408         14.7969         1.10028 
        4.20977          14.675         1.08999 
        4.22551         14.5126         1.07982 
        4.24123         14.3896         1.06978 
        4.25691         14.2591          1.0599 
        4.27259         14.1501         1.05014 
        4.28831         14.0393         1.04048 
        4.30404         13.9431         1.03094 
        4.31974         13.7987         1.02153 
        4.33543         13.6917         1.01225 
        4.35116         13.5654         1.00307 
        4.36688         13.4574        0.993998 
        4.38255          13.363        0.985075 
        4.39825         13.2196        0.976243 
        4.41398          13.151        0.967501 
         4.4297         13.0033        0.958877 
        4.44541         12.8887        0.950359 
        4.46111         12.7794        0.941951 
        4.47683         12.6749        0.933639 
        4.49251         12.5964        0.925444 
        4.50819         12.4694         0.91735 
         4.5239         12.3736        0.909342 
        4.53962         12.2659        0.901419 
        4.55535         12.1884        0.893588 
        4.57106         12.0735         0.88586 
        4.58678         11.9712        0.878223 
         4.6025         11.8666        0.870674 
        4.61821         11.7815        0.863215 
        4.63391          11.662        0.855854 
         4.6496         11.5807        0.848581 
        4.66532         11.4904        0.841382 
        4.68103         11.4105         0.83427 
        4.69673         11.3187        0.827247 
        4.71241         11.2204        0.820312 
        4.72811         11.1299        0.813445 
        4.74384         11.0626        0.806648 
        4.75955         10.9324         0.79994 
        4.77525         10.8657        0.793311 
        4.79096         10.7889         0.78675 
        4.80669         10.7007         0.78026 
         4.8224         10.6431        0.773851 
        4.83809         10.5214         0.76752 
        4.85379         10.4792        0.761257 
         4.8695         10.3613        0.755059 
        4.88521         10.3037        0.748932 
        4.90093         10.2226        0.742873 
        4.91663         10.1394        0.736887 
        4.93234         10.0661         0.73096 
        4.94807         9.99613        0.725094 
        4.96377         9.90285        0.719304 
        4.97943         9.81802        0.713589 
        4.99514         9.73296        0.707922 
        5.01086         9.65537        0.702313 
        5.02654         9.60693        0.696778 
        5.04227          9.5223        0.691287 
          5.058         9.43492        0.685853 
        5.07371         9.37732        0.680488 
        5.08942         9.32743         0.67518 
        5.10513         9.24523        0.669928 
        5.12084         9.16526        0.664729 
        5.13656          9.0959        0.659587 
        5.15225         9.03196        0.654507 
        5.16796         8.96954        0.649474 
        5.18369         8.90089        0.644489 
         5.1994         8.81838        0.639565 
        5.21509         8.74641        0.634697 
        5.23079         8.69045        0.629874 
        5.24649         8.62303        0.625106 
        5.26217          8.5615         0.62039 
        5.27788         8.49054        0.615716 
        5.29359         8.44459        0.611089 
        5.30933         8.36551        0.606504 
        5.32504         8.31369        0.601973 
        5.34073         8.24044        0.597494 
        5.35646         8.18381        0.593051 
        5.37218         8.11623        0.588653 
        5.38789         8.07039        0.584306 
        5.40357         8.02303        0.580009 
        5.41929         7.95933        0.575745 
        5.43502         7.91868        0.571524 
         5.4507         7.83396        0.567355 
        5.46639         7.77632        0.563227 
        5.48212         7.72793        0.559131 
        5.49786         7.67312        0.555071 
        5.51353         7.61835        0.551071 
        5.52921           7.583        0.547107 
        5.54495         7.50222         0.54317 
        5.56066         7.46129        0.539277 
        5.57637         7.40612        0.535422 
        5.59207         7.35034        0.531608 
        5.60778         7.29399         0.52783 
        5.62346         7.25247        0.524094 
        5.63916         7.20594        0.520391 
        5.65487         7.15268        0.516722 
         5.6706         7.10307        0.513084 
        5.68633         7.04625        0.509479 
        5.70203         7.00554        0.505917 
        5.71773         6.95517        0.502389 
        5.73344         6.91135        0.498894 
        5.74916         6.84548        0.495428 
        5.76486         6.80507           0.492 
        5.78054         6.76633         0.48861 
        5.79626         6.69603        0.485243 
          5.812          6.6677        0.481904 
         5.8277         6.63866        0.478606 
        5.84339         6.57301        0.475339 
        5.85911         6.53473        0.472096 
        5.87484         6.47742        0.468884 
        5.89053         6.43856        0.465709 
        5.90623           6.407        0.462561 
        5.92195         6.36312        0.459437 
        5.93767         6.31105        0.456344 
        5.95336          6.2757        0.453285 
        5.96905         6.23202        0.450254 
        5.98476         6.19397        0.447248 
        6.00048         6.13957        0.444267 
        6.01617         6.09842        0.441318 
        6.03185          6.0673          0.4384 
        6.04756          6.0254          0.4355 
        6.06331         5.98116        0.432621 
        6.07903           5.935        0.429774 
        6.09473         5.90671        0.426956 
        6.11044         5.87342         0.42416 
        6.12616         5.82567        0.421389 
        6.14186         5.79371        0.418647 
        6.15755         5.76306        0.415928 
        6.17326         5.72858        0.413232 
        6.18898         5.66815        0.410559 
        6.20467         5.64803        0.407914 
        6.22036         5.60493        0.405293 
         6.2361         5.56724        0.402687 
         6.2518         5.53336        0.400109 
        6.26748         5.49266        0.397559 
        6.28319         5.45367        0.395025 
        6.29893         5.42739         0.39251 
        6.31463         5.39656        0.390021 
        6.33033         5.36224        0.387555 
        6.34604         5.32244        0.385109 
        6.36177         5.28943        0.382681 
        6.37747         5.24706        0.380279 
