# k  (h/Mpc)    Pcb(k)  (Mpc/h)^3    Pcb_linear(k) (Mpc/h)^3   ShotnoiseSubtracted = true
      0.0200456         6049.11         6145.88 
      0.0350414         3880.15         3936.94 
      0.0492313         2638.84          2631.5 
      0.0637834         2232.22         2186.92 
      0.0800726         1771.16         1743.95 
       0.096163         1182.66         1190.74 
       0.111083         903.248         908.444 
       0.126058         837.158         822.895 
       0.142273         731.375         710.417 
       0.158546          576.07         540.849 
        0.17375         454.027          440.24 
       0.188953          432.16         403.371 
       0.204907         406.657         364.581 
       0.220756         336.573         303.887 
        0.23588         289.179         257.393 
         0.2514         254.884         233.681 
       0.267535         241.512         214.787 
       0.283568         217.161         188.927 
       0.299022         197.406          165.61 
       0.314451         178.416         150.512 
       0.330372         165.843         139.112 
       0.346141         148.816          126.55 
       0.361624         140.407         114.133 
       0.377134         131.169         104.368 
       0.392932         118.231         96.7466 
       0.408854         113.449         89.4035 
       0.424564         108.072         82.1756 
       0.440253         100.839         75.8601 
       0.455999         94.2795         70.6238 
       0.471626         87.5265         65.9413 
        0.48727         84.1034         61.4279 
       0.502856         79.9952         57.2943 
       0.518488          76.897         53.6609 
       0.534347         73.7929         50.3558 
       0.550082         67.6557         47.2948 
       0.565732          64.233         44.4541 
       0.581496         62.0921          41.857 
       0.597222         59.8735         39.5027 
       0.612804         56.5235         37.3436 
       0.628434         54.9492         35.3225 
       0.644267         53.1363         33.4248 
       0.660051         51.2209         31.6846 
       0.675724         48.8223         30.0834 
       0.691403         47.3096         28.5911 
       0.707174         45.6867         27.1912 
       0.722871         44.2271         25.8902 
        0.73838         42.9524         24.6879 
       0.754018         40.8015         23.5528 
       0.769845          39.841         22.4767 
        0.78569         38.7238         21.4668 
       0.801365         37.2467         20.5291 
       0.817031         36.3266         19.6483 
       0.832809         35.6631         18.8139 
       0.848511         33.6782         18.0322 
       0.864097         33.0751         17.3007 
       0.879701         32.3391         16.6094 
       0.895507         31.7936         15.9481 
       0.911279         30.7171         15.3244 
        0.92691         30.0584         14.7395 
       0.942635         28.8251         14.1821 
       0.958396         28.5818         13.6526 
       0.974128         27.6937         13.1513 
       0.989692         27.2847         12.6803 
        1.00528         26.6378         12.2318 
        1.02113         25.7244         11.7982 
        1.03692         25.1106         11.3872 
        1.05264         24.8812         10.9979 
        1.06832         24.0306         10.6274 
        1.08405         23.6255         10.2732 
        1.09979         23.1667         9.93493 
        1.11537         22.5407         9.61536 
        1.13105         22.3986         9.30802 
        1.14679         22.0106         9.01301 
        1.16256         21.2567         8.73028 
        1.17828          20.983         8.46068 
        1.19395         20.5305         8.20344 
         1.2097         20.3231         7.95564 
        1.22537         19.9531         7.71934 
          1.241         19.4717          7.4934 
        1.25666         18.9911         7.27599 
        1.27241         18.6856         7.06625 
        1.28819         18.2455         6.86446 
        1.30392         18.0827         6.67119 
        1.31957         17.8995         6.48626 
        1.33529         17.6545          6.3077 
        1.35108         17.2339          6.1352 
        1.36674          16.963         5.97042 
         1.3824          16.588         5.81187 
        1.39811         16.4211         5.65859 
        1.41389         16.2348         5.51028 
        1.42964          15.887         5.36756 
        1.44531         15.8286         5.23062 
        1.46101         15.3739         5.09819 
        1.47667         15.1882         4.97076 
        1.49229         15.0206         4.84806 
        1.50793         14.8165         4.72937 
        1.52367         14.6081         4.61392 
        1.53953         14.4444         4.50156 
        1.55526         14.1662         4.39386 
        1.57092         13.9121         4.29015 
        1.58662         13.8223         4.18955 
        1.60235         13.6046           4.092 
        1.61809         13.4301         3.99752 
        1.63369         13.2517         3.90688 
        1.64941         13.0074         3.81841 
        1.66519         12.9282         3.73237 
        1.68085         12.7233         3.64961 
        1.69652         12.5439         3.56934 
        1.71228         12.4301         3.49105 
        1.72806         12.2668         3.41505 
        1.74368         12.0851         3.34208 
        1.75933         11.9669         3.27111 
        1.77505         11.8354         3.20188 
        1.79081         11.6317         3.13454 
         1.8065         11.5751         3.06943 
        1.82218         11.3515         3.00624 
        1.83797         11.1861          2.9444 
        1.85367         11.0849         2.88464 
        1.86928           11.01         2.82692 
        1.88497         10.8308         2.77046 
        1.90073         10.8175         2.71534 
        1.91647         10.6218         2.66178 
        1.93218         10.5359         2.60978 
        1.94787         10.4174         2.55926 
        1.96363         10.3297         2.50987 
        1.97935         10.1854          2.4619 
        1.99499         10.0164         2.41545 
        2.01064         9.95804         2.37015 
         2.0264         9.85129         2.32572 
        2.04216         9.73671         2.28246 
        2.05781         9.58161         2.24058 
        2.07353         9.53692          2.1996 
        2.08928         9.42392         2.15956 
        2.10499         9.33592         2.12063 
        2.12065          9.2058         2.08278 
        2.13633         9.18578         2.04582 
        2.15211            9.03         2.00953 
        2.16785         8.98278         1.97422 
        2.18349           8.929         1.93998 
        2.19916         8.81483         1.90649 
        2.21489         8.71926         1.87368 
        2.23063         8.61492         1.84162 
         2.2463         8.52289         1.81046 
        2.26194         8.44378          1.7801 
        2.27765         8.41021         1.75028 
        2.29341         8.30497         1.72107 
        2.30914         8.17345         1.69259 
        2.32486         8.14112         1.66478 
        2.34061         8.07243         1.63754 
        2.35635         7.97129         1.61094 
        2.37203         7.95307         1.58502 
        2.38768         7.77831         1.55973 
        2.40339         7.74676          1.5349 
        2.41914         7.65937         1.51056 
        2.43483         7.64595         1.48683 
         2.4505          7.5576         1.46366 
        2.46622         7.47249         1.44089 
        2.48195         7.43897         1.41862 
        2.49759          7.3463         1.39693 
        2.51328         7.27233         1.37564 
        2.52906         7.23561         1.35467 
        2.54479         7.15291         1.33421 
        2.56049         7.13402         1.31421 
        2.57618         7.06403         1.29464 
        2.59189         6.96213         1.27545 
        2.60758         6.95423         1.25667 
        2.62325         6.88776         1.23829 
        2.63898         6.78605         1.22022 
        2.65468         6.70867         1.20255 
        2.67044         6.67869         1.18516 
        2.68618         6.61253         1.16815 
        2.70184         6.58885         1.15154 
        2.71755         6.51751         1.13521 
        2.73329         6.43677         1.11918 
        2.74897         6.41618         1.10351 
        2.76462         6.37699         1.08818 
        2.78034         6.28127         1.07307 
        2.79607         6.25741         1.05824 
        2.81179         6.19912          1.0437 
        2.82749         6.17787         1.02946 
        2.84321         6.12236         1.01546 
        2.85893           6.071         1.00173 
        2.87462         6.01833        0.988279 
        2.89033           5.959        0.975063 
        2.90605         5.89793        0.962077 
        2.92176         5.87011        0.949336 
        2.93747         5.83172        0.936832 
        2.95318         5.79396        0.924552 
        2.96891         5.74056        0.912486 
        2.98456         5.66334         0.90069 
        3.00023         5.63525        0.889086 
        3.01596         5.60121        0.877651 
        3.03164         5.57037         0.86645 
        3.04738         5.53464        0.855412 
         3.0631          5.4672        0.844571 
        3.07883         5.43931        0.833918 
        3.09456         5.38866        0.823451 
        3.11026         5.35238         0.81318 
        3.12596         5.31891        0.803086 
        3.14163         5.26639        0.793187 
        3.15734         5.23617        0.783432 
        3.17308         5.18594        0.773818 
        3.18879         5.15253        0.764392 
        3.20447         5.12845        0.755137 
         3.2202         5.06391        0.746007 
         3.2359         5.04436        0.737045 
        3.25157         5.00549        0.728252 
        3.26729         4.98684        0.719576 
        3.28304         4.92923        0.711025 
        3.29877         4.89988        0.702624 
        3.31446         4.86022        0.694377 
        3.33014         4.82902        0.686271 
        3.34585         4.81395        0.678282 
        3.36158         4.75851        0.670408 
        3.37727         4.73982        0.662684 
        3.39294         4.70765         0.65509 
        3.40867         4.66301        0.647587 
        3.42439         4.63279        0.640207 
        3.44008         4.60079        0.632955 
        3.45578         4.56547        0.625812 
        3.47153         4.53073        0.618763 
        3.48724         4.49734        0.611835 
        3.50292         4.47942        0.605029 
        3.51859         4.44604        0.598331 
        3.53431          4.4083        0.591714 
        3.55007         4.38079         0.58518 
        3.56577         4.35572        0.578772 
        3.58146          4.3291        0.572462 
        3.59719         4.29157        0.566232 
        3.61292         4.27294        0.560097 
        3.62859          4.2471        0.554076 
        3.64429          4.2074        0.548133 
        3.66003         4.17047        0.542259 
        3.67578         4.16153        0.536473 
        3.69146         4.10779        0.530793 
        3.70712         4.09911        0.525207 
        3.72284         4.06364         0.51968 
        3.73853         4.03746        0.514242 
        3.75422         4.00932        0.508881 
        3.76993         3.99781        0.503591 
        3.78564          3.9589        0.498379 
        3.80137         3.94392        0.493233 
        3.81707          3.9121         0.48817 
        3.83279         3.87847        0.483174 
        3.84853         3.85462         0.47824 
        3.86424         3.82484        0.473385 
        3.87992         3.80306        0.468605 
        3.89561         3.78981         0.46389 
        3.91134         3.74542        0.459232 
        3.92704         3.73061        0.454642 
        3.94273         3.70419         0.45012 
        3.95845         3.68617        0.445651 
        3.97418          3.6587        0.441242 
        3.98988          3.6363        0.436899 
        4.00554         3.61285        0.432626 
        4.02125         3.59257        0.428399 
        4.03698         3.55808        0.424221 
        4.05268         3.54075        0.420109 
        4.06839          3.5202        0.416048 
         4.0841         3.49453        0.412043 
        4.09983         3.46199        0.408084 
        4.11555         3.43262         0.40418 
        4.13124         3.42092        0.400337 
        4.14693         3.39342        0.396541 
        4.16266         3.36612        0.392786 
        4.17839         3.34881        0.389081 
        4.19408         3.31589        0.385433 
        4.20977         3.30526         0.38183 
        4.22551         3.27353        0.378265 
        4.24123         3.25971        0.374749 
        4.25691         3.24323        0.371288 
        4.27259         3.22684        0.367869 
        4.28831         3.20072        0.364486 
        4.30404         3.17812        0.361143 
        4.31974         3.15336        0.357849 
        4.33543         3.13632        0.354598 
        4.35116         3.11322         0.35138 
        4.36688         3.08951        0.348203 
        4.38255          3.0788        0.345077 
        4.39825         3.05656        0.341983 
        4.41398          3.0451        0.338921 
         4.4297         3.02011        0.335899 
        4.44541         3.01234        0.332916 
        4.46111          2.9861         0.32997 
        4.47683          2.9552        0.327059 
        4.49251         2.95067        0.324188 
        4.50819         2.92492        0.321353 
         4.5239         2.90898        0.318547 
        4.53962         2.90103        0.315772 
        4.55535         2.87668        0.313028 
        4.57106         2.86195        0.310322 
        4.58678         2.84269        0.307646 
         4.6025         2.82556        0.305002 
        4.61821         2.81366        0.302389 
        4.63391         2.79311         0.29981 
         4.6496         2.77865        0.297262 
        4.66532         2.75596        0.294741 
        4.68103         2.73561        0.292249 
        4.69673         2.72218        0.289789 
        4.71241         2.70299         0.28736 
        4.72811         2.69375        0.284954 
        4.74384         2.67736        0.282573 
        4.75955         2.66415        0.280223 
        4.77525         2.64482        0.277901 
        4.79096         2.62806        0.275603 
        4.80669         2.61517        0.273329 
         4.8224         2.59862        0.271084 
        4.83809         2.58705        0.268866 
        4.85379         2.57508        0.266672 
         4.8695         2.55797        0.264501 
        4.88521         2.53698        0.262355 
        4.90093         2.53093        0.260232 
        4.91663         2.51252        0.258135 
        4.93234         2.49968        0.256059 
        4.94807         2.49066        0.254004 
        4.96377         2.46864        0.251976 
        4.97943         2.45413        0.249974 
        4.99514         2.44093        0.247989 
        5.01086         2.42731        0.246024 
        5.02654         2.41363        0.244085 
        5.04227         2.40642        0.242162 
          5.058         2.39339        0.240258 
        5.07371         2.37761        0.238379 
        5.08942          2.3647        0.236519 
        5.10513         2.35141        0.234679 
        5.12084         2.33894        0.232858 
        5.13656         2.32793        0.231057 
        5.15225         2.30782        0.229277 
        5.16796          2.2997        0.227514 
        5.18369         2.28394        0.225768 
         5.1994         2.27733        0.224043 
        5.21509         2.26563        0.222338 
        5.23079         2.24919        0.220648 
        5.24649         2.24115        0.218978 
        5.26217         2.23047        0.217326 
        5.27788         2.21558        0.215688 
        5.29359         2.20341        0.214068 
        5.30933         2.19032        0.212461 
        5.32504         2.17593        0.210874 
        5.34073         2.16518        0.209305 
        5.35646         2.15426        0.207749 
        5.37218         2.14215        0.206208 
        5.38789         2.13497        0.204686 
        5.40357         2.12554         0.20318 
        5.41929         2.11461        0.201687 
        5.43502         2.10543        0.200208 
         5.4507         2.09279        0.198747 
        5.46639         2.08208        0.197302 
        5.48212         2.07352        0.195867 
        5.49786         2.06179        0.194444 
        5.51353         2.05017        0.193043 
        5.52921         2.03924        0.191655 
        5.54495         2.02967        0.190275 
        5.56066          2.0218        0.188911 
        5.57637         2.00855        0.187561 
        5.59207         1.99959        0.186225 
        5.60778         1.99623        0.184902 
        5.62346         1.98163        0.183593 
        5.63916         1.96757        0.182296 
        5.65487         1.96109         0.18101 
         5.6706          1.9493        0.179736 
        5.68633         1.94181        0.178473 
        5.70203         1.93208        0.177225 
        5.71773         1.92101         0.17599 
        5.73344         1.91304        0.174765 
        5.74916         1.90363        0.173551 
        5.76486         1.89704         0.17235 
        5.78054         1.88573        0.171163 
        5.79626         1.88134        0.169983 
          5.812         1.87081        0.168813 
         5.8277         1.86183        0.167658 
        5.84339          1.8482        0.166514 
        5.85911         1.84382        0.165378 
        5.87484         1.83251        0.164253 
        5.89053          1.8255         0.16314 
        5.90623         1.81782        0.162038 
        5.92195         1.81201        0.160943 
        5.93767         1.80144         0.15986 
        5.95336         1.79084        0.158788 
        5.96905         1.78146        0.157726 
        5.98476         1.77281        0.156673 
        6.00048         1.76734        0.155629 
        6.01617         1.75882        0.154596 
        6.03185         1.74997        0.153574 
        6.04756         1.74379        0.152558 
        6.06331         1.73245         0.15155 
        6.07903          1.7292        0.150552 
        6.09473         1.71961        0.149565 
        6.11044         1.71041        0.148585 
        6.12616         1.70547        0.147615 
        6.14186         1.69956        0.146654 
        6.15755          1.6889        0.145702 
        6.17326          1.6852        0.144757 
        6.18898         1.67335        0.143821 
        6.20467         1.66765        0.142894 
        6.22036         1.65842        0.141976 
         6.2361         1.65346        0.141063 
         6.2518         1.64447         0.14016 
        6.26748         1.63665        0.139267 
        6.28319         1.62992        0.138379 
        6.29893         1.62488        0.137498 
        6.31463         1.61706        0.136627 
        6.33033         1.60985        0.135763 
        6.34604         1.60124        0.134906 
        6.36177         1.59633        0.134055 
        6.37747         1.59054        0.133214 
