# k  (h/Mpc)    Pcb(k)  (Mpc/h)^3    Pcb_linear(k) (Mpc/h)^3   ShotnoiseSubtracted = true
      0.0200456         844.313         855.383 
      0.0350414         556.697         547.943 
      0.0492313         368.524         366.252 
      0.0637834         302.269         304.375 
      0.0800726         239.493         242.723 
       0.096163         168.587         165.727 
       0.111083         129.328         126.437 
       0.126058         113.974          114.53 
       0.142273         97.8745         98.8757 
       0.158546         75.8334         75.2752 
        0.17375         62.4613         61.2725 
       0.188953         56.6287         56.1412 
       0.204907          49.906         50.7423 
       0.220756         42.6295         42.2949 
        0.23588         36.2505         35.8239 
         0.2514         32.8382         32.5236 
       0.267535         30.2615          29.894 
       0.283568         26.6056         26.2948 
       0.299022         23.5368         23.0496 
       0.314451         21.7426         20.9483 
       0.330372         19.7907         19.3615 
       0.346141         18.0158         17.6132 
       0.361624         16.2639          15.885 
       0.377134         14.8266         14.5259 
       0.392932         14.1147         13.4652 
       0.408854         12.7829         12.4432 
       0.424564         12.0349         11.4372 
       0.440253         10.9681         10.5582 
       0.455999         10.0604         9.82941 
       0.471626         9.42225         9.17771 
        0.48727         8.98771         8.54952 
       0.502856         8.41243         7.97421 
       0.518488         7.73091         7.46851 
       0.534347         7.21763         7.00851 
       0.550082         6.90008         6.58249 
       0.565732         6.57542         6.18712 
       0.581496         6.15277         5.82565 
       0.597222          5.7945         5.49798 
       0.612804         5.45008         5.19747 
       0.628434         5.22493         4.91618 
       0.644267          4.9562         4.65207 
       0.660051         4.68839         4.40986 
       0.675724          4.4212           4.187 
       0.691403         4.23996         3.97931 
       0.707174         4.02481         3.78446 
       0.722871         3.91857         3.60339 
        0.73838         3.65396         3.43606 
       0.754018         3.48327         3.27808 
       0.769845         3.30273          3.1283 
        0.78569         3.21182         2.98775 
       0.801365         3.06932         2.85723 
       0.817031         2.95232         2.73464 
       0.832809         2.79924         2.61852 
       0.848511         2.70667         2.50972 
       0.864097         2.60702         2.40791 
       0.879701         2.52681         2.31169 
       0.895507         2.40235         2.21965 
       0.911279         2.32054         2.13285 
        0.92691          2.2524         2.05144 
       0.942635         2.13811         1.97387 
       0.958396         2.07235         1.90017 
       0.974128         2.00678          1.8304 
       0.989692         1.92167         1.76485 
        1.00528         1.86073         1.70243 
        1.02113         1.80822         1.64207 
        1.03692         1.76076         1.58487 
        1.05264         1.67846         1.53068 
        1.06832         1.63307         1.47912 
        1.08405         1.57073         1.42982 
        1.09979         1.53291         1.38274 
        1.11537         1.47855         1.33826 
        1.13105         1.42267         1.29549 
        1.14679         1.38837         1.25443 
        1.16256         1.34372         1.21508 
        1.17828         1.31653         1.17756 
        1.19395         1.26869         1.14175 
         1.2097         1.22861         1.10727 
        1.22537         1.18743         1.07438 
          1.241         1.16048         1.04293 
        1.25666         1.13768         1.01267 
        1.27241         1.10273        0.983479 
        1.28819         1.06067        0.955395 
        1.30392         1.03562        0.928495 
        1.31957         1.01345        0.902757 
        1.33529        0.973499        0.877905 
        1.35108         0.95377        0.853896 
        1.36674        0.926487        0.830962 
         1.3824        0.912468        0.808895 
        1.39811        0.884744        0.787561 
        1.41389        0.860394        0.766919 
        1.42964        0.838243        0.747056 
        1.44531        0.819627        0.727997 
        1.46101        0.795318        0.709565 
        1.47667        0.780326         0.69183 
        1.49229        0.754723        0.674752 
        1.50793        0.737677        0.658233 
        1.52367        0.719498        0.642164 
        1.53953         0.70029        0.626527 
        1.55526        0.690702        0.611537 
        1.57092        0.678362        0.597102 
        1.58662        0.666045        0.583101 
        1.60235        0.643721        0.569524 
        1.61809        0.628955        0.556374 
        1.63369        0.610232        0.543758 
        1.64941        0.601674        0.531445 
        1.66519        0.590858        0.519471 
        1.68085        0.574126        0.507952 
        1.69652        0.562262        0.496781 
        1.71228         0.54912        0.485883 
        1.72806        0.538614        0.475306 
        1.74368        0.526859        0.465151 
        1.75933        0.517626        0.455273 
        1.77505        0.508339        0.445637 
        1.79081        0.491661        0.436265 
         1.8065        0.487321        0.427203 
        1.82218        0.473442        0.418408 
        1.83797        0.460773        0.409801 
        1.85367        0.457212        0.401484 
        1.86928        0.446771         0.39345 
        1.88497        0.435146        0.385592 
        1.90073        0.430852        0.377921 
        1.91647        0.418993        0.370466 
        1.93218        0.412476        0.363229 
        1.94787        0.404564        0.356197 
        1.96363        0.397292        0.349324 
        1.97935        0.388735        0.342647 
        1.99499        0.381976        0.336183 
        2.01064        0.375274        0.329877 
         2.0264        0.365552        0.323693 
        2.04216        0.359682        0.317672 
        2.05781        0.354101        0.311843 
        2.07353        0.346786         0.30614 
        2.08928        0.342153        0.300567 
        2.10499        0.334923        0.295149 
        2.12065        0.328846        0.289881 
        2.13633        0.323599        0.284737 
        2.15211        0.316713        0.279686 
        2.16785        0.312692        0.274772 
        2.18349        0.306982        0.270007 
        2.19916        0.300819        0.265345 
        2.21489        0.295116        0.260778 
        2.23063        0.290164        0.256317 
         2.2463        0.285581         0.25198 
        2.26194        0.281426        0.247754 
        2.27765        0.276273        0.243604 
        2.29341        0.271553        0.239539 
        2.30914        0.265724        0.235575 
        2.32486        0.262342        0.231703 
        2.34061        0.256862        0.227913 
        2.35635        0.253623         0.22421 
        2.37203        0.250691        0.220603 
        2.38768        0.246305        0.217083 
        2.40339        0.241608        0.213628 
        2.41914        0.238423         0.21024 
        2.43483        0.234004        0.206937 
         2.4505        0.230435        0.203711 
        2.46622        0.227078        0.200543 
        2.48195         0.22254        0.197443 
        2.49759        0.221187        0.194425 
        2.51328        0.215896        0.191462 
        2.52906         0.21257        0.188542 
        2.54479        0.209425        0.185695 
        2.56049        0.205751        0.182912 
        2.57618        0.204122        0.180188 
        2.59189        0.199713        0.177516 
        2.60758        0.198079        0.174903 
        2.62325         0.19483        0.172345 
        2.63898        0.192497         0.16983 
        2.65468        0.187936        0.167371 
        2.67044        0.185911         0.16495 
        2.68618        0.183246        0.162582 
        2.70184        0.180762        0.160271 
        2.71755        0.177747        0.157999 
        2.73329        0.176241        0.155767 
        2.74897        0.172335        0.153586 
        2.76462        0.170973        0.151452 
        2.78034        0.167744         0.14935 
        2.79607         0.16611        0.147285 
        2.81179         0.16249        0.145262 
        2.82749        0.161165        0.143279 
        2.84321        0.159082        0.141332 
        2.85893        0.156822        0.139421 
        2.87462        0.154326        0.137548 
        2.89033        0.152526        0.135709 
        2.90605        0.150468        0.133902 
        2.92176        0.149073        0.132128 
        2.93747        0.146443        0.130388 
        2.95318        0.144704        0.128679 
        2.96891        0.143103           0.127 
        2.98456         0.14157        0.125358 
        3.00023        0.139047        0.123743 
        3.01596         0.13724        0.122151 
        3.03164          0.1354        0.120592 
        3.04738        0.134256        0.119056 
         3.0631          0.1323        0.117547 
        3.07883        0.130435        0.116065 
        3.09456        0.129139        0.114608 
        3.11026        0.127169        0.113178 
        3.12596        0.125427        0.111773 
        3.14163        0.124208        0.110396 
        3.15734        0.123121        0.109038 
        3.17308        0.121433          0.1077 
        3.18879        0.119817        0.106388 
        3.20447        0.118251          0.1051 
         3.2202        0.117323        0.103829 
         3.2359        0.115614        0.102582 
        3.25157        0.113824        0.101358 
        3.26729        0.113144         0.10015 
        3.28304        0.111949       0.0989603 
        3.29877        0.110076       0.0977911 
        3.31446        0.109569       0.0966433 
        3.33014         0.10808       0.0955151 
        3.34585        0.106418       0.0944031 
        3.36158        0.105497       0.0933073 
        3.37727        0.104614       0.0922323 
        3.39294        0.103563       0.0911753 
        3.40867        0.102123       0.0901311 
        3.42439        0.101307       0.0891038 
        3.44008        0.100314       0.0880946 
        3.45578       0.0992564       0.0871004 
        3.47153       0.0983759       0.0861193 
        3.48724       0.0972875       0.0851551 
        3.50292       0.0966135       0.0842079 
        3.51859        0.095375       0.0832756 
        3.53431       0.0943157       0.0823546 
        3.55007       0.0934583       0.0814453 
        3.56577       0.0929437       0.0805534 
        3.58146       0.0917479       0.0796752 
        3.59719       0.0908142       0.0788081 
        3.61292       0.0899336       0.0779542 
        3.62859       0.0894565       0.0771163 
        3.64429       0.0879946        0.076289 
        3.66003       0.0876637       0.0754715 
        3.67578       0.0867066       0.0746662 
        3.69146       0.0860568       0.0738757 
        3.70712       0.0852069       0.0730982 
        3.72284       0.0844684        0.072329 
        3.73853        0.083865       0.0715722 
        3.75422        0.083026        0.070826 
        3.76993       0.0822947       0.0700898 
        3.78564       0.0816691       0.0693644 
        3.80137       0.0811902       0.0686481 
        3.81707       0.0800953       0.0679434 
        3.83279       0.0796135       0.0672481 
        3.84853       0.0789676       0.0665614 
        3.86424       0.0781126       0.0658857 
        3.87992        0.077607       0.0652204 
        3.89561       0.0769717       0.0645642 
        3.91134       0.0761483       0.0639158 
        3.92704       0.0755059        0.063277 
        3.94273       0.0748454       0.0626476 
        3.95845       0.0741615       0.0620257 
        3.97418       0.0736743        0.061412 
        3.98988       0.0726715       0.0608076 
        4.00554       0.0720844       0.0602129 
        4.02125       0.0713971       0.0596245 
        4.03698       0.0704318        0.059043 
        4.05268       0.0697255       0.0584707 
        4.06839       0.0687021       0.0579055 
         4.0841        0.067802        0.057348 
        4.09983       0.0669926       0.0567971 
        4.11555       0.0660838       0.0562537 
        4.13124       0.0651765       0.0557188 
        4.14693       0.0644626       0.0551905 
        4.16266       0.0636798       0.0546678 
        4.17839        0.062939       0.0541523 
        4.19408       0.0620946       0.0536445 
        4.20977        0.061514       0.0531431 
        4.22551       0.0608592       0.0526469 
        4.24123       0.0600765       0.0521575 
        4.25691       0.0596056       0.0516757 
        4.27259       0.0589246       0.0511999 
        4.28831       0.0585324       0.0507291 
        4.30404       0.0577172       0.0502638 
        4.31974       0.0572531       0.0498053 
        4.33543        0.056914       0.0493529 
        4.35116       0.0564403        0.048905 
        4.36688       0.0558663       0.0484628 
        4.38255        0.055438       0.0480278 
        4.39825       0.0551859       0.0475971 
        4.41398       0.0546395       0.0471709 
         4.4297       0.0543947       0.0467504 
        4.44541       0.0540052       0.0463351 
        4.46111        0.053563       0.0459252 
        4.47683       0.0533333         0.04552 
        4.49251       0.0530735       0.0451204 
        4.50819       0.0529377       0.0447258 
         4.5239       0.0525674       0.0443354 
        4.53962       0.0523599       0.0439491 
        4.55535       0.0522629       0.0435672 
        4.57106       0.0520425       0.0431905 
        4.58678       0.0518779       0.0428181 
         4.6025       0.0518729       0.0424501 
        4.61821       0.0518018       0.0420864 
        4.63391       0.0517209       0.0417275 
         4.6496       0.0515572       0.0413729 
        4.66532       0.0515251       0.0410219 
        4.68103       0.0514451       0.0406752 
        4.69673       0.0514741       0.0403328 
        4.71241       0.0515933       0.0399947 
        4.72811       0.0515486       0.0396599 
        4.74384       0.0514686       0.0393285 
        4.75955         0.05156       0.0390014 
        4.77525        0.051707       0.0386782 
        4.79096       0.0518807       0.0383583 
        4.80669        0.051828       0.0380419 
         4.8224       0.0520836       0.0377294 
        4.83809       0.0522228       0.0374208 
        4.85379       0.0524422       0.0371154 
         4.8695       0.0526835       0.0368132 
        4.88521       0.0528413       0.0365145 
        4.90093       0.0533069       0.0362191 
        4.91663       0.0534406       0.0359272 
        4.93234       0.0536188       0.0356382 
        4.94807       0.0539894       0.0353523 
        4.96377       0.0542481         0.03507 
        4.97943       0.0549801       0.0347914 
        4.99514       0.0550279       0.0345151 
        5.01086        0.055377       0.0342416 
        5.02654       0.0560946       0.0339717 
        5.04227       0.0563734        0.033704 
          5.058       0.0566668       0.0334391 
        5.07371       0.0573669       0.0331775 
        5.08942       0.0580136       0.0329187 
        5.10513        0.058436       0.0326626 
        5.12084       0.0589119       0.0324092 
        5.13656        0.059391       0.0321584 
        5.15225       0.0602662       0.0319108 
        5.16796       0.0608133       0.0316654 
        5.18369       0.0614854       0.0314223 
         5.1994       0.0621714       0.0311823 
        5.21509       0.0629901       0.0309449 
        5.23079       0.0637356       0.0307098 
        5.24649       0.0645335       0.0304773 
        5.26217       0.0653896       0.0302474 
        5.27788       0.0661952       0.0300195 
        5.29359       0.0671129       0.0297939 
        5.30933       0.0679538       0.0295703 
        5.32504       0.0688515       0.0293494 
        5.34073       0.0695877       0.0291311 
        5.35646        0.070768       0.0289145 
        5.37218       0.0717926          0.0287 
        5.38789       0.0728496       0.0284881 
        5.40357       0.0737924       0.0282786 
        5.41929       0.0748835       0.0280707 
        5.43502        0.076495       0.0278649 
         5.4507       0.0774151       0.0276616 
        5.46639       0.0786346       0.0274604 
        5.48212       0.0797361       0.0272607 
        5.49786       0.0811503       0.0270627 
        5.51353       0.0830952       0.0268677 
        5.52921       0.0836716       0.0266744 
        5.54495       0.0856303       0.0264825 
        5.56066        0.086946       0.0262927 
        5.57637       0.0883493       0.0261047 
        5.59207       0.0893916       0.0259188 
        5.60778       0.0913098       0.0257346 
        5.62346       0.0929707       0.0255524 
        5.63916        0.094433       0.0253719 
        5.65487       0.0969593        0.025193 
         5.6706       0.0975912       0.0250156 
        5.68633       0.0998228       0.0248399 
        5.70203        0.101836       0.0246662 
        5.71773        0.103733       0.0244942 
        5.73344         0.10599       0.0243238 
        5.74916        0.107937       0.0241548 
        5.76486        0.109898       0.0239877 
        5.78054        0.111814       0.0238224 
        5.79626        0.114097       0.0236582 
          5.812         0.11639       0.0234954 
         5.8277        0.118294       0.0233346 
        5.84339        0.120762       0.0231753 
        5.85911        0.122666       0.0230172 
        5.87484        0.125302       0.0228606 
        5.89053        0.128171       0.0227058 
        5.90623        0.131233       0.0225524 
        5.92195        0.132834       0.0224001 
        5.93767        0.135756       0.0222493 
        5.95336        0.138892       0.0221001 
        5.96905        0.141358       0.0219523 
        5.98476        0.143432       0.0218057 
        6.00048        0.146739       0.0216604 
        6.01617        0.149713       0.0215167 
        6.03185        0.152706       0.0213744 
        6.04756        0.155398        0.021233 
        6.06331        0.159346       0.0210926 
        6.07903        0.162713       0.0209538 
        6.09473         0.16487       0.0208164 
        6.11044        0.170429       0.0206801 
        6.12616        0.170786        0.020545 
        6.14186        0.175576       0.0204113 
        6.15755        0.179327       0.0202788 
        6.17326        0.182905       0.0201473 
        6.18898        0.185881        0.020017 
        6.20467        0.189866        0.019888 
        6.22036        0.193268       0.0197602 
         6.2361        0.195504       0.0196332 
         6.2518        0.200942       0.0195075 
        6.26748        0.205848       0.0193832 
        6.28319        0.210509       0.0192596 
        6.29893        0.213717        0.019137 
        6.31463        0.218428       0.0190157 
        6.33033        0.220827       0.0188954 
        6.34604        0.226137       0.0187761 
        6.36177        0.230601       0.0186578 
        6.37747        0.233988       0.0185407 
