# k  (h/Mpc)    Pcb(k)  (Mpc/h)^3    Pcb_linear(k) (Mpc/h)^3   ShotnoiseSubtracted = true
      0.0200456         8698.76         8846.23 
      0.0350414         5556.53         5666.74 
      0.0492313         3790.35         3787.72 
      0.0637834         3222.53          3147.8 
      0.0800726         2555.92          2510.2 
       0.096163         1699.72         1713.92 
       0.111083         1301.09         1307.59 
       0.126058            1210         1184.46 
       0.142273          1059.5         1022.56 
       0.158546         845.872         778.484 
        0.17375         663.562         633.671 
       0.188953         637.578         580.603 
       0.204907         601.369         524.769 
       0.220756         500.896         437.407 
        0.23588         432.796         370.485 
         0.2514         378.941         336.354 
       0.267535         363.279         309.159 
       0.283568         327.831         271.937 
       0.299022         300.696         238.375 
       0.314451         275.654         216.644 
       0.330372         255.165         200.234 
       0.346141           228.3         182.153 
       0.361624         218.237          164.28 
       0.377134         202.942         150.225 
       0.392932          186.39         139.255 
       0.408854          178.39         128.685 
       0.424564         170.262         118.282 
       0.440253         161.154         109.191 
       0.455999         150.704         101.654 
       0.471626         139.825         94.9144 
        0.48727         134.613         88.4177 
       0.502856         129.131          82.468 
       0.518488         125.596         77.2382 
       0.534347         119.684         72.4809 
       0.550082         110.545          68.075 
       0.565732         106.372         63.9862 
       0.581496         102.029         60.2479 
       0.597222         98.4594         56.8592 
       0.612804         93.9326         53.7514 
       0.628434         91.4826         50.8423 
       0.644267         88.1894         48.1109 
       0.660051         86.2243         45.6061 
       0.675724         82.9985         43.3013 
       0.691403         80.3625         41.1533 
       0.707174         77.2463         39.1383 
       0.722871         75.7499         37.2657 
        0.73838          74.087         35.5352 
       0.754018         70.3537         33.9014 
       0.769845         68.8866         32.3524 
        0.78569         67.1184         30.8988 
       0.801365          64.874          29.549 
       0.817031         62.6586         28.2812 
       0.832809         61.9543         27.0803 
       0.848511         59.2122         25.9551 
       0.864097         57.9461         24.9022 
       0.879701         56.8357         23.9072 
       0.895507         55.8527         22.9552 
       0.911279         54.5407         22.0575 
        0.92691         53.3663         21.2157 
       0.942635         51.3782         20.4134 
       0.958396         51.1922         19.6513 
       0.974128         49.7647         18.9297 
       0.989692         48.8154         18.2518 
        1.00528         47.6634         17.6062 
        1.02113         46.6344          16.982 
        1.03692           45.23         16.3905 
        1.05264         45.1738         15.8301 
        1.06832         43.5975         15.2969 
        1.08405         43.1079         14.7869 
        1.09979          42.672         14.3001 
        1.11537         40.9938         13.8401 
        1.13105         41.3158         13.3977 
        1.14679         40.2746         12.9731 
        1.16256          39.475         12.5662 
        1.17828         38.5778         12.1781 
        1.19395         38.0268         11.8078 
         1.2097         37.3475         11.4512 
        1.22537         37.2684          11.111 
          1.241         36.1605         10.7858 
        1.25666         35.4423         10.4729 
        1.27241         34.9893          10.171 
        1.28819          34.161         9.88054 
        1.30392         33.7518         9.60235 
        1.31957         33.4388         9.33616 
        1.33529         32.9475         9.07916 
        1.35108         32.5457         8.83086 
        1.36674         32.0221         8.59368 
         1.3824         31.1607         8.36547 
        1.39811         31.0676         8.14483 
        1.41389          30.619         7.93136 
        1.42964         30.0308         7.72593 
        1.44531         29.6823         7.52882 
        1.46101         29.0204         7.33821 
        1.47667         28.9178         7.15479 
        1.49229         28.5779         6.97817 
        1.50793         28.1344         6.80734 
        1.52367         27.7308         6.64116 
        1.53953          27.597         6.47944 
        1.55526         27.0419         6.32442 
        1.57092         26.7024         6.17514 
        1.58662         26.3472         6.03034 
        1.60235         26.0354         5.88993 
        1.61809         25.6441         5.75393 
        1.63369         25.3698         5.62346 
        1.64941         25.0063         5.49612 
        1.66519         24.6864         5.37228 
        1.68085         24.4572         5.25316 
        1.69652         24.1411         5.13763 
        1.71228         23.9899         5.02493 
        1.72806         23.5585         4.91554 
        1.74368         23.1717         4.81051 
        1.75933         22.9195         4.70836 
        1.77505         22.8854         4.60871 
        1.79081         22.4751         4.51178 
         1.8065         22.2335         4.41806 
        1.82218         22.0377          4.3271 
        1.83797         21.6834         4.23809 
        1.85367         21.4531         4.15209 
        1.86928         21.2459         4.06899 
        1.88497         20.9699         3.98773 
        1.90073         20.8591          3.9084 
        1.91647         20.5305          3.8313 
        1.93218          20.399         3.75646 
        1.94787         20.0946         3.68373 
        1.96363         20.0269         3.61265 
        1.97935         19.7379          3.5436 
        1.99499         19.5171         3.47675 
        2.01064         19.4111         3.41153 
         2.0264         19.0301         3.34759 
        2.04216         18.8937         3.28532 
        2.05781         18.6104         3.22503 
        2.07353         18.4978         3.16605 
        2.08928         18.4284         3.10842 
        2.10499         18.2254         3.05238 
        2.12065         17.8985          2.9979 
        2.13633         17.7992         2.94471 
        2.15211         17.5447         2.89247 
        2.16785         17.3927         2.84164 
        2.18349         17.2197         2.79237 
        2.19916         17.0906         2.74416 
        2.21489         16.8965         2.69693 
        2.23063         16.7319         2.65078 
         2.2463         16.5983         2.60593 
        2.26194         16.4882         2.56223 
        2.27765         16.2444         2.51931 
        2.29341         16.0538         2.47727 
        2.30914         15.9799         2.43628 
        2.32486         15.8273         2.39624 
        2.34061         15.6742         2.35703 
        2.35635         15.4716         2.31875 
        2.37203         15.3352         2.28144 
        2.38768         15.2075         2.24504 
        2.40339           15.06          2.2093 
        2.41914         14.9397         2.17426 
        2.43483         14.8084         2.14011 
         2.4505         14.6138         2.10675 
        2.46622         14.4787         2.07399 
        2.48195         14.3701         2.04192 
        2.49759         14.1738         2.01071 
        2.51328         14.0704         1.98007 
        2.52906          13.996         1.94988 
        2.54479         13.8627         1.92043 
        2.56049         13.7337         1.89164 
        2.57618         13.6105         1.86348 
        2.59189         13.5045         1.83585 
        2.60758          13.394         1.80882 
        2.62325         13.2818         1.78237 
        2.63898         13.1523         1.75636 
        2.65468         13.0422         1.73092 
        2.67044         12.8975         1.70588 
        2.68618         12.7957          1.6814 
        2.70184         12.6989          1.6575 
        2.71755         12.5556           1.634 
        2.73329         12.4776         1.61092 
        2.74897         12.3078         1.58837 
        2.76462         12.3015         1.56629 
        2.78034         12.1094         1.54455 
        2.79607         12.0241          1.5232 
        2.81179         11.8878         1.50228 
        2.82749         11.7928         1.48177 
        2.84321         11.7085         1.46163 
        2.85893         11.6146         1.44187 
        2.87462         11.4949          1.4225 
        2.89033         11.3806         1.40348 
        2.90605         11.3333         1.38479 
        2.92176          11.176         1.36645 
        2.93747         11.1437         1.34845 
        2.95318         11.0065         1.33078 
        2.96891         10.9186         1.31341 
        2.98456         10.8441         1.29643 
        3.00023         10.7201         1.27973 
        3.01596         10.6818         1.26327 
        3.03164         10.5822         1.24715 
        3.04738         10.4454         1.23126 
         3.0631         10.3936         1.21566 
        3.07883         10.2786         1.20032 
        3.09456         10.2022         1.18526 
        3.11026         10.1254         1.17047 
        3.12596         10.0415         1.15594 
        3.14163         9.95414         1.14169 
        3.15734         9.85487         1.12765 
        3.17308         9.78804         1.11381 
        3.18879         9.74131         1.10025 
        3.20447         9.62606         1.08693 
         3.2202         9.56502         1.07378 
         3.2359         9.50624         1.06088 
        3.25157         9.42095         1.04823 
        3.26729         9.33113         1.03574 
        3.28304         9.26229         1.02343 
        3.29877         9.18011         1.01134 
        3.31446         9.10129         0.99947 
        3.33014         9.03229        0.987801 
        3.34585         8.98634        0.976302 
        3.36158         8.92097        0.964969 
        3.37727         8.79541        0.953851 
        3.39294         8.75182         0.94292 
        3.40867         8.67099        0.932121 
        3.42439         8.60666        0.921498 
        3.44008         8.56186        0.911061 
        3.45578         8.48541        0.900778 
        3.47153         8.44033        0.890632 
        3.48724          8.3623         0.88066 
        3.50292         8.28926        0.870865 
        3.51859         8.24456        0.861223 
        3.53431         8.17106        0.851698 
        3.55007         8.10584        0.842294 
        3.56577         8.04942         0.83307 
        3.58146         7.99653        0.823988 
        3.59719         7.92123         0.81502 
        3.61292         7.83847         0.80619 
        3.62859         7.78467        0.797524 
        3.64429         7.76589        0.788969 
        3.66003         7.66819        0.780514 
        3.67578         7.59946        0.772186 
        3.69146         7.54875        0.764011 
        3.70712         7.49193         0.75597 
        3.72284          7.4487        0.748014 
        3.73853         7.36867        0.740188 
        3.75422         7.36145        0.732471 
        3.76993         7.26512        0.724857 
        3.78564         7.21671        0.717355 
        3.80137         7.15566        0.709947 
        3.81707         7.10863         0.70266 
        3.83279         7.04913        0.695469 
        3.84853         6.99482        0.688367 
        3.86424         6.94757        0.681379 
        3.87992         6.88913        0.674498 
        3.89561         6.84071        0.667713 
        3.91134           6.783        0.661007 
        3.92704         6.72131        0.654401 
        3.94273         6.70261        0.647892 
        3.95845         6.64687        0.641459 
        3.97418         6.56891        0.635113 
        3.98988         6.53374        0.628862 
        4.00554         6.49773        0.622712 
        4.02125         6.44437        0.616627 
        4.03698         6.38813        0.610614 
        4.05268         6.35143        0.604695 
        4.06839         6.29091         0.59885 
         4.0841         6.25185        0.593084 
        4.09983         6.20405        0.587387 
        4.11555         6.16468        0.581766 
        4.13124           6.126        0.576235 
        4.14693         6.07278        0.570771 
        4.16266         6.02679        0.565366 
        4.17839         5.97215        0.560034 
        4.19408         5.93299        0.554783 
        4.20977         5.88258        0.549597 
        4.22551         5.84161        0.544465 
        4.24123         5.80024        0.539405 
        4.25691         5.74091        0.534422 
        4.27259         5.71035        0.529501 
        4.28831         5.66552        0.524632 
        4.30404         5.64313         0.51982 
        4.31974         5.58235        0.515079 
        4.33543         5.54542          0.5104 
        4.35116         5.49771        0.505767 
        4.36688         5.45067        0.501195 
        4.38255          5.4306        0.496696 
        4.39825         5.36596        0.492242 
        4.41398         5.35328        0.487834 
         4.4297         5.30193        0.483486 
        4.44541         5.25719        0.479191 
        4.46111          5.2411        0.474951 
        4.47683         5.19455         0.47076 
        4.49251         5.16024        0.466628 
        4.50819         5.10626        0.462547 
         4.5239         5.08239        0.458509 
        4.53962          5.0502        0.454514 
        4.55535          5.0156        0.450565 
        4.57106         4.97445        0.446669 
        4.58678         4.94505        0.442818 
         4.6025         4.89653        0.439012 
        4.61821          4.8693        0.435251 
        4.63391         4.84029        0.431539 
         4.6496         4.80791        0.427872 
        4.66532         4.78305        0.424242 
        4.68103         4.73237        0.420656 
        4.69673         4.71497        0.417115 
        4.71241         4.68359        0.413618 
        4.72811         4.63744        0.410156 
        4.74384         4.61097        0.406729 
        4.75955         4.56519        0.403346 
        4.77525         4.54053        0.400004 
        4.79096         4.51684        0.396696 
        4.80669         4.48777        0.393423 
         4.8224         4.46433        0.390192 
        4.83809         4.41903           0.387 
        4.85379         4.38969        0.383842 
         4.8695         4.37172        0.380716 
        4.88521         4.34076        0.377627 
        4.90093         4.30003        0.374572 
        4.91663         4.28106        0.371554 
        4.93234         4.25402        0.368565 
        4.94807         4.21324        0.365608 
        4.96377         4.18517        0.362688 
        4.97943         4.15364        0.359807 
        4.99514         4.12998        0.356949 
        5.01086         4.10476        0.354121 
        5.02654         4.08325         0.35133 
        5.04227         4.04567        0.348561 
          5.058         4.02095        0.345821 
        5.07371         4.00248        0.343116 
        5.08942         3.96987         0.34044 
        5.10513         3.95024        0.337792 
        5.12084         3.92281         0.33517 
        5.13656         3.89778        0.332577 
        5.15225         3.87702        0.330016 
        5.16796         3.84417        0.327478 
        5.18369         3.82172        0.324965 
         5.1994         3.79781        0.322482 
        5.21509         3.76723        0.320027 
        5.23079         3.75466        0.317596 
        5.24649         3.72287        0.315191 
        5.26217         3.69823        0.312813 
        5.27788         3.67495        0.310457 
        5.29359         3.64856        0.308124 
        5.30933         3.62532        0.305812 
        5.32504         3.61544        0.303527 
        5.34073         3.58366        0.301269 
        5.35646         3.55787        0.299029 
        5.37218          3.5388        0.296811 
        5.38789         3.51032        0.294619 
        5.40357         3.49515        0.292453 
        5.41929         3.46632        0.290303 
        5.43502         3.44891        0.288174 
         5.4507         3.42934        0.286072 
        5.46639          3.4074        0.283991 
        5.48212         3.38314        0.281926 
        5.49786         3.36296        0.279878 
        5.51353          3.3405        0.277862 
        5.52921         3.32129        0.275863 
        5.54495         3.30266        0.273878 
        5.56066         3.28487        0.271915 
        5.57637         3.26411        0.269971 
        5.59207         3.23846        0.268048 
        5.60778         3.21804        0.266143 
        5.62346         3.20076        0.264259 
        5.63916         3.17991        0.262392 
        5.65487         3.16276        0.260542 
         5.6706         3.14394        0.258707 
        5.68633         3.12618         0.25689 
        5.70203         3.10469        0.255094 
        5.71773          3.0849        0.253315 
        5.73344         3.07406        0.251553 
        5.74916         3.05034        0.249805 
        5.76486         3.03929        0.248077 
        5.78054         3.01358        0.246367 
        5.79626         2.99744        0.244669 
          5.812         2.98364        0.242986 
         5.8277         2.96762        0.241323 
        5.84339         2.94409        0.239676 
        5.85911         2.93561        0.238041 
        5.87484         2.91637        0.236421 
        5.89053         2.89191         0.23482 
        5.90623          2.8788        0.233233 
        5.92195         2.86231        0.231658 
        5.93767          2.8461        0.230098 
        5.95336          2.8313        0.228556 
        5.96905         2.81213        0.227028 
        5.98476         2.80014        0.225512 
        6.00048         2.78041        0.224009 
        6.01617         2.76569        0.222522 
        6.03185         2.74602         0.22105 
        6.04756         2.73005        0.219588 
        6.06331         2.71497        0.218137 
        6.07903         2.70082        0.216701 
        6.09473          2.6909         0.21528 
        6.11044         2.67017         0.21387 
        6.12616         2.65896        0.212473 
        6.14186         2.64473         0.21109 
        6.15755         2.63035         0.20972 
        6.17326         2.61229         0.20836 
        6.18898         2.59391        0.207012 
        6.20467         2.58677        0.205679 
        6.22036         2.56769        0.204357 
         6.2361         2.55349        0.203043 
         6.2518         2.53895        0.201743 
        6.26748         2.53282        0.200458 
        6.28319         2.51161         0.19918 
        6.29893          2.4982        0.197912 
        6.31463         2.48476        0.196657 
        6.33033         2.47113        0.195413 
        6.34604         2.45816         0.19418 
        6.36177         2.44524        0.192956 
        6.37747         2.42994        0.191745 
