# k  (h/Mpc)    Pcb(k)  (Mpc/h)^3    Pcb_linear(k) (Mpc/h)^3   ShotnoiseSubtracted = true
      0.0200456         20429.2         20775.1 
      0.0350414         13839.1         13308.2 
      0.0492313         8808.88         8895.33 
      0.0637834         7111.23         7392.52 
      0.0800726         5589.93         5895.13 
       0.096163         4272.44          4025.1 
       0.111083         3343.97         3070.84 
       0.126058         2801.51         2781.66 
       0.142273         2465.76         2401.44 
       0.158546         1976.82         1828.25 
        0.17375         1717.25         1488.16 
       0.188953         1621.36         1363.53 
       0.204907         1391.43          1232.4 
       0.220756         1248.74         1027.24 
        0.23588         1101.64         870.073 
         0.2514         985.956         789.917 
       0.267535          956.14         726.051 
       0.283568         840.917         638.635 
       0.299022         797.934         559.817 
       0.314451         823.866         508.782 
       0.330372         710.651         470.243 
       0.346141         653.069         427.782 
       0.361624         624.156         385.806 
       0.377134         593.688         352.798 
       0.392932         565.769         327.035 
       0.408854         541.479         302.213 
       0.424564         525.523         277.781 
       0.440253         479.771         256.432 
       0.455999         457.496         238.732 
       0.471626         465.818         222.903 
        0.48727         437.068         207.646 
       0.502856         411.889         193.674 
       0.518488         404.079         181.391 
       0.534347         382.878         170.219 
       0.550082         364.758         159.872 
       0.565732         361.529          150.27 
       0.581496          350.25          141.49 
       0.597222         340.364         133.532 
       0.612804         330.418         126.234 
       0.628434          318.28         119.402 
       0.644267         306.079         112.987 
       0.660051         302.554         107.104 
       0.675724         294.969         101.692 
       0.691403         289.395         96.6474 
       0.707174          278.06         91.9151 
       0.722871          274.06         87.5173 
        0.73838         268.567         83.4534 
       0.754018         259.204         79.6163 
       0.769845         258.539         75.9785 
        0.78569         250.821         72.5648 
       0.801365         242.781          69.395 
       0.817031         241.454         66.4176 
       0.832809         235.538         63.5973 
       0.848511         230.614         60.9548 
       0.864097         223.519          58.482 
       0.879701         223.189         56.1452 
       0.895507         217.051         53.9097 
       0.911279         211.908         51.8015 
        0.92691         209.039         49.8243 
       0.942635         206.558         47.9403 
       0.958396         201.264         46.1504 
       0.974128         199.085         44.4559 
       0.989692          191.67         42.8637 
        1.00528         191.324         41.3477 
        1.02113         188.582         39.8817 
        1.03692         184.222         38.4926 
        1.05264         180.565         37.1764 
        1.06832         179.906         35.9242 
        1.08405         175.311         34.7267 
        1.09979         173.181         33.5833 
        1.11537         171.217         32.5031 
        1.13105         167.188         31.4642 
        1.14679         165.937         30.4669 
        1.16256         162.665         29.5112 
        1.17828         160.982         28.5999 
        1.19395         157.005         27.7303 
         1.2097         156.273         26.8927 
        1.22537         154.654         26.0939 
          1.241         149.718         25.3302 
        1.25666         149.191         24.5953 
        1.27241          146.12         23.8862 
        1.28819         144.463         23.2041 
        1.30392         142.785         22.5508 
        1.31957          139.44         21.9257 
        1.33529         136.943         21.3221 
        1.35108         136.267          20.739 
        1.36674         133.182          20.182 
         1.3824         132.363          19.646 
        1.39811          130.66         19.1279 
        1.41389         127.532         18.6265 
        1.42964         125.679         18.1441 
        1.44531         124.965         17.6812 
        1.46101         122.324         17.2336 
        1.47667         121.841         16.8028 
        1.49229         120.192          16.388 
        1.50793         117.635         15.9868 
        1.52367         116.088         15.5966 
        1.53953         114.171         15.2168 
        1.55526         113.396         14.8527 
        1.57092         112.283         14.5021 
        1.58662         110.026         14.1621 
        1.60235         108.803         13.8323 
        1.61809          107.52         13.5129 
        1.63369         105.535         13.2065 
        1.64941         105.172         12.9075 
        1.66519         103.252         12.6166 
        1.68085         101.463         12.3369 
        1.69652         100.613         12.0656 
        1.71228         99.0784         11.8009 
        1.72806         98.6568          11.544 
        1.74368         97.2424         11.2973 
        1.75933         96.0421         11.0574 
        1.77505         94.7656         10.8234 
        1.79081         93.1716         10.5958 
         1.8065          91.617         10.3757 
        1.82218         90.7088         10.1621 
        1.83797         90.2889         9.95303 
        1.85367         88.7232         9.75105 
        1.86928         88.1893         9.55591 
        1.88497         86.3371         9.36506 
        1.90073         85.7821         9.17875 
        1.91647         84.3675         8.99769 
        1.93218         83.5042         8.82192 
        1.94787          82.052         8.65113 
        1.96363         81.4211         8.48419 
        1.97935         80.6339         8.32203 
        1.99499         79.9534         8.16503 
        2.01064         78.3235         8.01188 
         2.0264         77.5128          7.8617 
        2.04216         76.3902         7.71546 
        2.05781         75.4066         7.57389 
        2.07353         74.7937         7.43537 
        2.08928         73.8546         7.30003 
        2.10499         72.9462         7.16843 
        2.12065         72.2088         7.04048 
        2.13633         71.2051         6.91556 
        2.15211         70.1262         6.79287 
        2.16785         69.1093         6.67351 
        2.18349         68.3268         6.55778 
        2.19916         67.7823         6.44456 
        2.21489         66.9309         6.33365 
        2.23063         65.8123         6.22529 
         2.2463         65.2124         6.11995 
        2.26194         64.8178         6.01732 
        2.27765         63.5828         5.91653 
        2.29341         62.9766          5.8178 
        2.30914         62.2093         5.72152 
        2.32486         61.6026         5.62749 
        2.34061           60.52         5.53542 
        2.35635          60.059          5.4455 
        2.37203         59.0871          5.3579 
        2.38768          58.783         5.27241 
        2.40339         58.0137         5.18848 
        2.41914         57.0458         5.10619 
        2.43483         56.8066         5.02598 
         2.4505         56.0566         4.94764 
        2.46622         55.5331          4.8707 
        2.48195         54.8047         4.79539 
        2.49759         54.2666         4.72209 
        2.51328          53.449         4.65013 
        2.52906          53.012         4.57922 
        2.54479         52.5233         4.51006 
        2.56049         51.5803         4.44247 
        2.57618         51.1868         4.37632 
        2.59189          50.541         4.31143 
        2.60758         49.8968         4.24795 
        2.62325         49.5454         4.18584 
        2.63898         49.0609         4.12475 
        2.65468         48.4929         4.06502 
        2.67044         47.9867         4.00622 
        2.68618         47.5173         3.94872 
        2.70184         46.9989         3.89258 
        2.71755         46.2624         3.83739 
        2.73329          45.728          3.7832 
        2.74897         45.3411         3.73023 
        2.76462         44.9467         3.67839 
        2.78034         44.5332         3.62733 
        2.79607         43.9655         3.57719 
        2.81179         43.4519         3.52805 
        2.82749         43.0226          3.4799 
        2.84321         42.6127         3.43259 
        2.85893          42.067         3.38618 
        2.87462           41.76         3.34071 
        2.89033         41.0474         3.29603 
        2.90605         40.5943         3.25214 
        2.92176         40.4918         3.20907 
        2.93747         39.9932          3.1668 
        2.95318         39.4902         3.12529 
        2.96891         39.0507          3.0845 
        2.98456         38.7108         3.04463 
        3.00023         38.2042          3.0054 
        3.01596         37.6099         2.96675 
        3.03164         37.3577         2.92889 
        3.04738         37.0203         2.89158 
         3.0631          36.777         2.85493 
        3.07883         36.3426         2.81892 
        3.09456         35.9057         2.78354 
        3.11026         35.6005         2.74882 
        3.12596         35.2323         2.71469 
        3.14163         34.8207         2.68123 
        3.15734         34.4949         2.64826 
        3.17308          34.176         2.61576 
        3.18879         33.8446          2.5839 
        3.20447         33.3603         2.55261 
         3.2202         33.1378         2.52175 
         3.2359           32.83         2.49146 
        3.25157         32.4643         2.46173 
        3.26729         32.2014          2.4324 
        3.28304          31.835          2.4035 
        3.29877         31.4096          2.3751 
        3.31446         31.1469         2.34722 
        3.33014         30.8372         2.31982 
        3.34585         30.4724         2.29281 
        3.36158         30.2633          2.2662 
        3.37727          29.905         2.24009 
        3.39294         29.6441         2.21442 
        3.40867         29.3528         2.18906 
        3.42439         29.0944         2.16411 
        3.44008         28.7983          2.1396 
        3.45578         28.5326         2.11545 
        3.47153          28.253         2.09162 
        3.48724         27.9486          2.0682 
        3.50292         27.7791          2.0452 
        3.51859          27.434         2.02256 
        3.53431         27.1979         2.00019 
        3.55007         26.9111          1.9781 
        3.56577         26.6454         1.95644 
        3.58146         26.3707         1.93511 
        3.59719         26.1677         1.91405 
        3.61292         25.8866         1.89331 
        3.62859         25.6109         1.87296 
        3.64429         25.4048         1.85287 
        3.66003         25.1872         1.83301 
        3.67578         24.8996         1.81345 
        3.69146         24.6692         1.79426 
        3.70712         24.4455         1.77537 
        3.72284         24.2713         1.75669 
        3.73853         24.0804         1.73831 
        3.75422         23.7769         1.72018 
        3.76993          23.587          1.7023 
        3.78564         23.3899         1.68469 
        3.80137         23.1616         1.66729 
        3.81707         22.9664         1.65017 
        3.83279         22.7275         1.63329 
        3.84853         22.4447         1.61661 
        3.86424         22.2993          1.6002 
        3.87992         22.1036         1.58404 
        3.89561         21.8675          1.5681 
        3.91134         21.6284         1.55235 
        3.92704         21.4477         1.53684 
        3.94273         21.2829         1.52155 
        3.95845         21.1169         1.50645 
        3.97418         20.9182         1.49154 
        3.98988         20.6332         1.47686 
        4.00554         20.4767         1.46242 
        4.02125         20.3551         1.44813 
        4.03698          20.111         1.43401 
        4.05268         19.9742         1.42011 
        4.06839         19.7631         1.40638 
         4.0841          19.566         1.39284 
        4.09983         19.4079         1.37946 
        4.11555         19.2641         1.36626 
        4.13124         19.1613         1.35327 
        4.14693         18.9233         1.34044 
        4.16266         18.7788         1.32774 
        4.17839         18.6544         1.31522 
        4.19408          18.452         1.30289 
        4.20977         18.2795         1.29071 
        4.22551         18.1379         1.27866 
        4.24123         18.0028         1.26677 
        4.25691         17.8483         1.25507 
        4.27259         17.6514         1.24352 
        4.28831         17.5568         1.23208 
        4.30404         17.4126         1.22078 
        4.31974          17.261         1.20965 
        4.33543         17.0507         1.19866 
        4.35116         16.9669         1.18778 
        4.36688          16.777         1.17704 
        4.38255         16.6429         1.16647 
        4.39825          16.513         1.15602 
        4.41398         16.4168         1.14566 
         4.4297         16.2221         1.13545 
        4.44541         16.1428         1.12536 
        4.46111         15.9225         1.11541 
        4.47683           15.85         1.10557 
        4.49251         15.7049         1.09586 
        4.50819         15.5455         1.08628 
         4.5239         15.4686         1.07679 
        4.53962         15.2871         1.06741 
        4.55535         15.2073         1.05814 
        4.57106         15.0762         1.04899 
        4.58678         14.9162         1.03994 
         4.6025         14.8125         1.03101 
        4.61821         14.6963         1.02217 
        4.63391         14.5822         1.01346 
         4.6496         14.4356         1.00484 
        4.66532         14.3121         0.99632 
        4.68103         14.2419        0.987898 
        4.69673         14.1092        0.979582 
        4.71241         13.9848         0.97137 
        4.72811         13.8957        0.963239 
        4.74384         13.7684         0.95519 
        4.75955         13.6409        0.947246 
        4.77525         13.5472        0.939397 
        4.79096         13.4248        0.931628 
        4.80669         13.3296        0.923943 
         4.8224         13.2184        0.916353 
        4.83809         13.1103        0.908857 
        4.85379         13.0066         0.90144 
         4.8695         12.9168        0.894101 
        4.88521         12.8102        0.886846 
        4.90093         12.7305        0.879671 
        4.91663         12.5926        0.872582 
        4.93234          12.516        0.865564 
        4.94807         12.4445        0.858618 
        4.96377         12.3295        0.851762 
        4.97943         12.2183        0.844995 
        4.99514         12.1134        0.838284 
        5.01086         12.0447        0.831642 
        5.02654         11.9591        0.825088 
        5.04227         11.8496        0.818586 
          5.058         11.7629        0.812151 
        5.07371         11.6786        0.805798 
        5.08942          11.605        0.799512 
        5.10513          11.489        0.793293 
        5.12084         11.4084        0.787137 
        5.13656         11.3171        0.781048 
        5.15225         11.2362        0.775033 
        5.16796         11.1576        0.769072 
        5.18369          11.047        0.763169 
         5.1994         10.9919        0.757339 
        5.21509         10.8963        0.751575 
        5.23079         10.8098        0.745864 
        5.24649         10.7318        0.740217 
        5.26217         10.6565        0.734632 
        5.27788         10.5874        0.729098 
        5.29359         10.4896        0.723619 
        5.30933         10.4145        0.718189 
        5.32504         10.3591        0.712824 
        5.34073         10.2724         0.70752 
        5.35646         10.1965         0.70226 
        5.37218         10.1189        0.697051 
        5.38789         10.0589        0.691904 
        5.40357         9.96727        0.686816 
        5.41929         9.90658        0.681767 
        5.43502         9.83011        0.676768 
         5.4507         9.74844        0.671832 
        5.46639         9.68326        0.666944 
        5.48212         9.60836        0.662094 
        5.49786         9.53194        0.657286 
        5.51353         9.48491         0.65255 
        5.52921          9.4126        0.647855 
        5.54495         9.34523        0.643194 
        5.56066         9.26929        0.638583 
        5.57637         9.20632        0.634018 
        5.59207         9.13976        0.629502 
        5.60778         9.08305        0.625028 
        5.62346         9.01618        0.620604 
        5.63916         8.95243        0.616219 
        5.65487          8.9019        0.611874 
         5.6706         8.81899        0.607566 
        5.68633         8.75156        0.603298 
        5.70203         8.69229         0.59908 
        5.71773         8.63717        0.594903 
        5.73344         8.58296        0.590764 
        5.74916         8.51315         0.58666 
        5.76486          8.4628        0.582601 
        5.78054          8.3956        0.578586 
        5.79626         8.34935        0.574599 
          5.812         8.28056        0.570645 
         5.8277         8.19883        0.566739 
        5.84339         8.16186        0.562871 
        5.85911         8.09457        0.559031 
        5.87484         8.06722        0.555228 
        5.89053         8.01638        0.551467 
        5.90623         7.94655         0.54774 
        5.92195         7.88229        0.544041 
        5.93767          7.8384        0.540379 
        5.95336         7.77538        0.536756 
        5.96905         7.71616        0.533167 
        5.98476         7.68666        0.529607 
        6.00048          7.6292        0.526078 
        6.01617         7.58105        0.522586 
        6.03185         7.51702         0.51913 
        6.04756         7.46464        0.515696 
        6.06331         7.41902        0.512287 
        6.07903         7.37723        0.508916 
        6.09473         7.31349        0.505578 
        6.11044           7.259        0.502268 
        6.12616         7.22259        0.498987 
        6.14186         7.18785        0.495739 
        6.15755         7.13277         0.49252 
        6.17326         7.06829        0.489328 
        6.18898         7.04066        0.486162 
        6.20467         6.98245         0.48303 
        6.22036         6.95011        0.479926 
         6.2361         6.90157        0.476841 
         6.2518         6.86489        0.473788 
        6.26748         6.81165        0.470769 
        6.28319         6.77701        0.467767 
        6.29893         6.71799        0.464789 
        6.31463         6.67254        0.461843 
        6.33033         6.62723        0.458922 
        6.34604         6.59705        0.456025 
        6.36177         6.54962        0.453151 
        6.37747         6.51712        0.450306 
