# k  (h/Mpc)    Pcb(k)  (Mpc/h)^3    Pcb_linear(k) (Mpc/h)^3   ShotnoiseSubtracted = true
      0.0200456         19647.4         19976.6 
      0.0350414         13301.3         12796.6 
      0.0492313          8475.7         8553.43 
      0.0637834         6843.31         7108.37 
      0.0800726         5380.75         5668.54 
       0.096163         4104.48         3870.38 
       0.111083         3211.44         2952.81 
       0.126058         2692.36         2674.74 
       0.142273         2367.66         2309.14 
       0.158546         1897.95         1757.97 
        0.17375         1645.61         1430.96 
       0.188953         1551.66         1311.12 
       0.204907         1331.56         1185.03 
       0.220756         1193.95         987.754 
        0.23588         1052.86         836.631 
         0.2514         941.406         759.556 
       0.267535         913.526         698.144 
       0.283568         802.301         614.088 
       0.299022         761.486           538.3 
       0.314451         784.459         489.226 
       0.330372         675.445         452.168 
       0.346141         621.115         411.339 
       0.361624         593.401         370.977 
       0.377134         563.446         339.238 
       0.392932         537.665         314.465 
       0.408854         514.261         290.597 
       0.424564         498.761         267.104 
       0.440253         454.609         246.576 
       0.455999         433.558         229.556 
       0.471626         440.959         214.336 
        0.48727         413.909         199.665 
       0.502856         388.692          186.23 
       0.518488         382.517         174.419 
       0.534347         361.455         163.677 
       0.550082         344.696         153.727 
       0.565732         342.034         144.494 
       0.581496         330.591         136.052 
       0.597222         321.037           128.4 
       0.612804          311.55         121.382 
       0.628434         300.267         114.812 
       0.644267         288.379         108.644 
       0.660051         285.019         102.988 
       0.675724         278.032         97.7831 
       0.691403         272.716         92.9326 
       0.707174          261.97         88.3822 
       0.722871         257.994         84.1534 
        0.73838         253.194         80.2457 
       0.754018         243.983         76.5561 
       0.769845         243.486         73.0582 
        0.78569         236.059         69.7757 
       0.801365         228.595         66.7277 
       0.817031          227.11         63.8647 
       0.832809         221.556         61.1528 
       0.848511         216.675         58.6119 
       0.864097         210.175         56.2342 
       0.879701          209.81         53.9872 
       0.895507         204.331         51.8376 
       0.911279          199.29         49.8104 
        0.92691         196.307         47.9093 
       0.942635          194.16         46.0977 
       0.958396         189.257         44.3766 
       0.974128          187.06         42.7471 
       0.989692          180.12         41.2162 
        1.00528         179.833         39.7584 
        1.02113         177.044         38.3488 
        1.03692         172.903         37.0131 
        1.05264         169.502         35.7475 
        1.06832         169.097         34.5434 
        1.08405         164.525         33.3919 
        1.09979         162.698         32.2925 
        1.11537           160.8         31.2538 
        1.13105         157.074         30.2548 
        1.14679         155.801         29.2959 
        1.16256         152.597         28.3769 
        1.17828         151.107         27.5006 
        1.19395          147.37         26.6645 
         1.2097         146.596          25.859 
        1.22537         145.152         25.0909 
          1.241         140.634         24.3566 
        1.25666         140.002         23.6499 
        1.27241         136.948         22.9681 
        1.28819         135.479         22.3122 
        1.30392         133.889          21.684 
        1.31957         130.793         21.0829 
        1.33529         128.516         20.5026 
        1.35108         127.712         19.9419 
        1.36674         125.022         19.4063 
         1.3824         124.224         18.8909 
        1.39811         122.432         18.3927 
        1.41389         119.645         17.9106 
        1.42964         117.934         17.4467 
        1.44531         117.163         17.0016 
        1.46101          114.65         16.5712 
        1.47667         114.291          16.157 
        1.49229         112.759         15.7581 
        1.50793         110.419         15.3724 
        1.52367         108.952         14.9971 
        1.53953         107.254         14.6319 
        1.55526         106.482         14.2818 
        1.57092         105.435         13.9447 
        1.58662         103.395         13.6177 
        1.60235         102.165         13.3006 
        1.61809          101.12         12.9935 
        1.63369         99.1935         12.6989 
        1.64941         98.9444         12.4114 
        1.66519         97.1431         12.1317 
        1.68085         95.3589         11.8627 
        1.69652         94.6036         11.6018 
        1.71228         93.1896         11.3473 
        1.72806         92.7351         11.1003 
        1.74368         91.2435         10.8631 
        1.75933         90.2438         10.6324 
        1.77505         89.0306         10.4074 
        1.79081         87.6014         10.1885 
         1.8065         86.1717         9.97688 
        1.82218         85.3538         9.77147 
        1.83797         84.9952         9.57047 
        1.85367         83.3333         9.37625 
        1.86928         82.8931         9.18861 
        1.88497         81.2318          9.0051 
        1.90073         80.6757         8.82595 
        1.91647         79.4094         8.65185 
        1.93218         78.5888         8.48284 
        1.94787         77.2019         8.31861 
        1.96363          76.553         8.15809 
        1.97935         75.8756         8.00216 
        1.99499         75.2766          7.8512 
        2.01064          73.635         7.70393 
         2.0264         72.9542         7.55952 
        2.04216         71.8436         7.41891 
        2.05781         71.0033         7.28277 
        2.07353          70.376         7.14958 
        2.08928         69.5226         7.01944 
        2.10499         68.5957          6.8929 
        2.12065          68.068         6.76987 
        2.13633         67.0556         6.64975 
        2.15211         66.0796         6.53178 
        2.16785         65.0409         6.41701 
        2.18349         64.4621         6.30572 
        2.19916         63.8445         6.19686 
        2.21489         63.0046         6.09021 
        2.23063          61.993         5.98601 
         2.2463          61.533         5.88472 
        2.26194         61.0876         5.78604 
        2.27765          60.007         5.68912 
        2.29341         59.4086         5.59418 
        2.30914         58.7177         5.50161 
        2.32486         58.1254         5.41119 
        2.34061         57.0738         5.32266 
        2.35635         56.6702          5.2362 
        2.37203         55.8227         5.15196 
        2.38768         55.4915         5.06976 
        2.40339         54.8228         4.98905 
        2.41914          53.832         4.90993 
        2.43483         53.6877          4.8328 
         2.4505         52.9928         4.75747 
        2.46622         52.4403         4.68348 
        2.48195         51.7509         4.61108 
        2.49759         51.3121         4.54059 
        2.51328          50.584          4.4714 
        2.52906         50.1291         4.40321 
        2.54479         49.6377         4.33671 
        2.56049         48.6842         4.27171 
        2.57618         48.3534         4.20811 
        2.59189         47.7676         4.14571 
        2.60758         47.2089         4.08468 
        2.62325         46.9059         4.02495 
        2.63898         46.4141         3.96621 
        2.65468         45.8744         3.90877 
        2.67044         45.3478         3.85223 
        2.68618         44.8668         3.79694 
        2.70184         44.4526         3.74296 
        2.71755         43.6524          3.6899 
        2.73329          43.322         3.63778 
        2.74897         42.9389         3.58685 
        2.76462         42.5712         3.53701 
        2.78034         42.1392         3.48791 
        2.79607         41.5151         3.43969 
        2.81179         41.0699         3.39244 
        2.82749         40.7464         3.34614 
        2.84321         40.3646         3.30065 
        2.85893         39.8388         3.25603 
        2.87462         39.4456          3.2123 
        2.89033         38.8352         3.16934 
        2.90605         38.4383         3.12714 
        2.92176         38.3395         3.08572 
        2.93747         37.8478         3.04508 
        2.95318         37.3968         3.00516 
        2.96891         36.9528         2.96595 
        2.98456         36.6671          2.9276 
        3.00023         36.1729         2.88989 
        3.01596         35.6626         2.85272 
        3.03164         35.4087         2.81631 
        3.04738         35.0947         2.78043 
         3.0631          34.869          2.7452 
        3.07883         34.4481         2.71057 
        3.09456          34.046         2.67655 
        3.11026         33.6566         2.64316 
        3.12596         33.3761         2.61035 
        3.14163          33.008         2.57817 
        3.15734         32.6649         2.54647 
        3.17308         32.3785         2.51522 
        3.18879         32.0694         2.48458 
        3.20447          31.599          2.4545 
         3.2202         31.3604         2.42482 
         3.2359         31.1215         2.39569 
        3.25157          30.753         2.36711 
        3.26729         30.5192         2.33891 
        3.28304         30.1717         2.31111 
        3.29877          29.768         2.28381 
        3.31446         29.5104           2.257 
        3.33014         29.2304         2.23065 
        3.34585         28.8525         2.20469 
        3.36158         28.6968         2.17909 
        3.37727         28.3342         2.15399 
        3.39294          28.124          2.1293 
        3.40867          27.842         2.10492 
        3.42439         27.5837         2.08093 
        3.44008         27.3067         2.05736 
        3.45578         27.0787         2.03414 
        3.47153         26.8393         2.01123 
        3.48724         26.4881         1.98871 
        3.50292         26.3378         1.96659 
        3.51859         26.0287         1.94482 
        3.53431         25.7863         1.92331 
        3.55007         25.5152         1.90207 
        3.56577         25.2269         1.88124 
        3.58146         24.9728         1.86073 
        3.59719         24.8042         1.84048 
        3.61292         24.5429         1.82054 
        3.62859         24.3171         1.80097 
        3.64429         24.0905         1.78165 
        3.66003         23.8395         1.76256 
        3.67578          23.617         1.74375 
        3.69146         23.3999         1.72529 
        3.70712         23.2268         1.70713 
        3.72284         23.0423         1.68917 
        3.73853         22.8569         1.67149 
        3.75422         22.5616         1.65407 
        3.76993         22.4013         1.63687 
        3.78564         22.1718         1.61993 
        3.80137         21.9376          1.6032 
        3.81707         21.7772         1.58675 
        3.83279         21.5393         1.57051 
        3.84853          21.333         1.55447 
        3.86424         21.1499         1.53869 
        3.87992         20.9706         1.52315 
        3.89561         20.7574         1.50783 
        3.91134         20.5692         1.49269 
        3.92704         20.3423         1.47777 
        3.94273         20.1776         1.46307 
        3.95845         20.0441         1.44854 
        3.97418         19.8675         1.43421 
        3.98988         19.6175          1.4201 
        4.00554         19.4462         1.40621 
        4.02125         19.3252         1.39247 
        4.03698         19.0972         1.37889 
        4.05268         18.9663         1.36552 
        4.06839         18.7741         1.35232 
         4.0841         18.5952          1.3393 
        4.09983         18.4574         1.32644 
        4.11555         18.3024         1.31375 
        4.13124         18.1845         1.30126 
        4.14693         17.9816         1.28892 
        4.16266         17.8705         1.27671 
        4.17839         17.7017         1.26467 
        4.19408         17.5345         1.25281 
        4.20977         17.3773          1.2411 
        4.22551         17.2378         1.22951 
        4.24123         17.0962         1.21808 
        4.25691         16.9738         1.20683 
        4.27259         16.7666         1.19572 
        4.28831         16.6629         1.18473 
        4.30404         16.5272         1.17386 
        4.31974         16.3882         1.16315 
        4.33543         16.1975         1.15259 
        4.35116         16.1091         1.14213 
        4.36688         15.9133          1.1318 
        4.38255         15.8255         1.12164 
        4.39825         15.6903         1.11158 
        4.41398         15.5647         1.10163 
         4.4297         15.4302         1.09181 
        4.44541         15.3041         1.08211 
        4.46111         15.1311         1.07254 
        4.47683         15.0542         1.06307 
        4.49251         14.8875         1.05374 
        4.50819         14.7623         1.04452 
         4.5239          14.715         1.03541 
        4.53962          14.509         1.02639 
        4.55535         14.4367         1.01747 
        4.57106         14.3188         1.00867 
        4.58678         14.1641        0.999973 
         4.6025         14.0542        0.991378 
        4.61821         13.9448        0.982885 
        4.63391         13.8323        0.974503 
         4.6496         13.6902        0.966222 
        4.66532         13.5862        0.958025 
        4.68103          13.504        0.949927 
        4.69673         13.3926         0.94193 
        4.71241         13.2706        0.934034 
        4.72811         13.1864        0.926215 
        4.74384         13.0671        0.918476 
        4.75955         12.9452        0.910837 
        4.77525         12.8396         0.90329 
        4.79096         12.7513        0.895819 
        4.80669         12.6231         0.88843 
         4.8224         12.5484        0.881132 
        4.83809         12.4342        0.873924 
        4.85379         12.3375        0.866792 
         4.8695         12.2712        0.859735 
        4.88521         12.1561        0.852759 
        4.90093         12.0617         0.84586 
        4.91663          11.949        0.839043 
        4.93234         11.8811        0.832294 
        4.94807         11.7993        0.825616 
        4.96377         11.7107        0.819023 
        4.97943         11.5991        0.812516 
        4.99514          11.499        0.806063 
        5.01086         11.4174        0.799676 
        5.02654         11.3452        0.793374 
        5.04227         11.2495        0.787122 
          5.058         11.1489        0.780935 
        5.07371         11.0834        0.774826 
        5.08942          11.009        0.768782 
        5.10513         10.8881        0.762802 
        5.12084         10.8212        0.756882 
        5.13656         10.7397        0.751027 
        5.15225          10.668        0.745243 
        5.16796         10.5805        0.739512 
        5.18369         10.4804        0.733836 
         5.1994         10.4318        0.728229 
        5.21509         10.3477        0.722687 
        5.23079         10.2583        0.717195 
        5.24649          10.181        0.711765 
        5.26217         10.1184        0.706396 
        5.27788         10.0518        0.701074 
        5.29359         9.94647        0.695806 
        5.30933         9.87557        0.690585 
        5.32504         9.82181        0.685426 
        5.34073         9.75211        0.680326 
        5.35646         9.67239        0.675267 
        5.37218         9.60105        0.670259 
        5.38789         9.52668         0.66531 
        5.40357         9.44065        0.660417 
        5.41929         9.40287        0.655562 
        5.43502         9.32306        0.650756 
         5.4507         9.24835        0.646009 
        5.46639          9.1891        0.641309 
        5.48212         9.12275        0.636645 
        5.49786         9.04105        0.632022 
        5.51353         8.99621        0.627468 
        5.52921         8.92582        0.622954 
        5.54495         8.86193        0.618471 
        5.56066         8.79666        0.614038 
        5.57637         8.74009        0.609649 
        5.59207         8.65676        0.605306 
        5.60778         8.62245        0.601004 
        5.62346         8.54771        0.596751 
        5.63916         8.49193        0.592534 
        5.65487         8.43222        0.588356 
         5.6706         8.36409        0.584214 
        5.68633         8.29918         0.58011 
        5.70203         8.25228        0.576053 
        5.71773         8.18539        0.572037 
        5.73344         8.13642        0.568057 
        5.74916         8.07519        0.564111 
        5.76486         8.02372        0.560207 
        5.78054         7.97011        0.556347 
        5.79626         7.90653        0.552513 
          5.812         7.85252        0.548711 
         5.8277          7.7806        0.544956 
        5.84339         7.72853        0.541236 
        5.85911         7.67772        0.537544 
        5.87484         7.64452        0.533887 
        5.89053         7.59668        0.530271 
        5.90623         7.53409        0.526687 
        5.92195         7.47115         0.52313 
        5.93767         7.42859        0.519608 
        5.95336         7.37089        0.516125 
        5.96905         7.31095        0.512674 
        5.98476         7.29267        0.509251 
        6.00048         7.22817        0.505857 
        6.01617         7.17702        0.502499 
        6.03185         7.12452        0.499176 
        6.04756         7.07435        0.495875 
        6.06331         7.03276        0.492597 
        6.07903         6.98877        0.489355 
        6.09473         6.92425        0.486146 
        6.11044         6.88018        0.482962 
        6.12616         6.85029        0.479808 
        6.14186         6.81975        0.476685 
        6.15755         6.76876         0.47359 
        6.17326         6.70807         0.47052 
        6.18898         6.66988        0.467476 
        6.20467         6.63144        0.464464 
        6.22036         6.58549        0.461479 
         6.2361         6.55455        0.458513 
         6.2518         6.50132        0.455577 
        6.26748         6.46282        0.452674 
        6.28319           6.424        0.449788 
        6.29893         6.37031        0.446924 
        6.31463         6.32752        0.444091 
        6.33033         6.27766        0.441283 
        6.34604         6.25465        0.438497 
        6.36177         6.21181        0.435733 
        6.37747         6.17276        0.432998 
