# k  (h/Mpc)    Pcb(k)  (Mpc/h)^3    Pcb_linear(k) (Mpc/h)^3   ShotnoiseSubtracted = true
      0.0200456         22721.1         23117.6 
      0.0350414         15418.5         14808.7 
      0.0492313         9783.99         9898.31 
      0.0637834         7895.58         8226.05 
      0.0800726          6201.8         6559.83 
       0.096163         4766.48         4478.94 
       0.111083         3733.91         3417.09 
       0.126058         3122.65          3095.3 
       0.142273         2754.98         2672.21 
       0.158546         2209.12         2034.39 
        0.17375         1929.74         1655.95 
       0.188953         1828.88         1517.27 
       0.204907         1569.65         1371.36 
       0.220756         1412.38         1143.06 
        0.23588         1247.24         968.177 
         0.2514         1119.73         878.983 
       0.267535         1083.48         807.916 
       0.283568         956.929         710.644 
       0.299022         907.025         622.939 
       0.314451         941.762         566.149 
       0.330372         817.414         523.264 
       0.346141          749.87         476.015 
       0.361624         717.315         429.307 
       0.377134         685.315         392.577 
       0.392932         650.557          363.91 
       0.408854         623.884         336.289 
       0.424564         606.624         309.101 
       0.440253         556.462         285.346 
       0.455999         530.333          265.65 
       0.471626         541.123         248.037 
        0.48727         507.269         231.059 
       0.502856         482.881         215.511 
       0.518488         469.519         201.844 
       0.534347         448.458         189.412 
       0.550082          426.33         177.898 
       0.565732         421.136         167.213 
       0.581496             410         157.444 
       0.597222         399.389         148.588 
       0.612804         388.005         140.467 
       0.628434         373.071         132.865 
       0.644267         360.136         125.727 
       0.660051          356.12         119.181 
       0.675724         346.835         113.158 
       0.691403         339.903         107.545 
       0.707174         327.325         102.279 
       0.722871         323.557         97.3852 
        0.73838         315.658          92.863 
       0.754018         305.804         88.5933 
       0.769845         304.438         84.5454 
        0.78569         296.007         80.7468 
       0.801365         286.036         77.2195 
       0.817031         284.892         73.9064 
       0.832809         278.298         70.7681 
       0.848511         273.542         67.8277 
       0.864097         264.618         65.0761 
       0.879701         264.414         62.4758 
       0.895507         255.903         59.9882 
       0.911279         250.474         57.6423 
        0.92691         248.055         55.4422 
       0.942635         244.361         53.3458 
       0.958396         237.706         51.3541 
       0.974128         235.389         49.4684 
       0.989692         227.128         47.6967 
        1.00528         226.004         46.0098 
        1.02113         223.357         44.3785 
        1.03692          218.72         42.8328 
        1.05264         214.552         41.3682 
        1.06832         212.202         39.9748 
        1.08405          208.34         38.6422 
        1.09979         204.861           37.37 
        1.11537         202.277         36.1679 
        1.13105         197.854         35.0119 
        1.14679         196.293         33.9022 
        1.16256         193.343         32.8387 
        1.17828         190.728         31.8246 
        1.19395         186.118          30.857 
         1.2097         185.616         29.9249 
        1.22537         183.118         29.0361 
          1.241         177.059         28.1862 
        1.25666         176.782         27.3685 
        1.27241         173.762         26.5795 
        1.28819         171.283         25.8205 
        1.30392         169.672         25.0935 
        1.31957         165.435         24.3979 
        1.33529         162.371         23.7263 
        1.35108         162.081         23.0774 
        1.36674         157.541         22.4576 
         1.3824         156.663         21.8612 
        1.39811         155.379         21.2846 
        1.41389          151.64         20.7268 
        1.42964         148.968         20.1899 
        1.44531         148.461         19.6748 
        1.46101         145.473         19.1767 
        1.47667         144.469         18.6974 
        1.49229         142.678         18.2358 
        1.50793         139.777         17.7894 
        1.52367         137.814         17.3551 
        1.53953           135.5         16.9325 
        1.55526         134.346         16.5274 
        1.57092         133.252         16.1373 
        1.58662         130.509         15.7589 
        1.60235         129.136          15.392 
        1.61809         127.015         15.0366 
        1.63369         124.864         14.6956 
        1.64941         124.173         14.3628 
        1.66519         121.907         14.0392 
        1.68085         120.188         13.7279 
        1.69652         119.031          13.426 
        1.71228         116.946         13.1315 
        1.72806         116.343         12.8456 
        1.74368         115.046         12.5712 
        1.75933         113.573         12.3042 
        1.77505         112.095         12.0438 
        1.79081         110.084         11.7905 
         1.8065         108.387         11.5456 
        1.82218           106.9         11.3079 
        1.83797         106.226         11.0753 
        1.85367         104.882         10.8505 
        1.86928         103.968         10.6334 
        1.88497         102.222          10.421 
        1.90073         101.468         10.2137 
        1.91647         99.6582         10.0122 
        1.93218         98.5331         9.81663 
        1.94787          96.889         9.62657 
        1.96363         96.3442         9.44082 
        1.97935         95.1503         9.26036 
        1.99499         94.1223         9.08567 
        2.01064         92.5967         8.91524 
         2.0264         91.4346         8.74813 
        2.04216         90.3102         8.58541 
        2.05781         88.9968         8.42787 
        2.07353         88.4222         8.27373 
        2.08928         87.1208         8.12313 
        2.10499         86.4133         7.97669 
        2.12065         85.0575         7.83432 
        2.13633         84.2932         7.69531 
        2.15211         82.8581         7.55879 
        2.16785         81.8595         7.42598 
        2.18349         80.4523          7.2972 
        2.19916         80.1719         7.17121 
        2.21489         79.1883         7.04779 
        2.23063         77.7425         6.92721 
         2.2463         76.9536            6.81 
        2.26194         76.4367          6.6958 
        2.27765         74.9441         6.58364 
        2.29341         74.2081         6.47377 
        2.30914         73.1564         6.36665 
        2.32486         72.2817         6.26201 
        2.34061          71.332         6.15956 
        2.35635         70.8788          6.0595 
        2.37203         69.6338         5.96202 
        2.38768         69.0654         5.86689 
        2.40339         68.0798          5.7735 
        2.41914         67.3237         5.68193 
        2.43483         66.6246         5.59268 
         2.4505          65.769          5.5055 
        2.46622          65.079         5.41989 
        2.48195         64.6091         5.33609 
        2.49759         63.5476         5.25452 
        2.51328         62.6353         5.17445 
        2.52906         62.0377         5.09555 
        2.54479         61.4057         5.01859 
        2.56049         60.5503         4.94337 
        2.57618         59.9728         4.86977 
        2.59189         59.2075         4.79755 
        2.60758         58.4749         4.72693 
        2.62325         57.8604         4.65781 
        2.63898         57.4514         4.58983 
        2.65468         56.6716         4.52337 
        2.67044         56.0923         4.45793 
        2.68618         55.8082         4.39395 
        2.70184         54.8791         4.33148 
        2.71755         54.3191         4.27007 
        2.73329         53.4744         4.20976 
        2.74897         53.0985         4.15082 
        2.76462         52.4221         4.09314 
        2.78034         51.8474         4.03632 
        2.79607         51.5526         3.98053 
        2.81179         50.8957         3.92585 
        2.82749           50.48         3.87227 
        2.84321         49.8108         3.81963 
        2.85893         49.1739         3.76798 
        2.87462         48.8252         3.71738 
        2.89033         48.0702         3.66767 
        2.90605          47.613         3.61883 
        2.92176         47.1263          3.5709 
        2.93747         46.8148         3.52387 
        2.95318         46.2076         3.47768 
        2.96891         45.5791         3.43229 
        2.98456         45.0761         3.38792 
        3.00023         44.7373         3.34427 
        3.01596         44.0537         3.30126 
        3.03164         43.5979         3.25913 
        3.04738         43.1688         3.21761 
         3.0631         42.7593         3.17683 
        3.07883          42.174         3.13676 
        3.09456         41.8226         3.09739 
        3.11026         41.5123         3.05875 
        3.12596         41.0065         3.02079 
        3.14163         40.5363         2.98355 
        3.15734         40.0815         2.94686 
        3.17308         39.8208         2.91069 
        3.18879         39.4291         2.87524 
        3.20447         39.0795         2.84043 
         3.2202         38.5714         2.80609 
         3.2359         38.2279         2.77238 
        3.25157         37.9307          2.7393 
        3.26729         37.3887         2.70666 
        3.28304          37.045          2.6745 
        3.29877         36.6326          2.6429 
        3.31446         36.2767         2.61188 
        3.33014         35.9877         2.58139 
        3.34585         35.4904         2.55134 
        3.36158          35.281         2.52172 
        3.37727         34.7471         2.49267 
        3.39294         34.5417          2.4641 
        3.40867          34.195         2.43588 
        3.42439         33.8414         2.40812 
        3.44008         33.5174         2.38084 
        3.45578          33.162         2.35397 
        3.47153         32.8135         2.32746 
        3.48724         32.4749          2.3014 
        3.50292         32.2181          2.2758 
        3.51859         31.9062         2.25061 
        3.53431         31.6453         2.22571 
        3.55007         31.3023         2.20114 
        3.56577         31.0199         2.17703 
        3.58146         30.7049          2.1533 
        3.59719           30.41         2.12987 
        3.61292         30.1441         2.10679 
        3.62859         29.8334         2.08414 
        3.64429         29.5225         2.06179 
        3.66003         29.3966         2.03969 
        3.67578          28.996         2.01793 
        3.69146         28.7184         1.99656 
        3.70712          28.386         1.97555 
        3.72284         28.1622         1.95476 
        3.73853         28.0001         1.93431 
        3.75422          27.604         1.91414 
        3.76993         27.4439         1.89425 
        3.78564         27.2035         1.87464 
        3.80137         26.9743         1.85528 
        3.81707         26.6005         1.83624 
        3.83279         26.4908         1.81745 
        3.84853         26.1115         1.79889 
        3.86424          25.973         1.78063 
        3.87992          25.716         1.76264 
        3.89561         25.4134         1.74491 
        3.91134         25.1598         1.72739 
        3.92704         24.9538         1.71012 
        3.94273         24.7256         1.69311 
        3.95845         24.5291          1.6763 
        3.97418         24.2597         1.65972 
        3.98988         24.0061         1.64338 
        4.00554         23.8927         1.62731 
        4.02125         23.6237         1.61141 
        4.03698         23.3691          1.5957 
        4.05268         23.2351         1.58023 
        4.06839         22.9648         1.56495 
         4.0841         22.7673         1.54989 
        4.09983         22.5244           1.535 
        4.11555          22.357         1.52031 
        4.13124         22.1649         1.50586 
        4.14693         21.9825         1.49158 
        4.16266         21.7356         1.47745 
        4.17839         21.6431         1.46352 
        4.19408         21.4449          1.4498 
        4.20977         21.2315         1.43624 
        4.22551         21.0589         1.42283 
        4.24123         20.8448         1.40961 
        4.25691         20.6203         1.39659 
        4.27259         20.5407         1.38373 
        4.28831         20.3334           1.371 
        4.30404         20.1832         1.35843 
        4.31974          19.971         1.34604 
        4.33543         19.8017         1.33381 
        4.35116         19.6476         1.32171 
        4.36688         19.5202         1.30976 
        4.38255         19.2687           1.298 
        4.39825         19.1308         1.28636 
        4.41398          18.951         1.27484 
         4.4297         18.7949         1.26348 
        4.44541         18.6544         1.25225 
        4.46111         18.4828         1.24117 
        4.47683         18.3442         1.23022 
        4.49251         18.1814         1.21942 
        4.50819         18.0828         1.20876 
         4.5239         17.8875         1.19821 
        4.53962         17.7613         1.18777 
        4.55535         17.5875         1.17745 
        4.57106         17.4669         1.16727 
        4.58678         17.2764          1.1572 
         4.6025         17.1753         1.14726 
        4.61821          17.016         1.13743 
        4.63391         16.8976         1.12773 
         4.6496         16.7512         1.11814 
        4.66532         16.5843         1.10866 
        4.68103         16.4921         1.09929 
        4.69673         16.3164         1.09003 
        4.71241         16.2463          1.0809 
        4.72811         16.0639         1.07185 
        4.74384         15.9447         1.06289 
        4.75955         15.8407         1.05405 
        4.77525         15.7083         1.04532 
        4.79096         15.5827         1.03667 
        4.80669         15.4442         1.02812 
         4.8224         15.3189         1.01968 
        4.83809         15.1788         1.01133 
        4.85379         15.0728         1.00308 
         4.8695         14.9746        0.994914 
        4.88521         14.8153        0.986841 
        4.90093          14.731        0.978857 
        4.91663         14.6119        0.970969 
        4.93234         14.4863        0.963159 
        4.94807         14.4031         0.95543 
        4.96377         14.2778        0.947801 
        4.97943         14.1828        0.940271 
        4.99514         14.0517        0.932804 
        5.01086         13.9278        0.925412 
        5.02654         13.8408         0.91812 
        5.04227         13.7146        0.910884 
          5.058         13.6051        0.903724 
        5.07371         13.5241        0.896655 
        5.08942          13.426         0.88966 
        5.10513         13.3308        0.882739 
        5.12084         13.2262        0.875889 
        5.13656         13.0963        0.869114 
        5.15225         12.9901        0.862421 
        5.16796         12.8898        0.855788 
        5.18369         12.8316        0.849219 
         5.1994         12.6834        0.842731 
        5.21509         12.6188        0.836317 
        5.23079         12.5259        0.829962 
        5.24649         12.4162        0.823679 
        5.26217         12.3265        0.817465 
        5.27788         12.2424        0.811306 
        5.29359          12.138         0.80521 
        5.30933         12.0498        0.799168 
        5.32504         11.9892        0.793198 
        5.34073         11.8851        0.787296 
        5.35646         11.7957        0.781442 
        5.37218         11.7174        0.775646 
        5.38789         11.6213        0.769919 
        5.40357         11.5235        0.764257 
        5.41929         11.4395        0.758638 
        5.43502         11.3426        0.753076 
         5.4507         11.2724        0.747583 
        5.46639         11.1932        0.742144 
        5.48212         11.1179        0.736747 
        5.49786         11.0107        0.731397 
        5.51353         10.9611        0.726127 
        5.52921          10.865        0.720903 
        5.54495          10.758        0.715716 
        5.56066         10.7259        0.710585 
        5.57637          10.638        0.705506 
        5.59207         10.5679        0.700481 
        5.60778         10.4895        0.695503 
        5.62346         10.3952         0.69058 
        5.63916         10.3464          0.6857 
        5.65487         10.2537        0.680865 
         5.6706         10.1952        0.676072 
        5.68633         10.1246        0.671322 
        5.70203         10.0549        0.666628 
        5.71773         9.97398         0.66198 
        5.73344            9.91        0.657374 
        5.74916         9.83563        0.652808 
        5.76486         9.79058        0.648291 
        5.78054         9.70114        0.643824 
        5.79626         9.61081        0.639387 
          5.812         9.57199        0.634987 
         5.8277         9.48925        0.630641 
        5.84339         9.42331        0.626336 
        5.85911         9.37053        0.622064 
        5.87484         9.28621        0.617832 
        5.89053         9.21271        0.613647 
        5.90623          9.1805          0.6095 
        5.92195         9.09782        0.605384 
        5.93767         9.03117        0.601308 
        5.95336         8.98297        0.597277 
        5.96905         8.90968        0.593284 
        5.98476         8.87083        0.589322 
        6.00048         8.80421        0.585395 
        6.01617         8.73151        0.581509 
        6.03185         8.68113        0.577663 
        6.04756         8.62715        0.573843 
        6.06331         8.55554        0.570049 
        6.07903         8.51302        0.566298 
        6.09473         8.45548        0.562584 
        6.11044         8.39611          0.5589 
        6.12616         8.31154         0.55525 
        6.14186         8.25832        0.551635 
        6.15755          8.2255        0.548054 
        6.17326         8.17528        0.544501 
        6.18898          8.1262        0.540979 
        6.20467         8.06306        0.537493 
        6.22036         8.00282        0.534039 
         6.2361         7.96283        0.530606 
         6.2518         7.89637        0.527209 
        6.26748         7.84069        0.523849 
        6.28319         7.79996        0.520509 
        6.29893         7.74363        0.517196 
        6.31463          7.6923        0.513917 
        6.33033         7.65208        0.510667 
        6.34604         7.59485        0.507444 
        6.36177         7.56059        0.504245 
        6.37747         7.49625         0.50108 
