# k  (h/Mpc)    Pcb(k)  (Mpc/h)^3    Pcb_linear(k) (Mpc/h)^3   ShotnoiseSubtracted = true
      0.0200456         5615.35         5682.02 
      0.0350414         3699.36         3599.14 
      0.0492313         2449.94         2445.29 
      0.0637834         1960.68         2002.96 
      0.0800726         1484.41         1519.44 
       0.096163         1077.94         1037.27 
       0.111083         860.458         821.332 
       0.126058         732.352         734.511 
       0.142273         603.989         599.953 
       0.158546         475.617         455.777 
        0.17375         410.341         386.913 
       0.188953         374.383         352.833 
       0.204907         311.918         303.963 
       0.220756         271.407         250.586 
        0.23588         238.607         219.118 
         0.2514         214.375         200.189 
       0.267535         199.766         178.018 
       0.283568         172.163          154.21 
       0.299022         159.875         137.513 
       0.314451         152.954          126.08 
       0.330372          133.28          114.49 
       0.346141         121.597         102.646 
       0.361624          112.77         93.0888 
       0.377134         102.889         85.7255 
       0.392932         99.0797         78.8694 
       0.408854         92.0688         72.1075 
       0.424564         87.1478         66.2292 
       0.440253         79.1008          61.341 
       0.455999         72.4063         56.9464 
       0.471626         69.4975         52.8192 
        0.48727         66.8708         49.0629 
       0.502856         61.4653          45.782 
       0.518488         58.9435         42.8171 
       0.534347         55.2707         40.0284 
       0.550082          53.353         37.4775 
       0.565732         51.4586          35.188 
       0.581496         47.3681         33.0872 
       0.597222         45.5692         31.1524 
       0.612804         43.5191         29.3753 
       0.628434         42.6115         27.7355 
       0.644267         40.1403         26.2089 
       0.660051         38.4987         24.8008 
       0.675724         36.9556         23.5029 
       0.691403         36.1514          22.296 
       0.707174         34.6663         21.1664 
       0.722871         33.6482         20.1189 
        0.73838         32.0812         19.1529 
       0.754018         30.2125         18.2426 
       0.769845         29.7615         17.3812 
        0.78569         28.6939         16.5744 
       0.801365         27.7187         15.8266 
       0.817031         26.5532         15.1254 
       0.832809         25.9768         14.4621 
       0.848511         25.1383         13.8415 
       0.864097         24.4826         13.2615 
       0.879701         23.9465          12.714 
       0.895507         22.9798          12.191 
       0.911279         22.2485         11.6984 
        0.92691         21.8409         11.2371 
       0.942635         21.2773          10.798 
       0.958396         20.7738         10.3813 
       0.974128          20.194         9.98735 
       0.989692         19.3106         9.61763 
        1.00528         19.0586         9.26602 
        1.02113         18.4983         8.92643 
        1.03692          18.177         8.60506 
        1.05264         17.7634         8.30093 
        1.06832         17.3649         8.01193 
        1.08405         16.8587         7.73587 
        1.09979         16.6109         7.47262 
        1.11537         16.0237         7.22418 
        1.13105         15.7857         6.98552 
        1.14679          15.364         6.75668 
        1.16256         15.1204         6.53762 
        1.17828         14.8392         6.32896 
        1.19395         14.5123         6.13008 
         1.2097         14.2724         5.93871 
        1.22537         13.9465          5.7564 
          1.241         13.6229         5.58227 
        1.25666         13.3984         5.41489 
        1.27241          13.206         5.25356 
        1.28819         12.6918         5.09851 
        1.30392          12.756         4.95014 
        1.31957         12.4133         4.80832 
        1.33529         12.1983         4.67151 
        1.35108         12.0134         4.53946 
        1.36674         11.7765         4.41345 
         1.3824         11.5189         4.29231 
        1.39811          11.302          4.1753 
        1.41389         11.1585         4.06218 
        1.42964          11.023         3.95344 
        1.44531         10.8127         3.84918 
        1.46101         10.6768         3.74845 
        1.47667         10.4573         3.65161 
        1.49229         10.1919         3.55843 
        1.50793         10.1268         3.46839 
        1.52367         9.97536         3.38087 
        1.53953          9.8447         3.29577 
        1.55526         9.61456         3.21427 
        1.57092         9.56634         3.13584 
        1.58662         9.41244         3.05984 
        1.60235         9.28523         2.98619 
        1.61809         9.10895         2.91492 
        1.63369         8.97968          2.8466 
        1.64941         8.83274         2.77997 
        1.66519          8.7707         2.71523 
        1.68085         8.54897         2.65299 
        1.69652         8.54992         2.59268 
        1.71228         8.39189          2.5339 
        1.72806         8.26235         2.47688 
        1.74368         8.17368         2.42218 
        1.75933         8.06553         2.36901 
        1.77505         7.94074         2.31719 
        1.79081         7.84518         2.26681 
         1.8065         7.76833         2.21814 
        1.82218         7.70059         2.17094 
        1.83797         7.58979         2.12478 
        1.85367         7.50238         2.08021 
        1.86928          7.3852         2.03718 
        1.88497         7.30333         1.99513 
        1.90073         7.19369          1.9541 
        1.91647         7.05015         1.91426 
        1.93218         7.02542         1.87561 
        1.94787         6.91623         1.83807 
        1.96363          6.8556         1.80141 
        1.97935          6.7633         1.76582 
        1.99499         6.68033         1.73139 
        2.01064          6.6109         1.69782 
         2.0264         6.51476         1.66492 
        2.04216         6.51066         1.63291 
        2.05781         6.42327         1.60194 
        2.07353         6.33256         1.57165 
        2.08928         6.26359         1.54208 
        2.10499         6.19688         1.51335 
        2.12065          6.1363         1.48543 
        2.13633           6.047         1.45818 
        2.15211         6.00449         1.43144 
        2.16785         5.92617         1.40545 
        2.18349         5.87264         1.38025 
        2.19916         5.82901         1.35562 
        2.21489         5.75578          1.3315 
        2.23063         5.71467         1.30795 
         2.2463         5.62453         1.28508 
        2.26194          5.5678          1.2628 
        2.27765         5.50989         1.24094 
        2.29341         5.44166         1.21953 
        2.30914         5.41543         1.19867 
        2.32486         5.35393         1.17831 
        2.34061          5.3139         1.15838 
        2.35635         5.27331         1.13893 
        2.37203         5.19336         1.11999 
        2.38768         5.13979         1.10152 
        2.40339         5.09873         1.08339 
        2.41914         5.03934         1.06563 
        2.43483         5.03701         1.04833 
         2.4505         4.95756         1.03144 
        2.46622         4.90169         1.01486 
        2.48195         4.89335        0.998639 
        2.49759         4.81975        0.982859 
        2.51328         4.77986        0.967378 
        2.52906         4.72846         0.95213 
        2.54479         4.69712        0.937265 
        2.56049         4.62963        0.922745 
        2.57618         4.61135        0.908543 
        2.59189         4.60829        0.894617 
        2.60758         4.52999        0.881003 
        2.62325         4.47589        0.867687 
        2.63898         4.47365        0.854598 
        2.65468         4.42087        0.841805 
        2.67044         4.39673        0.829218 
        2.68618         4.32511        0.816916 
        2.70184          4.3126         0.80491 
        2.71755         4.27143        0.793115 
        2.73329         4.22057        0.781537 
        2.74897         4.18691        0.770226 
        2.76462         4.16964        0.759162 
        2.78034         4.12726        0.748269 
        2.79607         4.10426        0.737577 
        2.81179         4.05876        0.727105 
        2.82749         4.02296        0.716847 
        2.84321               4        0.706774 
        2.85893         3.96415        0.696896 
        2.87462         3.93988        0.687223 
        2.89033         3.89849        0.677723 
        2.90605         3.86925        0.668394 
        2.92176         3.83714        0.659244 
        2.93747         3.80439        0.650269 
        2.95318         3.77991        0.641458 
        2.96891         3.74582        0.632806 
        2.98456         3.71578         0.62435 
        3.00023         3.69714        0.616035 
        3.01596         3.65723        0.607845 
        3.03164         3.63242        0.599827 
        3.04738         3.60812        0.591929 
         3.0631         3.58325        0.584174 
        3.07883         3.55023        0.576558 
        3.09456          3.5123        0.569078 
        3.11026         3.49542        0.561741 
        3.12596          3.4739        0.554533 
        3.14163         3.44464        0.547468 
        3.15734         3.42016        0.540508 
        3.17308         3.40984        0.533652 
        3.18879         3.36858        0.526933 
        3.20447         3.35151        0.520339 
         3.2202         3.32735        0.513836 
         3.2359         3.30078        0.507455 
        3.25157         3.27666        0.501198 
        3.26729         3.25958        0.495026 
        3.28304         3.22533        0.488945 
        3.29877         3.20743        0.482974 
        3.31446         3.19837        0.477114 
        3.33014         3.16117        0.471357 
        3.34585         3.13924        0.465685 
        3.36158         3.12095        0.460098 
        3.37727         3.09055        0.454618 
        3.39294         3.07684        0.449233 
        3.40867         3.05947        0.443915 
        3.42439         3.04198        0.438686 
        3.44008          3.0187         0.43355 
        3.45578         2.99217        0.428492 
        3.47153         2.97258        0.423503 
        3.48724         2.95035        0.418602 
        3.50292         2.92912         0.41379 
        3.51859          2.9125        0.409054 
        3.53431         2.88749        0.404378 
        3.55007         2.87752        0.399763 
        3.56577         2.85031        0.395238 
        3.58146         2.83582        0.390784 
        3.59719          2.8273        0.386388 
        3.61292         2.79476        0.382061 
        3.62859         2.78004        0.377816 
        3.64429         2.76548        0.373627 
        3.66003         2.74815        0.369488 
        3.67578         2.73604        0.365413 
        3.69146         2.71443        0.361415 
        3.70712         2.69734        0.357483 
        3.72284         2.68132        0.353594 
        3.73853         2.66007         0.34977 
        3.75422           2.635        0.346001 
        3.76993         2.63101        0.342284 
        3.78564          2.6135        0.338622 
        3.80137         2.58875        0.335008 
        3.81707         2.57491        0.331453 
        3.83279         2.55598        0.327947 
        3.84853         2.53552        0.324486 
        3.86424         2.52088        0.321081 
        3.87992         2.51265        0.317729 
        3.89561          2.4901        0.314425 
        3.91134         2.47459        0.311161 
        3.92704         2.45929        0.307947 
        3.94273         2.44464        0.304781 
        3.95845         2.43155        0.301654 
        3.97418         2.41133        0.298569 
        3.98988         2.40024        0.295531 
        4.00554         2.38406        0.292544 
        4.02125         2.36485        0.289589 
        4.03698         2.35331         0.28667 
        4.05268         2.33279        0.283798 
        4.06839         2.31644        0.280963 
         4.0841         2.30314        0.278167 
        4.09983         2.29239        0.275405 
        4.11555         2.27716        0.272681 
        4.13124         2.26036        0.270001 
        4.14693         2.24521        0.267355 
        4.16266         2.23171        0.264738 
        4.17839         2.21285        0.262157 
        4.19408         2.20617        0.259617 
        4.20977         2.19395        0.257108 
        4.22551         2.17345        0.254627 
        4.24123         2.16395        0.252181 
        4.25691         2.14806        0.249773 
        4.27259         2.13333        0.247396 
        4.28831          2.1164        0.245044 
        4.30404         2.10917        0.242721 
        4.31974         2.09462        0.240433 
        4.33543         2.08499        0.238175 
        4.35116         2.07244        0.235941 
        4.36688         2.05541        0.233736 
        4.38255         2.04799        0.231568 
        4.39825         2.03703        0.229422 
        4.41398         2.02273        0.227298 
         4.4297         2.01228        0.225204 
        4.44541         1.99686        0.223136 
        4.46111         1.98445        0.221096 
        4.47683         1.97424        0.219079 
        4.49251          1.9604        0.217092 
        4.50819         1.95042        0.215129 
         4.5239         1.93421        0.213188 
        4.53962         1.93129        0.211268 
        4.55535         1.91853        0.209371 
        4.57106          1.9038          0.2075 
        4.58678         1.89637        0.205651 
         4.6025         1.88631        0.203824 
        4.61821         1.87535        0.202019 
        4.63391         1.86721        0.200238 
         4.6496         1.85273        0.198479 
        4.66532         1.84344        0.196739 
        4.68103         1.83152         0.19502 
        4.69673         1.82513        0.193323 
        4.71241         1.81598        0.191648 
        4.72811         1.80765         0.18999 
        4.74384         1.79666        0.188349 
        4.75955         1.78587         0.18673 
        4.77525         1.77865        0.185131 
        4.79096         1.76666        0.183548 
        4.80669         1.75766        0.181983 
         4.8224         1.74554        0.180438 
        4.83809         1.74105        0.178913 
        4.85379         1.73523        0.177404 
         4.8695         1.72582        0.175911 
        4.88521         1.71245        0.174435 
        4.90093         1.70663        0.172977 
        4.91663         1.69653        0.171536 
        4.93234         1.68815         0.17011 
        4.94807            1.68        0.168699 
        4.96377         1.67692        0.167307 
        4.97943         1.66185        0.165933 
        4.99514          1.6582        0.164571 
        5.01086         1.65107        0.163223 
        5.02654         1.63956        0.161894 
        5.04227         1.63276        0.160575 
          5.058         1.62656         0.15927 
        5.07371          1.6198        0.157983 
        5.08942         1.60794        0.156709 
        5.10513         1.60327        0.155449 
        5.12084         1.59226        0.154202 
        5.13656         1.58745        0.152969 
        5.15225         1.57814        0.151752 
        5.16796         1.57456        0.150545 
        5.18369         1.56548        0.149351 
         5.1994         1.55882        0.148172 
        5.21509         1.54921        0.147006 
        5.23079          1.5452        0.145851 
        5.24649         1.53696         0.14471 
        5.26217         1.53186        0.143582 
        5.27788         1.52325        0.142464 
        5.29359         1.51903        0.141357 
        5.30933         1.50949        0.140261 
        5.32504         1.50366        0.139178 
        5.34073         1.49968        0.138108 
        5.35646         1.49013        0.137046 
        5.37218         1.48361        0.135996 
        5.38789         1.47837        0.134958 
        5.40357         1.47609        0.133932 
        5.41929          1.4687        0.132914 
        5.43502         1.46012        0.131907 
         5.4507         1.45317        0.130913 
        5.46639          1.4462        0.129928 
        5.48212         1.43987        0.128952 
        5.49786         1.43714        0.127984 
        5.51353         1.43429        0.127031 
        5.52921         1.42493        0.126086 
        5.54495         1.41946        0.125148 
        5.56066          1.4136        0.124221 
        5.57637         1.40832        0.123303 
        5.59207         1.40114        0.122396 
        5.60778         1.39719        0.121497 
        5.62346         1.39066        0.120608 
        5.63916         1.38259        0.119727 
        5.65487         1.37975        0.118855 
         5.6706         1.37364         0.11799 
        5.68633         1.37049        0.117133 
        5.70203         1.36408        0.116286 
        5.71773         1.36041        0.115448 
        5.73344         1.35436        0.114618 
        5.74916         1.34709        0.113795 
        5.76486         1.34419        0.112981 
        5.78054          1.3412        0.112177 
        5.79626         1.33293        0.111378 
          5.812         1.32525        0.110586 
         5.8277         1.32143        0.109803 
        5.84339         1.31874        0.109029 
        5.85911         1.31349         0.10826 
        5.87484         1.30728        0.107499 
        5.89053         1.30411        0.106746 
        5.90623         1.30068        0.106001 
        5.92195         1.29591        0.105261 
        5.93767         1.28972        0.104528 
        5.95336         1.28272        0.103804 
        5.96905         1.27977        0.103087 
        5.98476          1.2762        0.102375 
        6.00048         1.27282         0.10167 
        6.01617         1.26889        0.100973 
        6.03185         1.26317        0.100283 
        6.04756         1.26062       0.0995972 
        6.06331         1.25327       0.0989166 
        6.07903         1.24852       0.0982439 
        6.09473         1.24337       0.0975779 
        6.11044         1.24179       0.0969175 
        6.12616         1.23755       0.0962633 
        6.14186         1.23284       0.0956157 
        6.15755         1.22784        0.094974 
        6.17326         1.22543       0.0943378 
        6.18898         1.21896        0.093707 
        6.20467         1.21705       0.0930831 
        6.22036         1.21187       0.0924648 
         6.2361         1.20919       0.0918505 
         6.2518         1.20436       0.0912427 
        6.26748         1.19818       0.0906417 
        6.28319         1.19773       0.0900444 
        6.29893         1.19118        0.089452 
        6.31463         1.18739       0.0888659 
        6.33033         1.18393       0.0882851 
        6.34604          1.1802       0.0877091 
        6.36177         1.17669       0.0871377 
        6.37747         1.17474       0.0865724 
