# k  (h/Mpc)    Pcb(k)  (Mpc/h)^3    Pcb_linear(k) (Mpc/h)^3   ShotnoiseSubtracted = true
      0.0200456         6668.11         6763.75 
      0.0350414         4221.97         4284.34 
      0.0492313         2915.88         2910.82 
      0.0637834         2431.36         2384.28 
      0.0800726         1849.33         1808.71 
       0.096163         1230.21         1234.75 
       0.111083         969.984         977.696 
       0.126058         890.072         874.346 
       0.142273         744.801          714.17 
       0.158546         586.239         542.546 
        0.17375         475.248         460.572 
       0.188953         451.463         420.005 
       0.204907         411.752         361.831 
       0.220756         338.454         298.293 
        0.23588         295.565         260.833 
         0.2514         261.033         238.301 
       0.267535         243.376         211.908 
       0.283568         217.045         183.568 
       0.299022          198.81         163.693 
       0.314451         180.489         150.083 
       0.330372         166.383         136.286 
       0.346141         148.091         122.187 
       0.361624          140.14         110.811 
       0.377134         130.772         102.046 
       0.392932         117.886         93.8844 
       0.408854         112.601         85.8351 
       0.424564         107.115         78.8378 
       0.440253         100.107         73.0189 
       0.455999         93.3248         67.7877 
       0.471626         86.4363         62.8748 
        0.48727         82.8521         58.4034 
       0.502856         78.8756         54.4979 
       0.518488         75.8001         50.9685 
       0.534347         72.5399         47.6489 
       0.550082         66.4002         44.6124 
       0.565732         63.0807          41.887 
       0.581496         60.8164         39.3862 
       0.597222         58.5414         37.0832 
       0.612804         55.2841         34.9677 
       0.628434         53.6742         33.0158 
       0.644267         51.8058         31.1985 
       0.660051         49.9886         29.5223 
       0.675724         47.6442         27.9773 
       0.691403         46.0809         26.5407 
       0.707174         44.3957          25.196 
       0.722871          43.039          23.949 
        0.73838         41.7896         22.7991 
       0.754018         39.6241         21.7156 
       0.769845         38.6395         20.6902 
        0.78569         37.5691         19.7298 
       0.801365         36.0885         18.8396 
       0.817031         35.0908         18.0049 
       0.832809         34.4557         17.2153 
       0.848511         32.5895         16.4766 
       0.864097         31.9471         15.7861 
       0.879701          31.169         15.1345 
       0.895507         30.6679         14.5119 
       0.911279         29.5898         13.9256 
        0.92691         28.9712         13.3763 
       0.942635         27.7491         12.8536 
       0.958396         27.5289         12.3577 
       0.974128         26.6601         11.8887 
       0.989692         26.2191         11.4486 
        1.00528         25.5768         11.0301 
        1.02113         24.7267         10.6258 
        1.03692         24.0757         10.2433 
        1.05264         23.8927         9.88124 
        1.06832         22.9966         9.53722 
        1.08405         22.6476         9.20861 
        1.09979         22.2124         8.89524 
        1.11537         21.5332          8.5995 
        1.13105         21.4665          8.3154 
        1.14679         21.0354         8.04301 
        1.16256         20.3498         7.78224 
        1.17828         20.0119         7.53386 
        1.19395         19.5962         7.29711 
         1.2097         19.3768         7.06931 
        1.22537          19.081         6.85229 
          1.241         18.5563         6.64501 
        1.25666         18.1102         6.44576 
        1.27241         17.8165         6.25372 
        1.28819         17.3831         6.06915 
        1.30392         17.1864         5.89254 
        1.31957         17.0223         5.72371 
        1.33529         16.7921         5.56086 
        1.35108         16.3893         5.40368 
        1.36674         16.1116         5.25367 
         1.3824         15.7486         5.10947 
        1.39811         15.6235         4.97018 
        1.41389         15.4225         4.83553 
        1.42964         15.0597         4.70608 
        1.44531          14.999         4.58198 
        1.46101         14.5868         4.46207 
        1.47667         14.4166         4.34679 
        1.49229         14.2405         4.23588 
        1.50793         14.0479         4.12869 
        1.52367         13.8383         4.02451 
        1.53953         13.6968         3.92321 
        1.55526          13.427         3.82619 
        1.57092         13.1733         3.73284 
        1.58662         13.0763         3.64236 
        1.60235         12.8815          3.5547 
        1.61809         12.6982         3.46986 
        1.63369         12.5473         3.38853 
        1.64941          12.305         3.30922 
        1.66519         12.2145         3.23215 
        1.68085         12.0221         3.15807 
        1.69652          11.842         3.08627 
        1.71228          11.752          3.0163 
        1.72806         11.5641         2.94842 
        1.74368         11.3914         2.88331 
        1.75933         11.2934         2.82002 
        1.77505         11.1777         2.75833 
        1.79081         10.9731         2.69836 
         1.8065         10.9278         2.64043 
        1.82218         10.7145         2.58424 
        1.83797         10.5348         2.52929 
        1.85367          10.446         2.47624 
        1.86928          10.359         2.42501 
        1.88497         10.1921         2.37496 
        1.90073         10.1804         2.32612 
        1.91647         9.99192         2.27869 
        1.93218         9.91301         2.23268 
        1.94787         9.79581           2.188 
        1.96363          9.7165         2.14436 
        1.97935         9.58889         2.10199 
        1.99499         9.41972           2.061 
        2.01064         9.37061         2.02104 
         2.0264         9.25146         1.98189 
        2.04216         9.15307         1.94378 
        2.05781         8.99791         1.90691 
        2.07353         8.95392         1.87086 
        2.08928         8.84838         1.83566 
        2.10499         8.75651         1.80146 
        2.12065          8.6311         1.76822 
        2.13633         8.60285         1.73579 
        2.15211         8.46583         1.70396 
        2.16785         8.40722         1.67301 
        2.18349         8.35912         1.64302 
        2.19916         8.26324          1.6137 
        2.21489         8.16641         1.58499 
        2.23063         8.07494         1.55696 
         2.2463         7.98388         1.52973 
        2.26194         7.90455         1.50321 
        2.27765         7.87321         1.47719 
        2.29341            7.77          1.4517 
        2.30914         7.66291         1.42687 
        2.32486         7.61908         1.40263 
        2.34061         7.55407         1.37891 
        2.35635         7.45531         1.35576 
        2.37203          7.4338         1.33321 
        2.38768         7.28474         1.31122 
        2.40339         7.23321         1.28965 
        2.41914         7.16753          1.2685 
        2.43483         7.14897         1.24791 
         2.4505          7.0483          1.2278 
        2.46622         6.97683         1.20806 
        2.48195         6.94909         1.18876 
        2.49759         6.86234         1.16997 
        2.51328         6.78422         1.15154 
        2.52906         6.75124         1.13339 
        2.54479         6.66703          1.1157 
        2.56049         6.65727         1.09841 
        2.57618         6.59686         1.08151 
        2.59189         6.49593         1.06493 
        2.60758         6.47847         1.04873 
        2.62325         6.42507         1.03287 
        2.63898         6.33632         1.01729 
        2.65468         6.26001         1.00207 
        2.67044         6.22639        0.987083 
        2.68618         6.15985        0.972438 
        2.70184         6.13696        0.958147 
        2.71755         6.07733        0.944106 
        2.73329         5.99508        0.930324 
        2.74897         5.97366         0.91686 
        2.76462         5.93704         0.90369 
        2.78034         5.84174        0.890723 
        2.79607         5.82913        0.877995 
        2.81179           5.764         0.86553 
        2.82749         5.74863        0.853318 
        2.84321         5.69168        0.841328 
        2.85893         5.63875         0.82957 
        2.87462         5.59797        0.818055 
        2.89033         5.54957        0.806747 
        2.90605         5.47389        0.795641 
        2.92176         5.45768        0.784749 
        2.93747          5.4316        0.774066 
        2.95318         5.37862        0.763577 
        2.96891         5.33494        0.753278 
        2.98456         5.26606        0.743212 
        3.00023         5.24308        0.733315 
        3.01596          5.2027        0.723566 
        3.03164         5.17011         0.71402 
        3.04738         5.14167        0.704619 
         3.0631         5.07815        0.695388 
        3.07883         5.05699        0.686322 
        3.09456         5.01097        0.677417 
        3.11026         4.97013        0.668683 
        3.12596         4.93801        0.660104 
        3.14163         4.88721        0.651693 
        3.15734         4.86007        0.643409 
        3.17308         4.81605        0.635248 
        3.18879         4.78516        0.627249 
        3.20447         4.75631        0.619399 
         3.2202         4.70253        0.611659 
         3.2359         4.67183        0.604063 
        3.25157         4.64169        0.596614 
        3.26729         4.62829        0.589267 
        3.28304         4.56948        0.582029 
        3.29877         4.54607        0.574921 
        3.31446          4.5028        0.567946 
        3.33014         4.47325        0.561093 
        3.34585         4.45886        0.554341 
        3.36158         4.41989         0.54769 
        3.37727         4.38937        0.541168 
        3.39294         4.36211        0.534757 
        3.40867         4.32249        0.528427 
        3.42439         4.28811        0.522202 
        3.44008         4.26344        0.516088 
        3.45578          4.2311        0.510067 
        3.47153         4.19676        0.504129 
        3.48724         4.16533        0.498295 
        3.50292         4.14989        0.492566 
        3.51859         4.11832        0.486929 
        3.53431         4.08645        0.481363 
        3.55007         4.05209        0.475869 
        3.56577         4.03555        0.470482 
        3.58146          4.0096        0.465181 
        3.59719         3.97511        0.459948 
        3.61292         3.95688        0.454797 
        3.62859         3.92856        0.449744 
        3.64429         3.89399        0.444757 
        3.66003         3.85861         0.43983 
        3.67578         3.84786         0.43498 
        3.69146         3.80609         0.43022 
        3.70712         3.79884        0.425539 
        3.72284         3.75597        0.420911 
        3.73853         3.73642        0.416359 
        3.75422         3.70653        0.411872 
        3.76993         3.69392        0.407447 
        3.78564         3.65979        0.403088 
        3.80137         3.64875        0.398785 
        3.81707         3.61517        0.394554 
        3.83279         3.58525        0.390381 
        3.84853         3.56755        0.386261 
        3.86424         3.53929        0.382207 
        3.87992         3.51453        0.378218 
        3.89561         3.49561        0.374285 
        3.91134         3.46242          0.3704 
        3.92704         3.45018        0.366573 
        3.94273         3.42564        0.362805 
        3.95845         3.40578        0.359082 
        3.97418         3.38026         0.35541 
        3.98988         3.35849        0.351794 
        4.00554          3.3412        0.348238 
        4.02125         3.31754         0.34472 
        4.03698         3.28255        0.341246 
        4.05268         3.27125        0.337827 
        4.06839         3.25295        0.334452 
         4.0841         3.22778        0.331123 
        4.09983         3.20449        0.327835 
        4.11555         3.17516        0.324593 
        4.13124         3.16192        0.321403 
        4.14693         3.13052        0.318253 
        4.16266         3.10644        0.315138 
        4.17839         3.08903        0.312066 
        4.19408         3.06299        0.309042 
        4.20977         3.05059        0.306056 
        4.22551         3.02505        0.303102 
        4.24123         3.00757         0.30019 
        4.25691         2.98934        0.297324 
        4.27259         2.97771        0.294494 
        4.28831         2.95703        0.291695 
        4.30404         2.93282         0.28893 
        4.31974         2.91177        0.286206 
        4.33543         2.89932        0.283519 
        4.35116         2.87366        0.280859 
        4.36688         2.85017        0.278234 
        4.38255          2.8353        0.275653 
        4.39825         2.81687        0.273098 
        4.41398         2.80819        0.270571 
         4.4297          2.7837        0.268078 
        4.44541         2.77657        0.265616 
        4.46111         2.75757        0.263187 
        4.47683         2.72981        0.260787 
        4.49251         2.71723        0.258421 
        4.50819         2.69792        0.256085 
         4.5239         2.68268        0.253774 
        4.53962         2.67391        0.251489 
        4.55535         2.65304        0.249231 
        4.57106         2.64068        0.247003 
        4.58678         2.62537        0.244802 
         4.6025         2.60835        0.242627 
        4.61821         2.59516        0.240479 
        4.63391         2.57842        0.238359 
         4.6496         2.56095        0.236265 
        4.66532          2.5465        0.234194 
        4.68103         2.52909        0.232148 
        4.69673         2.51118        0.230128 
        4.71241          2.4977        0.228134 
        4.72811         2.48791         0.22616 
        4.74384         2.47094        0.224207 
        4.75955         2.45797        0.222279 
        4.77525         2.44252        0.220376 
        4.79096         2.42411        0.218492 
        4.80669         2.41817        0.216629 
         4.8224         2.39601         0.21479 
        4.83809         2.38812        0.212974 
        4.85379         2.37839        0.211177 
         4.8695         2.35998          0.2094 
        4.88521         2.34586        0.207644 
        4.90093         2.33713        0.205908 
        4.91663         2.31855        0.204193 
        4.93234         2.30929        0.202495 
        4.94807         2.29904        0.200816 
        4.96377         2.28382        0.199158 
        4.97943          2.2643        0.197523 
        4.99514         2.25745        0.195902 
        5.01086         2.24269        0.194297 
        5.02654         2.23654        0.192715 
        5.04227         2.22006        0.191145 
          5.058         2.21303        0.189592 
        5.07371         2.19823        0.188059 
        5.08942         2.18848        0.186543 
        5.10513         2.17412        0.185043 
        5.12084         2.16124        0.183559 
        5.13656         2.15106        0.182091 
        5.15225         2.13665        0.180642 
        5.16796         2.12743        0.179206 
        5.18369         2.11514        0.177784 
         5.1994         2.10808         0.17638 
        5.21509         2.09714        0.174993 
        5.23079         2.08021        0.173618 
        5.24649         2.07432         0.17226 
        5.26217         2.06261        0.170917 
        5.27788          2.0522        0.169586 
        5.29359          2.0404        0.168269 
        5.30933         2.02959        0.166964 
        5.32504         2.01379        0.165674 
        5.34073         2.00653          0.1644 
        5.35646         1.99497        0.163137 
        5.37218          1.9841        0.161886 
        5.38789         1.97535        0.160651 
        5.40357         1.96924         0.15943 
        5.41929         1.96065        0.158218 
        5.43502         1.94976        0.157019 
         5.4507         1.94149        0.155836 
        5.46639         1.92957        0.154664 
        5.48212         1.92149        0.153501 
        5.49786          1.9116        0.152349 
        5.51353         1.90089        0.151214 
        5.52921         1.89374         0.15009 
        5.54495         1.88268        0.148974 
        5.56066         1.87491         0.14787 
        5.57637         1.86625        0.146778 
        5.59207         1.85416        0.145697 
        5.60778         1.85146        0.144627 
        5.62346         1.83932        0.143569 
        5.63916         1.82705         0.14252 
        5.65487         1.81993        0.141482 
         5.6706         1.81097        0.140452 
        5.68633         1.79982        0.139432 
        5.70203         1.79428        0.138425 
        5.71773         1.78572        0.137427 
        5.73344         1.78168        0.136439 
        5.74916         1.76952        0.135459 
        5.76486         1.76179        0.134491 
        5.78054         1.75489        0.133533 
        5.79626         1.74659        0.132582 
          5.812         1.74029        0.131639 
         5.8277         1.72953        0.130708 
        5.84339         1.72446        0.129785 
        5.85911         1.71459         0.12887 
        5.87484         1.70806        0.127964 
        5.89053         1.70003        0.127068 
        5.90623         1.69229        0.126181 
        5.92195         1.68394          0.1253 
        5.93767         1.67605        0.124428 
        5.95336         1.66841        0.123566 
        5.96905         1.65987        0.122712 
        5.98476         1.65241        0.121865 
        6.00048         1.64631        0.121026 
        6.01617         1.63816        0.120196 
        6.03185         1.62922        0.119374 
        6.04756         1.62658        0.118558 
        6.06331         1.61663        0.117748 
        6.07903         1.61323        0.116947 
        6.09473           1.602        0.116155 
        6.11044         1.59773        0.115368 
        6.12616         1.58986         0.11459 
        6.14186         1.58689        0.113819 
        6.15755         1.57867        0.113055 
        6.17326          1.5728        0.112298 
        6.18898         1.56314        0.111547 
        6.20467         1.55901        0.110804 
        6.22036         1.55008        0.110068 
         6.2361         1.54569        0.109337 
         6.2518         1.53442        0.108613 
        6.26748         1.53247        0.107898 
        6.28319         1.52533        0.107187 
        6.29893         1.51685        0.106482 
        6.31463          1.5118        0.105784 
        6.33033         1.50575        0.105093 
        6.34604         1.49829        0.104407 
        6.36177          1.4946        0.103727 
        6.37747         1.48743        0.103054 
