# k  (h/Mpc)    Pcb(k)  (Mpc/h)^3    Pcb_linear(k) (Mpc/h)^3   ShotnoiseSubtracted = true
      0.0200456         7803.62         7899.22 
      0.0350414         5157.67         5003.57 
      0.0492313         3400.38         3399.48 
      0.0637834         2716.32         2784.54 
      0.0800726         2055.55         2112.35 
       0.096163         1507.77         1442.03 
       0.111083         1205.72         1141.83 
       0.126058         1020.12         1021.13 
       0.142273         845.534         834.062 
       0.158546           669.2         633.627 
        0.17375         579.139         537.891 
       0.188953         531.284         490.513 
       0.204907         442.885         422.574 
       0.220756          387.71         348.369 
        0.23588         341.842          304.62 
         0.2514         305.771         278.306 
       0.267535         288.522         247.483 
       0.283568         248.429         214.384 
       0.299022          232.91         191.173 
       0.314451         225.998         175.278 
       0.330372         194.882         159.165 
       0.346141         178.622         142.699 
       0.361624          167.12         129.413 
       0.377134         152.917         119.177 
       0.392932         147.431         109.645 
       0.408854         138.507         100.245 
       0.424564         131.365         92.0727 
       0.440253         118.774          85.277 
       0.455999         109.957         79.1676 
       0.471626         106.804         73.4299 
        0.48727         102.202         68.2079 
       0.502856         93.2205         63.6468 
       0.518488         91.1753         59.5248 
       0.534347         85.1036          55.648 
       0.550082         82.6795         52.1017 
       0.565732         80.4065         48.9188 
       0.581496         73.5411         45.9982 
       0.597222         71.5205         43.3085 
       0.612804         68.5026         40.8379 
       0.628434         66.8991         38.5583 
       0.644267         63.0543         36.4359 
       0.660051         61.0024         34.4783 
       0.675724         59.1527         32.6741 
       0.691403         57.7884         30.9962 
       0.707174         55.4617         29.4258 
       0.722871         54.1696         27.9695 
        0.73838         52.1752         26.6265 
       0.754018          49.025         25.3611 
       0.769845         48.5237         24.1636 
        0.78569         46.8942          23.042 
       0.801365          45.263         22.0024 
       0.817031         43.6208         21.0275 
       0.832809         42.6642         20.1054 
       0.848511         41.6073         19.2426 
       0.864097          40.673         18.4362 
       0.879701         39.6626         17.6752 
       0.895507         38.1376         16.9481 
       0.911279         37.2775         16.2633 
        0.92691          36.509         15.6219 
       0.942635         35.5204         15.0115 
       0.958396         35.2236         14.4322 
       0.974128          34.261         13.8845 
       0.989692         33.1001         13.3706 
        1.00528         32.4543         12.8817 
        1.02113         31.6247         12.4096 
        1.03692         31.3534         11.9629 
        1.05264         30.5824         11.5401 
        1.06832         29.8379         11.1383 
        1.08405         29.1571         10.7545 
        1.09979         28.8824         10.3885 
        1.11537         28.0069         10.0431 
        1.13105         27.3478         9.71136 
        1.14679         26.8871         9.39323 
        1.16256         26.4987         9.08869 
        1.17828         26.1351         8.79861 
        1.19395         25.3506         8.52212 
         1.2097         25.2893         8.25607 
        1.22537         24.5828         8.00263 
          1.241         24.2357         7.76055 
        1.25666         23.6539         7.52785 
        1.27241         23.4879         7.30357 
        1.28819          22.819         7.08801 
        1.30392         22.5894         6.88175 
        1.31957         22.3317         6.68458 
        1.33529         21.8996         6.49439 
        1.35108         21.5026         6.31082 
        1.36674         21.1717         6.13563 
         1.3824         20.8217         5.96722 
        1.39811         20.3942         5.80455 
        1.41389         20.1091          5.6473 
        1.42964         20.0425         5.49612 
        1.44531         19.5744         5.35118 
        1.46101          19.353         5.21115 
        1.47667         19.0801         5.07651 
        1.49229          18.647         4.94698 
        1.50793         18.5543          4.8218 
        1.52367         18.1454         4.70013 
        1.53953         18.0811         4.58182 
        1.55526         17.7143         4.46851 
        1.57092         17.5315         4.35949 
        1.58662         17.3197         4.25382 
        1.60235         17.0628         4.15144 
        1.61809         16.8132         4.05237 
        1.63369         16.6372         3.95738 
        1.64941         16.3711         3.86476 
        1.66519         16.2359         3.77475 
        1.68085         15.8739         3.68823 
        1.69652         15.7619         3.60438 
        1.71228         15.6783         3.52266 
        1.72806         15.3447         3.44339 
        1.74368         15.1991         3.36735 
        1.75933         15.0368         3.29343 
        1.77505         14.8667         3.22138 
        1.79081         14.6724         3.15135 
         1.8065         14.5229         3.08369 
        1.82218         14.3549         3.01807 
        1.83797          14.269          2.9539 
        1.85367         14.0999         2.89194 
        1.86928         13.9738         2.83212 
        1.88497         13.7578         2.77365 
        1.90073         13.6106         2.71662 
        1.91647         13.3893         2.66123 
        1.93218           13.39         2.60749 
        1.94787         13.1854         2.55531 
        1.96363         13.0447         2.50434 
        1.97935         12.8345         2.45487 
        1.99499         12.7376           2.407 
        2.01064         12.5431         2.36033 
         2.0264          12.459          2.3146 
        2.04216         12.4136         2.27009 
        2.05781         12.2033         2.22704 
        2.07353          12.114         2.18493 
        2.08928         11.9591         2.14382 
        2.10499         11.7818         2.10388 
        2.12065         11.7232         2.06506 
        2.13633         11.6264         2.02719 
        2.15211         11.4545         1.99001 
        2.16785         11.4265         1.95387 
        2.18349         11.2596         1.91884 
        2.19916         11.1401          1.8846 
        2.21489         10.9853         1.85107 
        2.23063         10.9439         1.81834 
         2.2463         10.8112         1.78653 
        2.26194         10.7079         1.75557 
        2.27765         10.5571         1.72517 
        2.29341         10.4948         1.69541 
        2.30914           10.38         1.66641 
        2.32486          10.334          1.6381 
        2.34061         10.2073          1.6104 
        2.35635         10.0977         1.58336 
        2.37203         10.0158         1.55703 
        2.38768         9.89432         1.53135 
        2.40339         9.89597         1.50615 
        2.41914         9.74856         1.48146 
        2.43483         9.61769          1.4574 
         2.4505         9.53963         1.43392 
        2.46622         9.48801         1.41087 
        2.48195         9.39404         1.38832 
        2.49759          9.2853         1.36638 
        2.51328         9.23964         1.34486 
        2.52906         9.13273         1.32366 
        2.54479         9.04879           1.303 
        2.56049         8.95287         1.28281 
        2.57618         8.93826         1.26307 
        2.59189         8.82827         1.24371 
        2.60758         8.71629         1.22478 
        2.62325          8.6713         1.20627 
        2.63898         8.61662         1.18807 
        2.65468         8.51518         1.17029 
        2.67044         8.47894         1.15279 
        2.68618         8.36762         1.13569 
        2.70184         8.31703           1.119 
        2.71755         8.23475          1.1026 
        2.73329         8.16722          1.0865 
        2.74897         8.10502         1.07078 
        2.76462         8.02749          1.0554 
        2.78034         7.95615         1.04025 
        2.79607         7.89201         1.02539 
        2.81179         7.84468         1.01083 
        2.82749         7.77207         0.99657 
        2.84321         7.72481        0.982566 
        2.85893         7.63103        0.968834 
        2.87462         7.59511        0.955386 
        2.89033         7.50035         0.94218 
        2.90605         7.46208         0.92921 
        2.92176         7.41412         0.91649 
        2.93747         7.34661        0.904013 
        2.95318         7.29348        0.891764 
        2.96891         7.22648        0.879735 
        2.98456          7.1516        0.867979 
        3.00023         7.10317         0.85642 
        3.01596         7.05383        0.845035 
        3.03164         7.00059        0.833887 
        3.04738         6.94268        0.822907 
         3.0631         6.86447        0.812127 
        3.07883          6.8246        0.801538 
        3.09456         6.75808        0.791139 
        3.11026         6.69126        0.780939 
        3.12596         6.65727        0.770919 
        3.14163         6.62799        0.761097 
        3.15734           6.564        0.751422 
        3.17308          6.5172         0.74189 
        3.18879         6.47097        0.732549 
        3.20447         6.40951        0.723382 
         3.2202         6.35461        0.714342 
         3.2359         6.31111        0.705471 
        3.25157         6.27797        0.696771 
        3.26729         6.22821        0.688191 
        3.28304         6.15252        0.679738 
        3.29877          6.1336        0.671436 
        3.31446         6.08862        0.663291 
        3.33014         6.02897        0.655287 
        3.34585         5.97208        0.647402 
        3.36158         5.94998        0.639634 
        3.37727         5.90848        0.632017 
        3.39294          5.8659         0.62453 
        3.40867         5.82869        0.617137 
        3.42439          5.7714        0.609867 
        3.44008         5.72603        0.602727 
        3.45578         5.68962        0.595695 
        3.47153         5.65298         0.58876 
        3.48724         5.59137        0.581946 
        3.50292         5.55309        0.575256 
        3.51859         5.52661        0.568673 
        3.53431         5.46931        0.562172 
        3.55007         5.42766        0.555756 
        3.56577         5.39034        0.549465 
        3.58146         5.37089        0.543273 
        3.59719         5.31012        0.537162 
        3.61292         5.29242        0.531146 
        3.62859         5.24916        0.525245 
        3.64429           5.212        0.519421 
        3.66003         5.17058        0.513667 
        3.67578         5.13705        0.508002 
        3.69146         5.11023        0.502443 
        3.70712         5.05666        0.496977 
        3.72284         5.02921        0.491572 
        3.73853         5.00211        0.486255 
        3.75422         4.96253        0.481015 
        3.76993         4.92345        0.475847 
        3.78564          4.8917        0.470757 
        3.80137         4.84493        0.465732 
        3.81707         4.81048         0.46079 
        3.83279         4.78358        0.455916 
        3.84853         4.74549        0.451104 
        3.86424         4.70495        0.446371 
        3.87992         4.68329        0.441712 
        3.89561         4.64093        0.437118 
        3.91134         4.61875        0.432581 
        3.92704         4.58571        0.428112 
        3.94273         4.55762        0.423711 
        3.95845         4.52793        0.419363 
        3.97418         4.49379        0.415075 
        3.98988         4.46336        0.410852 
        4.00554         4.43592        0.406699 
        4.02125         4.40412        0.402591 
        4.03698         4.35851        0.398533 
        4.05268         4.33121         0.39454 
        4.06839         4.28808        0.390598 
         4.0841         4.28466        0.386711 
        4.09983           4.233        0.382871 
        4.11555         4.21738        0.379085 
        4.13124         4.17003        0.375359 
        4.14693         4.14535         0.37168 
        4.16266         4.11653        0.368042 
        4.17839         4.09618        0.364455 
        4.19408         4.07124        0.360922 
        4.20977         4.04246        0.357435 
        4.22551         4.01218        0.353986 
        4.24123          3.9755        0.350585 
        4.25691          3.9573        0.347238 
        4.27259         3.92351        0.343933 
        4.28831         3.90187        0.340664 
        4.30404         3.86551        0.337434 
        4.31974         3.85048        0.334253 
        4.33543          3.8083        0.331115 
        4.35116         3.78679        0.328009 
        4.36688         3.77684        0.324943 
        4.38255         3.74295        0.321928 
        4.39825         3.72183        0.318945 
        4.41398          3.7002        0.315993 
         4.4297         3.66883        0.313081 
        4.44541         3.65202        0.310207 
        4.46111         3.62237         0.30737 
        4.47683         3.59573        0.304567 
        4.49251         3.57752        0.301804 
        4.50819         3.56304        0.299075 
         4.5239         3.53005        0.296377 
        4.53962         3.50521        0.293708 
        4.55535         3.48169         0.29107 
        4.57106         3.46735        0.288469 
        4.58678         3.44376        0.285898 
         4.6025         3.42073        0.283358 
        4.61821         3.39597        0.280849 
        4.63391         3.36996        0.278374 
         4.6496         3.34543        0.275929 
        4.66532         3.32443        0.273509 
        4.68103         3.31354         0.27112 
        4.69673         3.28192        0.268761 
        4.71241         3.26599        0.266432 
        4.72811          3.2487        0.264127 
        4.74384         3.23137        0.261846 
        4.75955         3.20106        0.259595 
        4.77525         3.18463        0.257372 
        4.79096         3.16519        0.255171 
        4.80669         3.15461        0.252996 
         4.8224          3.1282        0.250848 
        4.83809         3.10727        0.248727 
        4.85379          3.0899        0.246629 
         4.8695         3.05958        0.244553 
        4.88521         3.05241        0.242503 
        4.90093         3.02734        0.240475 
        4.91663         3.01425        0.238472 
        4.93234         2.99712        0.236489 
        4.94807         2.97901        0.234528 
        4.96377         2.96209        0.232592 
        4.97943         2.93783        0.230682 
        4.99514         2.92774        0.228789 
        5.01086         2.90375        0.226915 
        5.02654          2.8887        0.225067 
        5.04227         2.87665        0.223233 
          5.058         2.85037         0.22142 
        5.07371         2.83944        0.219629 
        5.08942         2.81976        0.217859 
        5.10513         2.81335        0.216107 
        5.12084         2.79194        0.214374 
        5.13656         2.77274         0.21266 
        5.15225         2.75467        0.210967 
        5.16796         2.73682         0.20929 
        5.18369         2.72937         0.20763 
         5.1994         2.70561         0.20599 
        5.21509         2.69102         0.20437 
        5.23079         2.67321        0.202765 
        5.24649          2.6641        0.201178 
        5.26217         2.64612        0.199609 
        5.27788         2.62654        0.198055 
        5.29359         2.61276        0.196517 
        5.30933         2.60284        0.194993 
        5.32504         2.58451        0.193487 
        5.34073         2.57255        0.191999 
        5.35646          2.5581        0.190524 
        5.37218         2.54047        0.189063 
        5.38789         2.52881         0.18762 
        5.40357         2.51404        0.186194 
        5.41929         2.49721        0.184779 
        5.43502          2.4835        0.183379 
         5.4507         2.47239        0.181997 
        5.46639         2.46017        0.180628 
        5.48212         2.44595         0.17927 
        5.49786         2.42362        0.177925 
        5.51353         2.41225          0.1766 
        5.52921         2.40389        0.175287 
        5.54495         2.39054        0.173983 
        5.56066         2.37789        0.172694 
        5.57637         2.35868        0.171418 
        5.59207         2.35095        0.170156 
        5.60778         2.33962        0.168906 
        5.62346         2.32899        0.167671 
        5.63916         2.31315        0.166446 
        5.65487          2.3014        0.165233 
         5.6706         2.29004        0.164031 
        5.68633         2.27537         0.16284 
        5.70203         2.26413        0.161663 
        5.71773         2.25153        0.160498 
        5.73344         2.23903        0.159344 
        5.74916          2.2292          0.1582 
        5.76486         2.21543        0.157068 
        5.78054         2.20193         0.15595 
        5.79626          2.1954        0.154839 
          5.812         2.18425        0.153738 
         5.8277         2.17253         0.15265 
        5.84339         2.16065        0.151573 
        5.85911         2.14795        0.150505 
        5.87484         2.13984        0.149446 
        5.89053         2.12503          0.1484 
        5.90623         2.11689        0.147364 
        5.92195         2.10466        0.146335 
        5.93767          2.0953        0.145317 
        5.95336         2.08264         0.14431 
        5.96905         2.07758        0.143313 
        5.98476         2.06407        0.142324 
        6.00048         2.05184        0.141343 
        6.01617          2.0443        0.140374 
        6.03185         2.02949        0.139414 
        6.04756         2.02336        0.138461 
        6.06331         2.00789        0.137515 
        6.07903           1.997         0.13658 
        6.09473         1.99081        0.135654 
        6.11044         1.98332        0.134736 
        6.12616         1.97133        0.133826 
        6.14186         1.96193        0.132926 
        6.15755         1.95253        0.132034 
        6.17326         1.94149         0.13115 
        6.18898         1.93075        0.130273 
        6.20467         1.92681        0.129405 
        6.22036         1.91591        0.128546 
         6.2361           1.906        0.127692 
         6.2518         1.89867        0.126847 
        6.26748         1.88761        0.126011 
        6.28319         1.87929        0.125181 
        6.29893         1.87177        0.124357 
        6.31463         1.86215        0.123543 
        6.33033         1.85379        0.122735 
        6.34604         1.84228        0.121934 
        6.36177          1.8363         0.12114 
        6.37747         1.82703        0.120354 
