# k  (h/Mpc)    Pcb(k)  (Mpc/h)^3    Pcb_linear(k) (Mpc/h)^3   ShotnoiseSubtracted = true
      0.0200456         1776.68         1798.96 
      0.0350414         1136.47         1139.51 
      0.0492313          778.06         774.193 
      0.0637834          640.35         634.147 
      0.0800726         486.498         481.064 
       0.096163         328.212         328.406 
       0.111083         258.528         260.038 
       0.126058         233.769          232.55 
       0.142273         193.152         189.948 
       0.158546         148.367         144.301 
        0.17375         122.923         122.499 
       0.188953          113.72         111.709 
       0.204907         101.377         96.2365 
       0.220756         82.6318          79.337 
        0.23588         72.0362         69.3738 
         0.2514         64.7789          63.381 
       0.267535         58.4561         56.3614 
       0.283568         51.2142         48.8236 
       0.299022         46.1916         43.5374 
       0.314451         41.3195         39.9177 
       0.330372         38.0479         36.2481 
       0.346141         34.1479         32.4982 
       0.361624         31.3372         29.4724 
       0.377134         29.2501         27.1412 
       0.392932          25.869         24.9705 
       0.408854          24.616         22.8296 
       0.424564         22.7539         20.9685 
       0.440253         20.9497         19.4209 
       0.455999         19.5936         18.0295 
       0.471626         18.3265         16.7228 
        0.48727         17.1341         15.5336 
       0.502856         15.9443         14.4948 
       0.518488           15.14         13.5561 
       0.534347         14.4333         12.6732 
       0.550082         13.1023         11.8656 
       0.565732         12.0846         11.1407 
       0.581496         11.7901         10.4756 
       0.597222         11.2745         9.86303 
       0.612804          10.466         9.30037 
       0.628434          10.049         8.78122 
       0.644267         9.61376         8.29787 
       0.660051         9.02877         7.85206 
       0.675724         8.53983         7.44115 
       0.691403         8.23516         7.05904 
       0.707174         7.80949         6.70139 
       0.722871         7.46916         6.36974 
        0.73838         7.12659          6.0639 
       0.754018         6.88865          5.7757 
       0.769845         6.53074         5.50299 
        0.78569         6.29281         5.24756 
       0.801365         6.00605         5.01079 
       0.817031         5.78173         4.78877 
       0.832809         5.59752         4.57877 
       0.848511         5.25768         4.38228 
       0.864097         5.07983         4.19865 
       0.879701         4.90512         4.02534 
       0.895507         4.65594         3.85975 
       0.911279         4.58611         3.70379 
        0.92691         4.40983         3.55771 
       0.942635         4.20158         3.41869 
       0.958396         4.05616         3.28678 
       0.974128         3.93499         3.16205 
       0.989692         3.84892         3.04499 
        1.00528         3.67836         2.93367 
        1.02113         3.53646         2.82616 
        1.03692         3.45101         2.72441 
        1.05264         3.33746         2.62812 
        1.06832         3.24649         2.53662 
        1.08405         3.09711         2.44922 
        1.09979         3.02893         2.36587 
        1.11537          2.9466         2.28721 
        1.13105         2.85619         2.21165 
        1.14679         2.77986          2.1392 
        1.16256         2.68043         2.06985 
        1.17828         2.62163         2.00378 
        1.19395         2.53961         1.94082 
         1.2097         2.44519         1.88023 
        1.22537         2.37743         1.82251 
          1.241         2.32584         1.76738 
        1.25666         2.30079         1.71438 
        1.27241         2.19495          1.6633 
        1.28819         2.14831         1.61421 
        1.30392         2.10329         1.56724 
        1.31957         2.05189         1.52234 
        1.33529         1.98892         1.47902 
        1.35108         1.94088         1.43722 
        1.36674         1.89305         1.39732 
         1.3824          1.8265         1.35897 
        1.39811         1.78938         1.32192 
        1.41389         1.75912         1.28611 
        1.42964         1.71629         1.25168 
        1.44531         1.67513         1.21867 
        1.46101          1.6322         1.18678 
        1.47667         1.58362         1.15612 
        1.49229         1.56787         1.12662 
        1.50793         1.52167         1.09811 
        1.52367         1.49537          1.0704 
        1.53953         1.44736         1.04346 
        1.55526         1.42085         1.01765 
        1.57092         1.38983        0.992824 
        1.58662         1.36078        0.968761 
        1.60235          1.3292        0.945445 
        1.61809         1.30087        0.922881 
        1.63369         1.28338         0.90125 
        1.64941         1.24822        0.880155 
        1.66519         1.22675        0.859656 
        1.68085         1.19235        0.839952 
        1.69652         1.17108        0.820858 
        1.71228          1.1514        0.802246 
        1.72806         1.12264        0.784194 
        1.74368          1.1023        0.766875 
        1.75933         1.07848        0.750043 
        1.77505         1.06246        0.733634 
        1.79081         1.03971        0.717685 
         1.8065         1.01615        0.702277 
        1.82218         1.00346        0.687332 
        1.83797        0.988574        0.672717 
        1.85367        0.968768        0.658606 
        1.86928        0.953093        0.644983 
        1.88497        0.929121        0.631668 
        1.90073        0.907877        0.618679 
        1.91647        0.896863        0.606065 
        1.93218        0.884738        0.593827 
        1.94787        0.864976        0.581943 
        1.96363        0.846268        0.570336 
        1.97935        0.832086        0.559068 
        1.99499         0.81592        0.548166 
        2.01064        0.803238        0.537538 
         2.0264        0.794944        0.527123 
        2.04216        0.778032        0.516988 
        2.05781         0.76131        0.507182 
        2.07353         0.75334        0.497594 
        2.08928        0.738335        0.488232 
        2.10499        0.725321        0.479134 
        2.12065        0.718711        0.470294 
        2.13633        0.704812        0.461669 
        2.15211        0.692594        0.453203 
        2.16785        0.677676        0.444972 
        2.18349        0.670159        0.436995 
        2.19916        0.657832        0.429196 
        2.21489        0.646792        0.421561 
        2.23063        0.635951        0.414106 
         2.2463        0.629155        0.406863 
        2.26194        0.615284         0.39981 
        2.27765         0.60592        0.392888 
        2.29341        0.599559         0.38611 
        2.30914        0.590776        0.379506 
        2.32486        0.584241        0.373059 
        2.34061        0.572876         0.36675 
        2.35635        0.562216        0.360591 
        2.37203        0.555711        0.354595 
        2.38768        0.548111        0.348747 
        2.40339        0.540439        0.343008 
        2.41914        0.533954        0.337385 
        2.43483        0.524609        0.331907 
         2.4505        0.515961        0.326559 
        2.46622        0.508191        0.321309 
        2.48195        0.503089        0.316175 
        2.49759        0.496343        0.311179 
        2.51328        0.486963        0.306277 
        2.52906        0.479903        0.301449 
        2.54479        0.475308        0.296743 
        2.56049        0.467921        0.292146 
        2.57618        0.462658         0.28765 
        2.59189        0.455238         0.28324 
        2.60758        0.449338         0.27893 
        2.62325        0.443915        0.274714 
        2.63898        0.438423         0.27057 
        2.65468        0.432412         0.26652 
        2.67044        0.426272        0.262535 
        2.68618        0.419417         0.25864 
        2.70184         0.41416        0.254839 
        2.71755        0.408672        0.251105 
        2.73329        0.405117        0.247439 
        2.74897        0.399463        0.243858 
        2.76462         0.39437        0.240355 
        2.78034        0.389827        0.236906 
        2.79607         0.38401        0.233521 
        2.81179        0.379473        0.230205 
        2.82749        0.375156        0.226958 
        2.84321        0.371149        0.223768 
        2.85893        0.366191        0.220641 
        2.87462        0.362931        0.217578 
        2.89033        0.356454        0.214571 
        2.90605        0.352722        0.211617 
        2.92176        0.348623         0.20872 
        2.93747        0.344177        0.205879 
        2.95318        0.341161        0.203089 
        2.96891        0.336824         0.20035 
        2.98456        0.333695        0.197673 
        3.00023        0.329598         0.19504 
        3.01596        0.325785        0.192447 
        3.03164        0.323111        0.189908 
        3.04738        0.317632        0.187408 
         3.0631        0.314713        0.184953 
        3.07883        0.311108        0.182541 
        3.09456        0.307418        0.180173 
        3.11026        0.303943         0.17785 
        3.12596        0.300107        0.175568 
        3.14163        0.297671        0.173331 
        3.15734        0.294986        0.171128 
        3.17308        0.291205        0.168957 
        3.18879        0.287696         0.16683 
        3.20447        0.285794        0.164742 
         3.2202        0.282595        0.162683 
         3.2359        0.279439        0.160663 
        3.25157        0.276416        0.158682 
        3.26729         0.27412        0.156728 
        3.28304        0.271153        0.154803 
        3.29877        0.267864        0.152912 
        3.31446        0.265975        0.151057 
        3.33014        0.263862        0.149234 
        3.34585        0.261792        0.147438 
        3.36158        0.258395        0.145669 
        3.37727        0.256509        0.143935 
        3.39294        0.253938         0.14223 
        3.40867        0.251055        0.140546 
        3.42439        0.249325         0.13889 
        3.44008        0.246636        0.137264 
        3.45578        0.245336        0.135663 
        3.47153        0.243083        0.134083 
        3.48724         0.24102        0.132532 
        3.50292        0.239102        0.131008 
        3.51859         0.23642        0.129509 
        3.53431        0.234331        0.128028 
        3.55007        0.233432        0.126567 
        3.56577        0.230442        0.125134 
        3.58146        0.228658        0.123724 
        3.59719         0.22713        0.122333 
        3.61292        0.224953        0.120963 
        3.62859        0.222549        0.119619 
        3.64429        0.220983        0.118292 
        3.66003        0.219276        0.116982 
        3.67578        0.217448        0.115692 
        3.69146        0.216011        0.114426 
        3.70712        0.214294        0.113181 
        3.72284        0.212623         0.11195 
        3.73853        0.211185        0.110739 
        3.75422        0.209168        0.109546 
        3.76993        0.207991        0.108369 
        3.78564        0.205825         0.10721 
        3.80137        0.203604        0.106065 
        3.81707        0.203547         0.10494 
        3.83279        0.201339         0.10383 
        3.84853        0.199402        0.102734 
        3.86424        0.198094        0.101656 
        3.87992        0.196459        0.100595 
        3.89561        0.195148       0.0995488 
        3.91134        0.193761       0.0985154 
        3.92704        0.191712       0.0974977 
        3.94273         0.19086       0.0964953 
        3.95845        0.188779       0.0955051 
        3.97418        0.187133       0.0945285 
        3.98988        0.185761       0.0935668 
        4.00554         0.18417        0.092621 
        4.02125        0.182346       0.0916855 
        4.03698        0.180654       0.0907614 
        4.05268        0.179137        0.089852 
        4.06839        0.177046       0.0889543 
         4.0841        0.175191       0.0880691 
        4.09983        0.173064       0.0871946 
        4.11555        0.171141       0.0863322 
        4.13124        0.169603       0.0854838 
        4.14693        0.168028        0.084646 
        4.16266        0.166034       0.0838175 
        4.17839        0.164788       0.0830004 
        4.19408        0.163514        0.082196 
        4.20977        0.161601       0.0814019 
        4.22551         0.16044       0.0806163 
        4.24123        0.158929       0.0798417 
        4.25691        0.157538       0.0790795 
        4.27259        0.156511       0.0783268 
        4.28831        0.155002       0.0775824 
        4.30404        0.153641       0.0768468 
        4.31974        0.152949       0.0761224 
        4.33543        0.151303       0.0754076 
        4.35116        0.150893       0.0747002 
        4.36688        0.149122       0.0740022 
        4.38255        0.148353       0.0733155 
        4.39825         0.14751       0.0726361 
        4.41398        0.146131       0.0719638 
         4.4297        0.145505       0.0713007 
        4.44541        0.144617       0.0706461 
        4.46111         0.14424       0.0700001 
        4.47683        0.143322       0.0693616 
        4.49251          0.1425       0.0687324 
        4.50819        0.141625       0.0681111 
         4.5239        0.141364       0.0674965 
        4.53962        0.140537       0.0668887 
        4.55535        0.140173        0.066288 
        4.57106        0.139453       0.0656955 
        4.58678        0.138911       0.0651101 
         4.6025        0.138246       0.0645316 
        4.61821        0.137843       0.0639602 
        4.63391        0.137477       0.0633965 
         4.6496        0.137068       0.0628397 
        4.66532        0.136657       0.0622887 
        4.68103        0.136735       0.0617445 
        4.69673        0.136173       0.0612072 
        4.71241        0.136025       0.0606769 
        4.72811        0.135799       0.0601519 
        4.74384        0.135393       0.0596324 
        4.75955        0.135629       0.0591198 
        4.77525        0.135297       0.0586135 
        4.79096        0.135592       0.0581124 
        4.80669        0.135211       0.0576169 
         4.8224        0.135142       0.0571278 
        4.83809        0.135291       0.0566447 
        4.85379        0.135628        0.056167 
         4.8695        0.135563       0.0556943 
        4.88521        0.135668       0.0552272 
        4.90093         0.13593       0.0547654 
        4.91663        0.136181       0.0543092 
        4.93234        0.136475       0.0538577 
        4.94807        0.136595        0.053411 
        4.96377        0.137095       0.0529702 
        4.97943        0.137981       0.0525353 
        4.99514         0.13813        0.052104 
        5.01086        0.138411       0.0516773 
        5.02654        0.139209       0.0512564 
        5.04227         0.13952       0.0508389 
          5.058         0.14005       0.0504258 
        5.07371        0.140527       0.0500181 
        5.08942        0.141612       0.0496148 
        5.10513        0.141967       0.0492159 
        5.12084         0.14265       0.0488212 
        5.13656        0.143856       0.0484308 
        5.15225        0.144296       0.0480454 
        5.16796        0.145563       0.0476635 
        5.18369        0.146202       0.0472853 
         5.1994        0.147344       0.0469119 
        5.21509        0.148067       0.0465429 
        5.23079        0.149217       0.0461774 
        5.24649        0.150277        0.045816 
        5.26217        0.150778       0.0454588 
        5.27788        0.151818       0.0451048 
        5.29359        0.153562       0.0447545 
        5.30933        0.154707       0.0444074 
        5.32504        0.156053       0.0440645 
        5.34073        0.157261       0.0437256 
        5.35646        0.158727       0.0433896 
        5.37218        0.160072        0.043057 
        5.38789        0.161485       0.0427284 
        5.40357         0.16265       0.0424036 
        5.41929         0.16402       0.0420814 
        5.43502        0.165311       0.0417625 
         5.4507        0.167103       0.0414477 
        5.46639        0.169252        0.041136 
        5.48212        0.171084       0.0408268 
        5.49786        0.172446       0.0405204 
        5.51353        0.174348       0.0402186 
        5.52921        0.176116       0.0399196 
        5.54495        0.177895       0.0396227 
        5.56066        0.180647       0.0393291 
        5.57637        0.181554       0.0390385 
        5.59207         0.18453       0.0387511 
        5.60778        0.185686       0.0384665 
        5.62346        0.189003       0.0381851 
        5.63916        0.190251       0.0379062 
        5.65487        0.192138         0.03763 
         5.6706        0.194624       0.0373561 
        5.68633        0.197749       0.0370849 
        5.70203        0.199672       0.0368169 
        5.71773        0.201656       0.0365516 
        5.73344        0.203266       0.0362887 
        5.74916        0.206607       0.0360282 
        5.76486        0.208159       0.0357706 
        5.78054        0.212287       0.0355158 
        5.79626        0.212891       0.0352628 
          5.812         0.21541        0.035012 
         5.8277        0.218669       0.0347644 
        5.84339        0.221784       0.0345191 
        5.85911        0.224009       0.0342757 
        5.87484        0.225732       0.0340347 
        5.89053        0.230523       0.0337965 
        5.90623          0.2323       0.0335604 
        5.92195         0.23513       0.0333262 
        5.93767        0.238709       0.0330943 
        5.95336        0.240097       0.0328649 
        5.96905        0.243398       0.0326379 
        5.98476        0.246331       0.0324126 
        6.00048        0.251005       0.0321894 
        6.01617         0.25225       0.0319685 
        6.03185        0.254886         0.03175 
        6.04756        0.257763        0.031533 
        6.06331         0.26167       0.0313175 
        6.07903        0.264694       0.0311045 
        6.09473        0.266977       0.0308937 
        6.11044        0.271102       0.0306846 
        6.12616         0.27371       0.0304775 
        6.14186        0.276969       0.0302724 
        6.15755        0.280285       0.0300693 
        6.17326        0.283914       0.0298678 
        6.18898        0.286688       0.0296681 
        6.20467        0.290808       0.0294706 
        6.22036        0.292348       0.0292749 
         6.2361        0.296196       0.0290804 
         6.2518        0.298234       0.0288879 
        6.26748        0.301297       0.0286977 
        6.28319        0.306183       0.0285086 
        6.29893        0.309928        0.028321 
        6.31463        0.312031       0.0281354 
        6.33033         0.31502       0.0279515 
        6.34604        0.318232       0.0277692 
        6.36177        0.321325       0.0275883 
        6.37747        0.325283       0.0274093 
