# k  (h/Mpc)    Pcb(k)  (Mpc/h)^3    Pcb_linear(k) (Mpc/h)^3   ShotnoiseSubtracted = true
      0.0200456         727.599         735.832 
      0.0350414         473.663         466.095 
      0.0492313         318.377          316.67 
      0.0637834          257.08         259.387 
      0.0800726         194.909         196.771 
       0.096163         136.727         134.329 
       0.111083         108.371         106.364 
       0.126058         94.5276         95.1205 
       0.142273         77.2241          77.695 
       0.158546         59.5571         59.0239 
        0.17375         50.8508         50.1059 
       0.188953         45.9148         45.6925 
       0.204907         38.8341         39.3638 
       0.220756         32.7629         32.4514 
        0.23588         28.6153         28.3761 
         0.2514         26.0623         25.9249 
       0.267535         23.3217         23.0536 
       0.283568         20.2218         19.9704 
       0.299022         18.1061         17.8082 
       0.314451         16.8214         16.3276 
       0.330372         15.1066         14.8266 
       0.346141         13.5742         13.2928 
       0.361624         12.2893         12.0552 
       0.377134         11.2644         11.1016 
       0.392932          10.632         10.2137 
       0.408854         9.54591         9.33805 
       0.424564          8.9577          8.5768 
       0.440253         8.18697         7.94377 
       0.455999         7.49653         7.37466 
       0.471626         6.97685         6.84018 
        0.48727         6.62079         6.35373 
       0.502856         6.19522         5.92885 
       0.518488         5.68319         5.54489 
       0.534347         5.28646         5.18375 
       0.550082         5.03805          4.8534 
       0.565732          4.7873         4.55691 
       0.581496         4.47005         4.28485 
       0.597222          4.2001          4.0343 
       0.612804         3.94055         3.80415 
       0.628434         3.76005          3.5918 
       0.644267         3.56186          3.3941 
       0.660051         3.36449         3.21174 
       0.675724         3.16555         3.04367 
       0.691403         3.02414         2.88738 
       0.707174         2.86588         2.74108 
       0.722871         2.78259         2.60543 
        0.73838         2.59045         2.48033 
       0.754018         2.46529         2.36245 
       0.769845         2.33129          2.2509 
        0.78569         2.26069         2.14642 
       0.801365         2.15825         2.04957 
       0.817031         2.06985         1.95876 
       0.832809         1.95936         1.87287 
       0.848511         1.88987         1.79249 
       0.864097         1.81709         1.71738 
       0.879701         1.75722         1.64649 
       0.895507         1.66494         1.57876 
       0.911279         1.60805         1.51497 
        0.92691         1.55673         1.45522 
       0.942635         1.47414         1.39836 
       0.958396         1.42727          1.3444 
       0.974128         1.37814         1.29338 
       0.989692         1.31876          1.2455 
        1.00528         1.27226         1.19997 
        1.02113         1.23483         1.15599 
        1.03692         1.20069         1.11437 
        1.05264         1.14241         1.07499 
        1.06832         1.10884         1.03756 
        1.08405         1.06351         1.00181 
        1.09979         1.03574        0.967717 
        1.11537        0.996982        0.935544 
        1.13105        0.957232        0.904637 
        1.14679        0.933989        0.875003 
        1.16256         0.90305        0.846634 
        1.17828        0.881305        0.819612 
        1.19395        0.849103        0.793857 
         1.2097        0.820729        0.769074 
        1.22537        0.792053        0.745464 
          1.241        0.772068        0.722914 
        1.25666        0.754885        0.701238 
        1.27241         0.73022        0.680345 
        1.28819        0.702189        0.660266 
        1.30392        0.684703        0.641052 
        1.31957        0.667532        0.622686 
        1.33529        0.642416        0.604969 
        1.35108        0.627014        0.587869 
        1.36674        0.608706        0.571549 
         1.3824        0.597768        0.555862 
        1.39811        0.578023        0.540708 
        1.41389         0.56261         0.52606 
        1.42964         0.54686        0.511977 
        1.44531        0.532591        0.498476 
        1.46101         0.51629        0.485431 
        1.47667        0.505837         0.47289 
        1.49229        0.488965        0.460823 
        1.50793        0.477798        0.449163 
        1.52367        0.464801        0.437829 
        1.53953        0.451418        0.426808 
        1.55526        0.443365        0.416253 
        1.57092        0.435832        0.406097 
        1.58662        0.426209        0.396254 
        1.60235        0.412569        0.386717 
        1.61809        0.401393        0.377488 
        1.63369        0.389893         0.36864 
        1.64941        0.383538        0.360012 
        1.66519        0.375605        0.351627 
        1.68085        0.364607        0.343568 
        1.69652        0.356591        0.335757 
        1.71228        0.347565        0.328144 
        1.72806        0.340772         0.32076 
        1.74368        0.332641        0.313677 
        1.75933         0.32607        0.306792 
        1.77505        0.319615         0.30008 
        1.79081        0.308998        0.293556 
         1.8065        0.305722        0.287254 
        1.82218        0.296698        0.281141 
        1.83797        0.287858        0.275163 
        1.85367        0.285466        0.269391 
        1.86928        0.278047        0.263819 
        1.88497        0.270882        0.258373 
        1.90073         0.26757         0.25306 
        1.91647        0.260338          0.2479 
        1.93218         0.25587        0.242894 
        1.94787         0.25013        0.238034 
        1.96363        0.245241        0.233286 
        1.97935        0.239744        0.228677 
        1.99499        0.235098        0.224218 
        2.01064        0.230454         0.21987 
         2.0264        0.224936         0.21561 
        2.04216        0.220369        0.211465 
        2.05781        0.216687        0.207454 
        2.07353        0.211961        0.203532 
        2.08928        0.209137        0.199703 
        2.10499        0.203971        0.195981 
        2.12065        0.200238        0.192366 
        2.13633         0.19661        0.188837 
        2.15211        0.192454        0.185375 
        2.16785        0.189452        0.182008 
        2.18349        0.185585        0.178745 
        2.19916         0.18157        0.175555 
        2.21489        0.177876        0.172432 
        2.23063        0.174958        0.169383 
         2.2463        0.171722         0.16642 
        2.26194        0.168833        0.163535 
        2.27765        0.165715        0.160704 
        2.29341        0.162474        0.157932 
        2.30914        0.158882         0.15523 
        2.32486        0.156492        0.152593 
        2.34061        0.153438        0.150012 
        2.35635        0.151036        0.147494 
        2.37203        0.149068        0.145041 
        2.38768        0.146407        0.142649 
        2.40339        0.143182        0.140301 
        2.41914        0.141293        0.138001 
        2.43483        0.138438        0.135761 
         2.4505        0.135841        0.133573 
        2.46622          0.1338        0.131426 
        2.48195        0.131038        0.129326 
        2.49759        0.129879        0.127282 
        2.51328        0.126711        0.125277 
        2.52906        0.124773        0.123302 
        2.54479        0.122766        0.121378 
        2.56049         0.12034        0.119497 
        2.57618        0.118997        0.117658 
        2.59189        0.116537        0.115854 
        2.60758         0.11532        0.114091 
        2.62325        0.113293        0.112367 
        2.63898        0.111746        0.110672 
        2.65468        0.109041        0.109015 
        2.67044        0.107683        0.107385 
        2.68618        0.105878        0.105792 
        2.70184          0.1045        0.104237 
        2.71755        0.102567         0.10271 
        2.73329        0.101447         0.10121 
        2.74897       0.0992907       0.0997456 
        2.76462       0.0982015       0.0983129 
        2.78034       0.0964033       0.0969022 
        2.79607       0.0952254       0.0955176 
        2.81179       0.0929773       0.0941614 
        2.82749       0.0921137       0.0928329 
        2.84321       0.0908805       0.0915285 
        2.85893       0.0891881       0.0902493 
        2.87462       0.0880162       0.0889966 
        2.89033        0.086637       0.0877664 
        2.90605       0.0855191       0.0865582 
        2.92176       0.0844054       0.0853733 
        2.93747       0.0829915        0.084211 
        2.95318       0.0819847         0.08307 
        2.96891       0.0808774       0.0819495 
        2.98456       0.0798801       0.0808544 
        3.00023       0.0783617       0.0797777 
        3.01596       0.0773328       0.0787171 
        3.03164       0.0761046       0.0776787 
        3.04738       0.0752889       0.0766558 
         3.0631        0.074185       0.0756516 
        3.07883       0.0730204       0.0746653 
        3.09456       0.0722544       0.0736966 
        3.11026        0.071039       0.0727464 
        3.12596       0.0701505        0.071813 
        3.14163       0.0693438        0.070898 
        3.15734       0.0686421       0.0699968 
        3.17308       0.0675816       0.0691089 
        3.18879       0.0666442       0.0682388 
        3.20447       0.0657162       0.0673848 
         3.2202       0.0650251       0.0665427 
         3.2359       0.0641149       0.0657164 
        3.25157       0.0631574        0.064906 
        3.26729       0.0625573       0.0641067 
        3.28304       0.0619309       0.0633192 
        3.29877       0.0608018       0.0625459 
        3.31446       0.0603677       0.0617872 
        3.33014       0.0596531       0.0610416 
        3.34585       0.0586422       0.0603071 
        3.36158       0.0579377       0.0595835 
        3.37727       0.0574318       0.0588739 
        3.39294       0.0568188       0.0581765 
        3.40867       0.0560844       0.0574878 
        3.42439       0.0555446       0.0568106 
        3.44008       0.0549805       0.0561455 
        3.45578       0.0544461       0.0554905 
        3.47153       0.0538416       0.0548444 
        3.48724       0.0531771       0.0542097 
        3.50292       0.0527785       0.0535865 
        3.51859       0.0521033       0.0529733 
        3.53431       0.0515432       0.0523677 
        3.55007       0.0510416         0.05177 
        3.56577       0.0507317        0.051184 
        3.58146       0.0499842       0.0506072 
        3.59719        0.049361        0.050038 
        3.61292       0.0488602       0.0494776 
        3.62859       0.0486368       0.0489279 
        3.64429       0.0478738       0.0483854 
        3.66003       0.0477568       0.0478494 
        3.67578       0.0471775       0.0473217 
        3.69146       0.0468168       0.0468038 
        3.70712       0.0462985       0.0462947 
        3.72284       0.0457815       0.0457911 
        3.73853       0.0455301       0.0452959 
        3.75422       0.0450324       0.0448077 
        3.76993        0.044645       0.0443263 
        3.78564       0.0443818       0.0438521 
        3.80137        0.044018       0.0433841 
        3.81707       0.0434013       0.0429238 
        3.83279       0.0431975       0.0424697 
        3.84853       0.0427551       0.0420215 
        3.86424       0.0424132       0.0415805 
        3.87992       0.0421104       0.0411465 
        3.89561       0.0417133       0.0407187 
        3.91134       0.0413161        0.040296 
        3.92704       0.0409094       0.0398797 
        3.94273        0.040537       0.0394697 
        3.95845        0.040137       0.0390647 
        3.97418       0.0399166       0.0386652 
        3.98988       0.0392787       0.0382718 
        4.00554       0.0390236        0.037885 
        4.02125       0.0386763       0.0375023 
        4.03698       0.0380896       0.0371243 
        4.05268       0.0376786       0.0367523 
        4.06839       0.0371565       0.0363852 
         4.0841       0.0365665       0.0360231 
        4.09983       0.0360861       0.0356654 
        4.11555       0.0355571       0.0353127 
        4.13124       0.0350997       0.0349656 
        4.14693       0.0346206       0.0346229 
        4.16266       0.0342648        0.034284 
        4.17839        0.033754       0.0339498 
        4.19408       0.0333211       0.0336208 
        4.20977       0.0329713        0.033296 
        4.22551       0.0325159       0.0329746 
        4.24123       0.0321968       0.0326578 
        4.25691       0.0319098        0.032346 
        4.27259       0.0315989       0.0320382 
        4.28831       0.0312949       0.0317337 
        4.30404        0.030932       0.0314328 
        4.31974       0.0306629       0.0311365 
        4.33543       0.0304358       0.0308441 
        4.35116       0.0302207       0.0305548 
        4.36688       0.0299264       0.0302693 
        4.38255       0.0297003       0.0299884 
        4.39825       0.0295471       0.0297105 
        4.41398       0.0292765       0.0294355 
         4.4297       0.0291869       0.0291643 
        4.44541       0.0290033       0.0288965 
        4.46111       0.0288413       0.0286323 
        4.47683       0.0286881       0.0283711 
        4.49251       0.0285717       0.0281138 
        4.50819       0.0284994       0.0278596 
         4.5239       0.0283594       0.0276082 
        4.53962       0.0283254       0.0273596 
        4.55535       0.0282517       0.0271139 
        4.57106       0.0281495       0.0268716 
        4.58678       0.0281519       0.0266321 
         4.6025        0.028083       0.0263955 
        4.61821       0.0281157       0.0261618 
        4.63391       0.0280453       0.0259312 
         4.6496       0.0280452       0.0257034 
        4.66532       0.0281151       0.0254781 
        4.68103       0.0281393       0.0252555 
        4.69673       0.0281095       0.0250357 
        4.71241       0.0282412       0.0248188 
        4.72811       0.0281444       0.0246041 
        4.74384       0.0283233       0.0243916 
        4.75955       0.0283913       0.0241819 
        4.77525       0.0284916       0.0239748 
        4.79096       0.0286899       0.0237698 
        4.80669       0.0287755       0.0235672 
         4.8224       0.0289022       0.0233671 
        4.83809       0.0290335       0.0231695 
        4.85379       0.0292752       0.0229741 
         4.8695        0.029481       0.0227808 
        4.88521        0.029606       0.0225897 
        4.90093       0.0298703       0.0224008 
        4.91663         0.03005       0.0222142 
        4.93234       0.0302309       0.0220295 
        4.94807       0.0304729       0.0218468 
        4.96377       0.0307034       0.0216665 
        4.97943       0.0311769       0.0214886 
        4.99514       0.0313179       0.0213122 
        5.01086       0.0316041       0.0211377 
        5.02654       0.0320343       0.0209655 
        5.04227       0.0323583       0.0207947 
          5.058       0.0326252       0.0206258 
        5.07371       0.0330303        0.020459 
        5.08942       0.0334976       0.0202941 
        5.10513       0.0337502       0.0201309 
        5.12084       0.0341487       0.0199694 
        5.13656       0.0346325       0.0198098 
        5.15225       0.0351429       0.0196521 
        5.16796       0.0355522       0.0194959 
        5.18369       0.0360436       0.0193412 
         5.1994       0.0364956       0.0191885 
        5.21509       0.0371148       0.0190375 
        5.23079       0.0376278        0.018888 
        5.24649        0.038231       0.0187402 
        5.26217       0.0387608       0.0185941 
        5.27788        0.039532       0.0184493 
        5.29359       0.0401889        0.018306 
        5.30933       0.0404863        0.018164 
        5.32504       0.0413264       0.0180238 
        5.34073       0.0417978       0.0178852 
        5.35646       0.0427066       0.0177477 
        5.37218       0.0433712       0.0176117 
        5.38789       0.0441733       0.0174773 
        5.40357       0.0450689       0.0173444 
        5.41929        0.045847       0.0172127 
        5.43502       0.0468813       0.0170822 
         5.4507       0.0474215       0.0169534 
        5.46639       0.0483949        0.016826 
        5.48212       0.0491323       0.0166995 
        5.49786       0.0503551       0.0165741 
        5.51353       0.0514717       0.0164507 
        5.52921       0.0521175       0.0163284 
        5.54495       0.0533809       0.0162069 
        5.56066       0.0542954       0.0160869 
        5.57637       0.0555729        0.015968 
        5.59207       0.0563119       0.0158505 
        5.60778       0.0575551        0.015734 
        5.62346         0.05892       0.0156189 
        5.63916       0.0600601       0.0155049 
        5.65487       0.0619754       0.0153919 
         5.6706        0.062185       0.0152799 
        5.68633       0.0639157       0.0151689 
        5.70203       0.0654337       0.0150593 
        5.71773        0.067017       0.0149508 
        5.73344       0.0686748       0.0148433 
        5.74916       0.0703403       0.0147367 
        5.76486       0.0716457       0.0146313 
        5.78054       0.0733917       0.0145271 
        5.79626        0.074812       0.0144236 
          5.812       0.0766787        0.014321 
         5.8277       0.0784098       0.0142197 
        5.84339       0.0799966       0.0141194 
        5.85911       0.0818511       0.0140199 
        5.87484       0.0835872       0.0139213 
        5.89053       0.0861171       0.0138238 
        5.90623       0.0883476       0.0137273 
        5.92195       0.0897821       0.0136315 
        5.93767       0.0920627       0.0135366 
        5.95336       0.0944887       0.0134428 
        5.96905        0.097112       0.0133499 
        5.98476       0.0985897       0.0132578 
        6.00048        0.101149       0.0131665 
        6.01617        0.103655       0.0130762 
        6.03185        0.106047       0.0129868 
        6.04756        0.107719        0.012898 
        6.06331        0.111376       0.0128099 
        6.07903         0.11408       0.0127228 
        6.09473        0.116209       0.0126365 
        6.11044         0.12034        0.012551 
        6.12616        0.121989       0.0124663 
        6.14186        0.125653       0.0123824 
        6.15755        0.128281       0.0122993 
        6.17326        0.131877       0.0122169 
        6.18898        0.134937       0.0121352 
        6.20467        0.138264       0.0120544 
        6.22036        0.142052       0.0119744 
         6.2361        0.144285       0.0118948 
         6.2518        0.149482       0.0118161 
        6.26748        0.152885       0.0117383 
        6.28319        0.156455       0.0116609 
        6.29893        0.160285       0.0115842 
        6.31463        0.164579       0.0115083 
        6.33033        0.167694       0.0114331 
        6.34604        0.172484       0.0113585 
        6.36177        0.175816       0.0112845 
        6.37747        0.179705       0.0112113 
