# k  (h/Mpc)    Pcb(k)  (Mpc/h)^3    Pcb_linear(k) (Mpc/h)^3   ShotnoiseSubtracted = true
      0.0200456         3252.29         3294.96 
      0.0350414         2072.43         2087.11 
      0.0492313         1423.78            1418 
      0.0637834         1177.44          1161.5 
      0.0800726         894.993         881.112 
       0.096163         600.163         601.505 
       0.111083         472.712         476.284 
       0.126058         430.156         425.937 
       0.142273         357.112         347.908 
       0.158546         276.219         264.301 
        0.17375         226.938         224.367 
       0.188953         212.036         204.605 
       0.204907         190.919         176.266 
       0.220756         155.726         145.313 
        0.23588         135.763         127.064 
         0.2514         121.309         116.088 
       0.267535         110.658         103.231 
       0.283568         97.6033         89.4248 
       0.299022         88.5323         79.7428 
       0.314451         79.2578         73.1129 
       0.330372         73.1471         66.3917 
       0.346141         65.4861         59.5234 
       0.361624         60.6854         53.9814 
       0.377134         56.8241         49.7115 
       0.392932         50.2289         45.7357 
       0.408854         48.0283         41.8145 
       0.424564         44.9938         38.4058 
       0.440253         41.4377         35.5711 
       0.455999         38.7116         33.0227 
       0.471626         36.1176         30.6294 
        0.48727         34.1868         28.4512 
       0.502856         32.0419         26.5486 
       0.518488         30.4453         24.8292 
       0.534347         29.1588         23.2121 
       0.550082         26.4738         21.7329 
       0.565732         24.6347         20.4052 
       0.581496         24.0016          19.187 
       0.597222         23.0853          18.065 
       0.612804         21.4734         17.0345 
       0.628434         20.6461         16.0836 
       0.644267          19.982         15.1983 
       0.660051         18.8723         14.3818 
       0.675724         17.8314         13.6291 
       0.691403         17.2313         12.9293 
       0.707174         16.5104         12.2742 
       0.722871         15.8444         11.6668 
        0.73838         15.1466         11.1066 
       0.754018         14.5692         10.5787 
       0.769845         14.0144         10.0792 
        0.78569          13.513         9.61138 
       0.801365         12.9559         9.17772 
       0.817031         12.5348         8.77106 
       0.832809         12.2401         8.38644 
       0.848511         11.4643         8.02655 
       0.864097         11.2109          7.6902 
       0.879701         10.8563         7.37277 
       0.895507         10.3888         7.06947 
       0.911279         10.1406         6.78382 
        0.92691         9.83296         6.51628 
       0.942635         9.38501         6.26164 
       0.958396         9.14409         6.02004 
       0.974128          8.8605         5.79158 
       0.989692          8.7226         5.57718 
        1.00528         8.45476         5.37329 
        1.02113         8.07801         5.17636 
        1.03692         7.86084            4.99 
        1.05264          7.7072         4.81364 
        1.06832          7.4637         4.64605 
        1.08405         7.21585         4.48597 
        1.09979         7.03503         4.33331 
        1.11537         6.90702         4.18924 
        1.13105         6.70569         4.05084 
        1.14679         6.57457         3.91814 
        1.16256          6.3207         3.79111 
        1.17828         6.26205         3.67011 
        1.19395         6.00068         3.55478 
         1.2097         5.90333         3.44381 
        1.22537         5.73073         3.33809 
          1.241          5.6252         3.23711 
        1.25666         5.51449         3.14005 
        1.27241         5.34882         3.04649 
        1.28819         5.22061         2.95658 
        1.30392         5.14959         2.87054 
        1.31957         5.02705          2.7883 
        1.33529         4.91758         2.70897 
        1.35108         4.79248          2.6324 
        1.36674         4.74623         2.55932 
         1.3824         4.57228         2.48907 
        1.39811           4.502         2.42122 
        1.41389         4.41684         2.35563 
        1.42964         4.33434         2.29256 
        1.44531         4.24528         2.23211 
        1.46101         4.14722         2.17369 
        1.47667         4.07675         2.11754 
        1.49229         4.02073         2.06351 
        1.50793         3.91278         2.01129 
        1.52367         3.85275         1.96054 
        1.53953         3.76512         1.91119 
        1.55526         3.70928         1.86393 
        1.57092         3.64073         1.81845 
        1.58662          3.5662         1.77437 
        1.60235         3.51262         1.73167 
        1.61809         3.44515         1.69034 
        1.63369         3.38127         1.65072 
        1.64941         3.31792         1.61208 
        1.66519         3.28146         1.57454 
        1.68085         3.20957         1.53845 
        1.69652         3.14627         1.50348 
        1.71228         3.10364         1.46939 
        1.72806         3.05036         1.43632 
        1.74368         2.99217          1.4046 
        1.75933         2.95608         1.37377 
        1.77505         2.91174         1.34372 
        1.79081         2.85084         1.31451 
         1.8065         2.81927         1.28628 
        1.82218         2.77868         1.25891 
        1.83797         2.74602         1.23214 
        1.85367         2.67992          1.2063 
        1.86928         2.65482         1.18134 
        1.88497         2.61013         1.15696 
        1.90073         2.56216         1.13317 
        1.91647         2.52715         1.11006 
        1.93218         2.49775         1.08765 
        1.94787         2.46993         1.06588 
        1.96363         2.42246         1.04462 
        1.97935         2.38494         1.02398 
        1.99499         2.34955         1.00402 
        2.01064         2.32266         0.98455 
         2.0264         2.28274        0.965474 
        2.04216         2.26206        0.946911 
        2.05781         2.22173         0.92895 
        2.07353         2.20714        0.911389 
        2.08928         2.17453        0.894241 
        2.10499         2.13791        0.877578 
        2.12065         2.11931        0.861387 
        2.13633         2.08571        0.845588 
        2.15211         2.05972        0.830082 
        2.16785         2.03636        0.815006 
        2.18349         2.00524        0.800396 
        2.19916         1.97376        0.786112 
        2.21489         1.96287        0.772128 
        2.23063           1.923        0.758472 
         2.2463         1.90654        0.745206 
        2.26194         1.87962        0.732289 
        2.27765         1.86607         0.71961 
        2.29341         1.83788        0.707196 
        2.30914         1.81032        0.695099 
        2.32486         1.79887        0.683291 
        2.34061         1.77257        0.671735 
        2.35635         1.75328        0.660456 
        2.37203         1.74007        0.649473 
        2.38768          1.7149        0.638761 
        2.40339         1.68985        0.628251 
        2.41914         1.67157        0.617951 
        2.43483         1.65977        0.607917 
         2.4505         1.63706        0.598122 
        2.46622         1.62381        0.588507 
        2.48195         1.59784        0.579102 
        2.49759         1.58253        0.569952 
        2.51328         1.56449        0.560974 
        2.52906         1.55544        0.552132 
        2.54479         1.53072        0.543512 
        2.56049         1.51738        0.535092 
        2.57618         1.50278        0.526856 
        2.59189         1.49202        0.518781 
        2.60758         1.47192        0.510886 
        2.62325         1.45367        0.503164 
        2.63898         1.43801        0.495574 
        2.65468          1.4261        0.488156 
        2.67044         1.41354        0.480856 
        2.68618         1.39655        0.473722 
        2.70184         1.38483        0.466761 
        2.71755          1.3718        0.459921 
        2.73329         1.35482        0.453206 
        2.74897         1.34612        0.446647 
        2.76462         1.33189        0.440232 
        2.78034         1.31577        0.433915 
        2.79607         1.30423        0.427715 
        2.81179           1.296        0.421642 
        2.82749         1.27582        0.415693 
        2.84321         1.27293        0.409852 
        2.85893         1.25906        0.404124 
        2.87462         1.24304        0.398515 
        2.89033         1.23401        0.393006 
        2.90605         1.22084        0.387596 
        2.92176         1.20919         0.38229 
        2.93747         1.19571        0.377085 
        2.95318         1.18805        0.371976 
        2.96891         1.18138        0.366959 
        2.98456         1.16947        0.362055 
        3.00023         1.15758        0.357234 
        3.01596         1.14901        0.352484 
        3.03164         1.14298        0.347834 
        3.04738         1.12528        0.343254 
         3.0631         1.12026        0.338758 
        3.07883         1.10987        0.334341 
        3.09456         1.09986        0.330003 
        3.11026         1.09458        0.325749 
        3.12596         1.08083        0.321569 
        3.14163         1.07429        0.317472 
        3.15734          1.0652        0.313436 
        3.17308         1.05469         0.30946 
        3.18879         1.04979        0.305564 
        3.20447         1.04204         0.30174 
         3.2202          1.0283        0.297969 
         3.2359         1.02242        0.294269 
        3.25157         1.01626         0.29064 
        3.26729         1.00436        0.287061 
        3.28304         1.00256        0.283535 
        3.29877        0.988877        0.280072 
        3.31446        0.983107        0.276675 
        3.33014        0.980132        0.273336 
        3.34585        0.970958        0.270047 
        3.36158         0.96306        0.266807 
        3.37727        0.954203        0.263629 
        3.39294        0.948031        0.260507 
        3.40867        0.935993        0.257423 
        3.42439        0.934423         0.25439 
        3.44008        0.927828        0.251412 
        3.45578        0.920148        0.248479 
        3.47153        0.914706        0.245586 
        3.48724        0.906121        0.242744 
        3.50292        0.901477        0.239953 
        3.51859        0.896938        0.237207 
        3.53431        0.888524        0.234495 
        3.55007         0.88298        0.231819 
        3.56577        0.876477        0.229195 
        3.58146        0.872612        0.226612 
        3.59719        0.865551        0.224063 
        3.61292        0.860339        0.221554 
        3.62859        0.854382        0.219092 
        3.64429        0.844892        0.216663 
        3.66003        0.841465        0.214263 
        3.67578        0.837138          0.2119 
        3.69146        0.830903        0.209581 
        3.70712        0.823421        0.207301 
        3.72284         0.81931        0.205046 
        3.73853         0.81411        0.202829 
        3.75422        0.810642        0.200643 
        3.76993        0.803378        0.198487 
        3.78564        0.799369        0.196364 
        3.80137        0.796069        0.194268 
        3.81707        0.788435        0.192207 
        3.83279        0.782622        0.190174 
        3.84853        0.779162        0.188166 
        3.86424        0.772116        0.186192 
        3.87992        0.770143        0.184249 
        3.89561        0.763791        0.182333 
        3.91134        0.761522         0.18044 
        3.92704        0.755489        0.178576 
        3.94273        0.750071         0.17674 
        3.95845        0.745213        0.174926 
        3.97418        0.739745        0.173138 
        3.98988        0.735291        0.171376 
        4.00554        0.729599        0.169644 
        4.02125        0.724561         0.16793 
        4.03698        0.720049        0.166238 
        4.05268        0.714218        0.164572 
        4.06839        0.708769        0.162928 
         4.0841        0.702619        0.161306 
        4.09983        0.697409        0.159705 
        4.11555        0.693677        0.158125 
        4.13124        0.687697        0.156571 
        4.14693        0.682446        0.155037 
        4.16266        0.677202        0.153519 
        4.17839         0.67199        0.152023 
        4.19408        0.669996        0.150549 
        4.20977        0.662585        0.149095 
        4.22551        0.659589        0.147656 
        4.24123         0.65519        0.146237 
        4.25691        0.649317        0.144841 
        4.27259        0.648477        0.143463 
        4.28831        0.642806        0.142099 
        4.30404        0.637261        0.140752 
        4.31974        0.635898        0.139425 
        4.33543        0.629883        0.138116 
        4.35116        0.626817         0.13682 
        4.36688        0.623203        0.135542 
        4.38255        0.619386        0.134284 
        4.39825           0.616         0.13304 
        4.41398        0.613773        0.131808 
         4.4297        0.608768        0.130594 
        4.44541        0.606953        0.129395 
        4.46111        0.604599        0.128211 
        4.47683        0.601065        0.127042 
        4.49251        0.598495         0.12589 
        4.50819        0.594967        0.124752 
         4.5239          0.5921        0.123626 
        4.53962        0.590418        0.122513 
        4.55535        0.585704        0.121412 
        4.57106        0.583901        0.120327 
        4.58678         0.58108        0.119255 
         4.6025        0.580035        0.118196 
        4.61821        0.576145        0.117149 
        4.63391        0.573518        0.116116 
         4.6496        0.571066        0.115097 
        4.66532        0.570901        0.114087 
        4.68103         0.56637        0.113091 
        4.69673        0.564972        0.112107 
        4.71241        0.563265        0.111135 
        4.72811        0.560886        0.110174 
        4.74384        0.558663        0.109222 
        4.75955        0.556418        0.108283 
        4.77525        0.555157        0.107356 
        4.79096         0.55296        0.106438 
        4.80669        0.551805        0.105531 
         4.8224        0.550377        0.104635 
        4.83809        0.548714         0.10375 
        4.85379        0.547081        0.102875 
         4.8695        0.545121        0.102009 
        4.88521        0.542244        0.101154 
        4.90093        0.543617        0.100308 
        4.91663          0.5412       0.0994723 
        4.93234        0.538396       0.0986453 
        4.94807        0.538944       0.0978272 
        4.96377        0.536256       0.0970197 
        4.97943        0.537099       0.0962231 
        4.99514        0.535278       0.0954333 
        5.01086        0.534092       0.0946516 
        5.02654         0.53432       0.0938807 
        5.04227        0.532327        0.093116 
          5.058        0.532201       0.0923595 
        5.07371        0.530838       0.0916127 
        5.08942        0.529892       0.0908741 
        5.10513        0.528934       0.0901435 
        5.12084        0.528559       0.0894204 
        5.13656        0.528918       0.0887055 
        5.15225        0.526845       0.0879994 
        5.16796        0.527312       0.0872999 
        5.18369        0.525728       0.0866073 
         5.1994        0.525897       0.0859234 
        5.21509        0.525278       0.0852475 
        5.23079        0.525475        0.084578 
        5.24649        0.524608       0.0839162 
        5.26217        0.523202       0.0832618 
        5.27788        0.524752       0.0826135 
        5.29359        0.523524       0.0819719 
        5.30933        0.523004       0.0813361 
        5.32504        0.524287       0.0807081 
        5.34073        0.523712       0.0800874 
        5.35646        0.522605        0.079472 
        5.37218        0.522973       0.0788628 
        5.38789        0.524622       0.0782609 
        5.40357        0.523849        0.077666 
        5.41929        0.522873       0.0770759 
        5.43502        0.523106       0.0764918 
         5.4507        0.524153       0.0759152 
        5.46639        0.522969       0.0753443 
        5.48212        0.523477        0.074778 
        5.49786        0.524235       0.0742167 
        5.51353        0.524822        0.073664 
        5.52921        0.522482       0.0731163 
        5.54495        0.524447       0.0725725 
        5.56066        0.526142       0.0720348 
        5.57637        0.525609       0.0715026 
        5.59207        0.524385       0.0709762 
        5.60778        0.526494       0.0704549 
        5.62346        0.526561       0.0699395 
        5.63916        0.526988       0.0694287 
        5.65487        0.527221       0.0689227 
         5.6706        0.527425       0.0684212 
        5.68633        0.529224       0.0679244 
        5.70203        0.530109       0.0674335 
        5.71773        0.530855       0.0669476 
        5.73344        0.530579       0.0664661 
        5.74916        0.531534       0.0659889 
        5.76486        0.531499        0.065517 
        5.78054        0.530761       0.0650504 
        5.79626        0.532596        0.064587 
          5.812        0.532172       0.0641277 
         5.8277        0.533694       0.0636741 
        5.84339        0.534723       0.0632249 
        5.85911        0.534126       0.0627791 
        5.87484        0.535863       0.0623377 
        5.89053        0.536757       0.0619013 
        5.90623         0.53694       0.0614689 
        5.92195        0.537821       0.0610399 
        5.93767        0.537493       0.0606151 
        5.95336        0.538486       0.0601951 
        5.96905        0.539022       0.0597792 
        5.98476        0.538557       0.0593666 
        6.00048        0.540262       0.0589577 
        6.01617        0.542589       0.0585532 
        6.03185        0.541643        0.058153 
        6.04756        0.543399       0.0577555 
        6.06331        0.543093       0.0573609 
        6.07903        0.544525       0.0569708 
        6.09473         0.54427       0.0565846 
        6.11044        0.546549       0.0562016 
        6.12616        0.546253       0.0558222 
        6.14186        0.546419       0.0554467 
        6.15755        0.546943       0.0550746 
        6.17326        0.548153       0.0547057 
        6.18898        0.548714       0.0543399 
        6.20467        0.549717       0.0539781 
        6.22036         0.54979       0.0536196 
         6.2361        0.550784       0.0532633 
         6.2518        0.551547       0.0529109 
        6.26748        0.550256       0.0525624 
        6.28319        0.552617        0.052216 
        6.29893        0.554096       0.0518725 
        6.31463        0.554715       0.0515326 
        6.33033        0.554832       0.0511958 
        6.34604        0.554232       0.0508618 
        6.36177        0.555995       0.0505304 
        6.37747        0.556355       0.0502026 
