# k  (h/Mpc)    Pcb(k)  (Mpc/h)^3    Pcb_linear(k) (Mpc/h)^3   ShotnoiseSubtracted = true
      0.0200456         3681.48         3730.36 
      0.0350414          2343.7         2362.91 
      0.0492313         1611.47         1605.38 
      0.0637834         1334.27         1314.98 
      0.0800726         1014.31         997.543 
       0.096163         679.264         680.989 
       0.111083         535.049         539.221 
       0.126058         487.573         482.221 
       0.142273         405.262         393.881 
       0.158546         314.133         299.226 
        0.17375         257.558         254.016 
       0.188953         241.246         231.642 
       0.204907         217.699         199.558 
       0.220756          177.69         164.515 
        0.23588         154.926         143.855 
         0.2514         138.201         131.428 
       0.267535         126.443         116.872 
       0.283568         111.721         101.242 
       0.299022         101.479         90.2801 
       0.314451         90.9529         82.7741 
       0.330372         83.9556         75.1648 
       0.346141         75.0985         67.3889 
       0.361624         69.7939         61.1146 
       0.377134         65.3641         56.2804 
       0.392932         57.8585         51.7793 
       0.408854          55.343           47.34 
       0.424564         52.0079         43.4808 
       0.440253         47.9516         40.2715 
       0.455999         44.7754         37.3864 
       0.471626         41.7265         34.6768 
        0.48727         39.6035         32.2107 
       0.502856         37.2024         30.0568 
       0.518488         35.3746         28.1102 
       0.534347          33.903         26.2794 
       0.550082         30.8017         24.6047 
       0.565732         28.7465         23.1016 
       0.581496         27.9694         21.7224 
       0.597222         26.9219         20.4522 
       0.612804         25.0802         19.2854 
       0.628434         24.1378         18.2089 
       0.644267         23.3862         17.2066 
       0.660051         22.1419         16.2822 
       0.675724         20.9301         15.4301 
       0.691403         20.2305         14.6378 
       0.707174         19.4259         13.8961 
       0.722871         18.6547         13.2084 
        0.73838         17.8606         12.5742 
       0.754018         17.1452         11.9766 
       0.769845         16.5456         11.4111 
        0.78569         15.9632         10.8814 
       0.801365         15.3158         10.3905 
       0.817031         14.8455         9.93009 
       0.832809         14.5064         9.49463 
       0.848511         13.5942         9.08719 
       0.864097         13.3192          8.7064 
       0.879701         12.9099         8.34702 
       0.895507          12.413         8.00364 
       0.911279         12.0705         7.68025 
        0.92691         11.7314         7.37735 
       0.942635         11.2059         7.08907 
       0.958396          10.945         6.81554 
       0.974128         10.5974         6.55689 
       0.989692         10.4413         6.31416 
        1.00528         10.1502         6.08332 
        1.02113         9.69387         5.86038 
        1.03692         9.43565         5.64939 
        1.05264         9.27319         5.44972 
        1.06832         8.97027         5.25998 
        1.08405         8.69601         5.07875 
        1.09979         8.48142         4.90592 
        1.11537         8.32983         4.74281 
        1.13105         8.10779         4.58613 
        1.14679         7.95698         4.43589 
        1.16256         7.64019         4.29208 
        1.17828         7.58878         4.15509 
        1.19395         7.27538         4.02452 
         1.2097         7.17858         3.89888 
        1.22537         6.96994         3.77919 
          1.241         6.84297         3.66487 
        1.25666         6.69236         3.55498 
        1.27241         6.50518         3.44906 
        1.28819         6.36096         3.34727 
        1.30392         6.28077         3.24986 
        1.31957         6.13971         3.15675 
        1.33529         6.00948         3.06694 
        1.35108         5.86103         2.98025 
        1.36674         5.80528         2.89751 
         1.3824         5.61107         2.81798 
        1.39811         5.52496         2.74116 
        1.41389         5.41717          2.6669 
        1.42964         5.32582         2.59551 
        1.44531         5.22658         2.52706 
        1.46101         5.09729         2.46093 
        1.47667         5.02608         2.39735 
        1.49229         4.95181         2.33618 
        1.50793         4.83376         2.27706 
        1.52367         4.75303         2.21961 
        1.53953          4.6575         2.16374 
        1.55526         4.59157         2.11023 
        1.57092         4.50553         2.05874 
        1.58662         4.43032         2.00884 
        1.60235         4.35679         1.96049 
        1.61809         4.27828          1.9137 
        1.63369         4.20356         1.86885 
        1.64941         4.12251         1.82511 
        1.66519         4.08484          1.7826 
        1.68085           3.999         1.74174 
        1.69652          3.9245         1.70215 
        1.71228         3.86937         1.66355 
        1.72806         3.81299         1.62612 
        1.74368         3.74067         1.59021 
        1.75933         3.69941          1.5553 
        1.77505         3.64198         1.52128 
        1.79081         3.57002         1.48821 
         1.8065         3.53735         1.45625 
        1.82218         3.47978         1.42526 
        1.83797         3.44307         1.39496 
        1.85367         3.36637          1.3657 
        1.86928         3.34305         1.33745 
        1.88497         3.27516         1.30984 
        1.90073         3.22712          1.2829 
        1.91647         3.18784         1.25675 
        1.93218         3.14905         1.23137 
        1.94787         3.10795         1.20673 
        1.96363         3.05908         1.18266 
        1.97935         3.00827         1.15929 
        1.99499         2.97045         1.13669 
        2.01064         2.93551         1.11465 
         2.0264         2.89128         1.09305 
        2.04216         2.86172         1.07204 
        2.05781         2.81558          1.0517 
        2.07353          2.7976         1.03182 
        2.08928         2.75688         1.01241 
        2.10499         2.71965        0.993542 
        2.12065          2.6853        0.975212 
        2.13633         2.65227        0.957326 
        2.15211         2.61954         0.93977 
        2.16785         2.58848        0.922702 
        2.18349          2.5521        0.906162 
        2.19916          2.5136         0.88999 
        2.21489         2.50066        0.874158 
        2.23063         2.45644        0.858698 
         2.2463         2.43399        0.843679 
        2.26194         2.39987        0.829055 
        2.27765         2.38543          0.8147 
        2.29341         2.35162        0.800646 
        2.30914          2.3186        0.786951 
        2.32486         2.29992        0.773582 
        2.34061         2.27154          0.7605 
        2.35635          2.2483         0.74773 
        2.37203         2.23328        0.735296 
        2.38768         2.20059        0.723168 
        2.40339         2.16887        0.711269 
        2.41914         2.14598        0.699608 
        2.43483         2.13574        0.688249 
         2.4505         2.10704        0.677159 
        2.46622          2.0866        0.666274 
        2.48195         2.05693        0.655626 
        2.49759         2.03928        0.645266 
        2.51328         2.01701        0.635102 
        2.52906         2.00643        0.625091 
        2.54479          1.9743        0.615333 
        2.56049         1.95967          0.6058 
        2.57618         1.93877        0.596476 
        2.59189         1.92616        0.587333 
        2.60758         1.90649        0.578395 
        2.62325         1.88227        0.569653 
        2.63898         1.85876         0.56106 
        2.65468         1.84642        0.552661 
        2.67044          1.8275        0.544398 
        2.68618         1.81174        0.536321 
        2.70184         1.79279        0.528439 
        2.71755         1.77932        0.520695 
        2.73329         1.75857        0.513094 
        2.74897         1.75099        0.505668 
        2.76462         1.73052        0.498405 
        2.78034         1.70755        0.491253 
        2.79607         1.69481        0.484234 
        2.81179         1.68665        0.477359 
        2.82749         1.65672        0.470624 
        2.84321          1.6585        0.464011 
        2.85893          1.6395        0.457526 
        2.87462         1.62086        0.451175 
        2.89033         1.61195        0.444938 
        2.90605         1.59508        0.438814 
        2.92176         1.57706        0.432806 
        2.93747         1.56037        0.426914 
        2.95318         1.54949         0.42113 
        2.96891         1.54513        0.415449 
        2.98456         1.52849        0.409898 
        3.00023          1.5128        0.404439 
        3.01596         1.50315        0.399062 
        3.03164         1.49456        0.393798 
        3.04738         1.47474        0.388613 
         3.0631         1.46515        0.383522 
        3.07883         1.45395        0.378521 
        3.09456         1.44206         0.37361 
        3.11026          1.4335        0.368794 
        3.12596         1.41627        0.364062 
        3.14163         1.40775        0.359423 
        3.15734         1.39772        0.354854 
        3.17308         1.38613        0.350353 
        3.18879         1.37909        0.345942 
        3.20447         1.36957        0.341612 
         3.2202         1.35107        0.337343 
         3.2359         1.34642        0.333154 
        3.25157         1.33669        0.329046 
        3.26729         1.32323        0.324994 
        3.28304         1.31772        0.321002 
        3.29877         1.30399        0.317081 
        3.31446         1.29484        0.313235 
        3.33014         1.28972        0.309455 
        3.34585         1.28047        0.305731 
        3.36158         1.27037        0.302063 
        3.37727         1.25433        0.298466 
        3.39294           1.251         0.29493 
        3.40867         1.23724        0.291439 
        3.42439         1.23277        0.288006 
        3.44008         1.22395        0.284634 
        3.45578         1.21409        0.281313 
        3.47153         1.20685        0.278038 
        3.48724         1.19814         0.27482 
        3.50292         1.19192        0.271661 
        3.51859         1.18201        0.268552 
        3.53431         1.17383        0.265482 
        3.55007         1.16619        0.262452 
        3.56577         1.15861        0.259481 
        3.58146         1.15148        0.256557 
        3.59719         1.14598        0.253671 
        3.61292         1.13536         0.25083 
        3.62859         1.12959        0.248043 
        3.64429         1.11626        0.245293 
        3.66003         1.11387        0.242576 
        3.67578         1.10876        0.239901 
        3.69146         1.09852        0.237276 
        3.70712         1.09018        0.234694 
        3.72284         1.08285        0.232142 
        3.73853         1.07754        0.229631 
        3.75422         1.07302        0.227156 
        3.76993         1.06107        0.224716 
        3.78564         1.05833        0.222312 
        3.80137         1.05438        0.219939 
        3.81707         1.04232        0.217605 
        3.83279         1.03647        0.215304 
        3.84853         1.03085        0.213031 
        3.86424         1.02488        0.210796 
        3.87992         1.01854        0.208596 
        3.89561         1.01211        0.206426 
        3.91134         1.00894        0.204283 
        3.92704         1.00204        0.202173 
        3.94273        0.993557        0.200095 
        3.95845        0.986564        0.198041 
        3.97418        0.981091        0.196016 
        3.98988        0.974367        0.194022 
        4.00554        0.968783        0.192061 
        4.02125        0.961841        0.190121 
        4.03698        0.957134        0.188205 
        4.05268        0.949114        0.186319 
        4.06839        0.944695        0.184457 
         4.0841         0.93481        0.182622 
        4.09983        0.928697        0.180808 
        4.11555        0.922865         0.17902 
        4.13124        0.915555        0.177261 
        4.14693        0.909963        0.175524 
        4.16266        0.901953        0.173806 
        4.17839        0.895885        0.172111 
        4.19408        0.893684        0.170443 
        4.20977        0.882491        0.168797 
        4.22551         0.87924        0.167167 
        4.24123        0.873478        0.165561 
        4.25691         0.86579        0.163981 
        4.27259        0.863518         0.16242 
        4.28831        0.857676        0.160876 
        4.30404         0.85098        0.159351 
        4.31974        0.848744        0.157849 
        4.33543         0.84157        0.156367 
        4.35116        0.837477          0.1549 
        4.36688        0.831629        0.153452 
        4.38255        0.826269        0.152029 
        4.39825        0.822118         0.15062 
        4.41398        0.817186        0.149226 
         4.4297        0.812955        0.147851 
        4.44541        0.810339        0.146493 
        4.46111        0.805595        0.145154 
        4.47683        0.802473         0.14383 
        4.49251         0.79809        0.142525 
        4.50819        0.794244        0.141236 
         4.5239        0.790527        0.139962 
        4.53962         0.78645        0.138702 
        4.55535        0.782036        0.137456 
        4.57106        0.776901        0.136228 
        4.58678        0.775512        0.135014 
         4.6025        0.773405        0.133814 
        4.61821        0.767802        0.132629 
        4.63391        0.763069         0.13146 
         4.6496        0.760208        0.130306 
        4.66532        0.760303        0.129163 
        4.68103        0.755321        0.128035 
        4.69673        0.752857         0.12692 
        4.71241        0.749949        0.125821 
        4.72811        0.745485        0.124732 
        4.74384        0.744225        0.123655 
        4.75955        0.740561        0.122592 
        4.77525        0.737447        0.121542 
        4.79096        0.735353        0.120503 
        4.80669         0.73249        0.119476 
         4.8224        0.731454        0.118461 
        4.83809        0.726915         0.11746 
        4.85379        0.725078        0.116469 
         4.8695        0.721854        0.115489 
        4.88521        0.719543         0.11452 
        4.90093        0.718651        0.113563 
        4.91663        0.715168        0.112617 
        4.93234        0.712103         0.11168 
        4.94807        0.711459        0.110754 
        4.96377        0.709307         0.10984 
        4.97943        0.707736        0.108938 
        4.99514        0.703576        0.108044 
        5.01086        0.703964        0.107159 
        5.02654        0.701766        0.106286 
        5.04227        0.699358        0.105421 
          5.058        0.698716        0.104564 
        5.07371         0.69637        0.103719 
        5.08942        0.694508        0.102882 
        5.10513        0.692928        0.102055 
        5.12084        0.690249        0.101237 
        5.13656        0.689736        0.100427 
        5.15225        0.688543       0.0996278 
        5.16796        0.687966       0.0988359 
        5.18369        0.684695       0.0980518 
         5.1994        0.684285       0.0972775 
        5.21509        0.683721       0.0965123 
        5.23079        0.682567       0.0957543 
        5.24649        0.679961        0.095005 
        5.26217         0.67922       0.0942642 
        5.27788        0.679509       0.0935302 
        5.29359        0.676202       0.0928038 
        5.30933        0.676612        0.092084 
        5.32504        0.674676       0.0913731 
        5.34073         0.67406       0.0906703 
        5.35646        0.674038       0.0899735 
        5.37218        0.672296       0.0892838 
        5.38789        0.671772       0.0886025 
        5.40357        0.670474       0.0879289 
        5.41929        0.668594       0.0872609 
        5.43502        0.668179       0.0865996 
         5.4507        0.666457       0.0859467 
        5.46639        0.666152       0.0853005 
        5.48212        0.667609       0.0846593 
        5.49786        0.664942       0.0840239 
        5.51353        0.665977       0.0833981 
        5.52921        0.661413        0.082778 
        5.54495        0.663827       0.0821624 
        5.56066        0.664735       0.0815536 
        5.57637        0.662747       0.0809511 
        5.59207        0.660272       0.0803551 
        5.60778        0.661742       0.0797649 
        5.62346        0.660706       0.0791814 
        5.63916        0.661797       0.0786031 
        5.65487        0.661175       0.0780303 
         5.6706        0.660469       0.0774625 
        5.68633        0.659218          0.0769 
        5.70203        0.659396       0.0763443 
        5.71773        0.660382       0.0757941 
        5.73344        0.659574       0.0752491 
        5.74916        0.659654       0.0747088 
        5.76486        0.658119       0.0741745 
        5.78054        0.658936       0.0736463 
        5.79626        0.658172       0.0731217 
          5.812        0.657002       0.0726016 
         5.8277        0.656031       0.0720881 
        5.84339        0.656985       0.0715795 
        5.85911        0.656623       0.0710748 
        5.87484        0.657048       0.0705751 
        5.89053        0.657615       0.0700811 
        5.90623        0.656351       0.0695915 
        5.92195        0.656908       0.0691058 
        5.93767         0.65638       0.0686249 
        5.95336         0.65519       0.0681494 
        5.96905        0.655684       0.0676785 
        5.98476        0.655093       0.0672114 
        6.00048        0.654969       0.0667485 
        6.01617        0.654262       0.0662906 
        6.03185        0.655488       0.0658375 
        6.04756         0.65547       0.0653875 
        6.06331        0.653882       0.0649407 
        6.07903        0.654958        0.064499 
        6.09473        0.654807       0.0640618 
        6.11044        0.654726       0.0636282 
        6.12616        0.654557       0.0631987 
        6.14186        0.654468       0.0627735 
        6.15755        0.652977       0.0623523 
        6.17326         0.65359       0.0619346 
        6.18898        0.653578       0.0615204 
        6.20467        0.654195       0.0611108 
        6.22036        0.653622       0.0607049 
         6.2361        0.653161       0.0603016 
         6.2518        0.653599       0.0599026 
        6.26748        0.651517        0.059508 
        6.28319        0.652777       0.0591159 
        6.29893        0.653377        0.058727 
        6.31463        0.653604       0.0583422 
        6.33033        0.653488       0.0579609 
        6.34604        0.651581       0.0575827 
        6.36177        0.653027       0.0572076 
        6.37747        0.652634       0.0568364 
