# k  (h/Mpc)    Pcb(k)  (Mpc/h)^3    Pcb_linear(k) (Mpc/h)^3   ShotnoiseSubtracted = true
      0.0200456         13701.6         13930.8 
      0.0350414         8594.32         8824.14 
      0.0492313         5974.09         5995.21 
      0.0637834         5041.78         4910.72 
      0.0800726         3836.32         3725.27 
       0.096163         2533.23         2543.12 
       0.111083         2006.62         2013.69 
       0.126058         1852.09         1800.83 
       0.142273         1564.62         1470.93 
       0.158546         1274.85         1117.44 
        0.17375         1018.79         948.608 
       0.188953         986.285         865.053 
       0.204907         909.206         745.238 
       0.220756           761.8         614.372 
        0.23588         670.452         537.219 
         0.2514         583.096         490.811 
       0.267535          561.67         436.453 
       0.283568         504.929         378.081 
       0.299022         470.084         337.146 
       0.314451         439.458         309.116 
       0.330372         403.166         280.699 
       0.346141         361.807          251.66 
       0.361624         349.221         228.229 
       0.377134         321.843         210.176 
       0.392932         302.911         193.367 
       0.408854          289.84         176.788 
       0.424564         273.574         162.377 
       0.440253         264.469         150.392 
       0.455999         247.206         139.617 
       0.471626         231.708         129.499 
        0.48727          221.99         120.289 
       0.502856         214.387         112.245 
       0.518488         211.217         104.976 
       0.534347         198.431          98.139 
       0.550082         185.935         91.8849 
       0.565732         181.653         86.2717 
       0.581496         171.883          81.121 
       0.597222         167.382         76.3775 
       0.612804         161.577         72.0204 
       0.628434         155.252         68.0002 
       0.644267          150.09         64.2573 
       0.660051         148.107         60.8049 
       0.675724         143.952         57.6229 
       0.691403           139.5          54.664 
       0.707174          133.91         51.8944 
       0.722871         131.983         49.3261 
        0.73838         128.955         46.9577 
       0.754018         125.211          44.726 
       0.769845         121.169         42.6142 
        0.78569         119.113         40.6361 
       0.801365         114.986         38.8027 
       0.817031         111.321         37.0834 
       0.832809         110.028         35.4572 
       0.848511         106.305         33.9356 
       0.864097         104.719         32.5136 
       0.879701         102.277         31.1715 
       0.895507         99.6594         29.8892 
       0.911279          97.298         28.6815 
        0.92691         96.6153         27.5503 
       0.942635         93.5608         26.4737 
       0.958396         93.2854         25.4522 
       0.974128         90.6211         24.4863 
       0.989692          88.575         23.5799 
        1.00528         86.5748         22.7178 
        1.02113         85.7568         21.8853 
        1.03692         82.8831         21.0973 
        1.05264         82.1278         20.3517 
        1.06832         80.1475         19.6431 
        1.08405         78.8086         18.9663 
        1.09979         78.5346         18.3209 
        1.11537         75.9791         17.7118 
        1.13105         75.6278         17.1266 
        1.14679         74.4872         16.5656 
        1.16256         73.3374         16.0285 
        1.17828         71.9151         15.5169 
        1.19395         70.2716         15.0293 
         1.2097         69.0221         14.5601 
        1.22537         68.8883         14.1132 
          1.241         67.5401         13.6863 
        1.25666         66.0002         13.2759 
        1.27241         64.9937         12.8803 
        1.28819         64.0086         12.5002 
        1.30392         63.0633         12.1364 
        1.31957         62.4985         11.7887 
        1.33529         61.0195         11.4533 
        1.35108          60.515         11.1296 
        1.36674         60.1063         10.8206 
         1.3824         58.7189         10.5236 
        1.39811         57.9021         10.2367 
        1.41389         57.2448          9.9594 
        1.42964          56.342         9.69278 
        1.44531          55.353         9.43717 
        1.46101         54.4862         9.19021 
        1.47667         54.5778         8.95278 
        1.49229         53.5588         8.72434 
        1.50793         53.2548         8.50357 
        1.52367         52.0111           8.289 
        1.53953         51.2962         8.08036 
        1.55526         50.9877         7.88053 
        1.57092           50.64         7.68825 
        1.58662          49.432         7.50191 
        1.60235         49.1729         7.32135 
        1.61809         48.5118         7.14662 
        1.63369         47.8016         6.97912 
        1.64941         47.5571         6.81576 
        1.66519         46.2741         6.65702 
        1.68085         46.2322         6.50444 
        1.69652          45.303         6.35658 
        1.71228         45.0451         6.21245 
        1.72806          44.614         6.07265 
        1.74368         43.9309         5.93854 
        1.75933         43.4502          5.8082 
        1.77505          42.997         5.68113 
        1.79081         42.5495         5.55763 
         1.8065         42.0644          5.4383 
        1.82218         41.5368         5.32257 
        1.83797         41.0313          5.2094 
        1.85367         40.6836         5.10013 
        1.86928         39.9259         4.99463 
        1.88497         39.8019         4.89153 
        1.90073         39.1523         4.79094 
        1.91647         38.9034         4.69326 
        1.93218         38.5878         4.59849 
        1.94787         37.9567         4.50646 
        1.96363         37.5718         4.41658 
        1.97935          37.181         4.32932 
        1.99499         36.8008          4.2449 
        2.01064         36.3751          4.1626 
         2.0264          35.671         4.08195 
        2.04216         35.6961         4.00346 
        2.05781         35.1451         3.92753 
        2.07353         34.7074         3.85328 
        2.08928         34.5684         3.78078 
        2.10499         33.9693         3.71033 
        2.12065         33.6466         3.64188 
        2.13633         33.3637         3.57508 
        2.15211         33.1507         3.50952 
        2.16785         32.6039         3.44578 
        2.18349         32.2801         3.38401 
        2.19916         31.9617         3.32362 
        2.21489         31.7209         3.26449 
        2.23063         31.2541         3.20676 
         2.2463         30.9101         3.15067 
        2.26194         30.4832         3.09606 
        2.27765         30.3095         3.04245 
        2.29341         29.9459         2.98997 
        2.30914         29.6564         2.93883 
        2.32486         29.1973          2.8889 
        2.34061         29.1353         2.84004 
        2.35635         28.7402         2.79236 
        2.37203         28.4278         2.74592 
        2.38768         28.1761         2.70063 
        2.40339          27.945          2.6562 
        2.41914         27.6687         2.61265 
        2.43483         27.3125         2.57023 
         2.4505         27.1054         2.52881 
        2.46622         26.7798         2.48816 
        2.48195         26.6035          2.4484 
        2.49759         26.3103         2.40971 
        2.51328         25.9772         2.37175 
        2.52906         25.7272         2.33437 
        2.54479         25.4244         2.29793 
        2.56049         25.1974         2.26233 
        2.57618         24.9752         2.22751 
        2.59189         24.7319         2.19336 
        2.60758         24.6028         2.15999 
        2.62325         24.2478         2.12734 
        2.63898         24.0415         2.09525 
        2.65468         23.7474         2.06388 
        2.67044         23.6214         2.03302 
        2.68618         23.3842         2.00286 
        2.70184         23.0971         1.97343 
        2.71755         22.9673         1.94451 
        2.73329           22.71         1.91612 
        2.74897         22.4453         1.88839 
        2.76462         22.2047         1.86127 
        2.78034         22.1068         1.83456 
        2.79607         21.9713         1.80834 
        2.81179         21.7007         1.78267 
        2.82749         21.4644         1.75752 
        2.84321         21.2462         1.73282 
        2.85893         20.9963          1.7086 
        2.87462         20.8243         1.68489 
        2.89033         20.6906          1.6616 
        2.90605         20.4799         1.63873 
        2.92176         20.3414         1.61629 
        2.93747         20.1478         1.59429 
        2.95318         19.9136         1.57269 
        2.96891         19.7569         1.55147 
        2.98456         19.5487         1.53074 
        3.00023          19.323         1.51036 
        3.01596          19.139         1.49028 
        3.03164          19.031         1.47062 
        3.04738         18.8034         1.45125 
         3.0631         18.6481         1.43224 
        3.07883          18.568         1.41357 
        3.09456         18.3039         1.39523 
        3.11026         18.1688         1.37724 
        3.12596         17.9984         1.35957 
        3.14163         17.8447         1.34225 
        3.15734         17.7585         1.32518 
        3.17308         17.5056         1.30837 
        3.18879         17.4342          1.2919 
        3.20447         17.2326         1.27573 
         3.2202         17.0276         1.25979 
         3.2359         16.9039         1.24415 
        3.25157         16.7957          1.2288 
        3.26729         16.6507         1.21367 
        3.28304         16.4381         1.19876 
        3.29877         16.3739         1.18412 
        3.31446          16.132         1.16976 
        3.33014         16.0359         1.15564 
        3.34585         15.9024         1.14174 
        3.36158         15.7574         1.12804 
        3.37727         15.5992          1.1146 
        3.39294         15.4612          1.1014 
        3.40867         15.3106         1.08836 
        3.42439         15.1949         1.07554 
        3.44008         15.0915         1.06295 
        3.45578         14.9262         1.05055 
        3.47153         14.7778         1.03832 
        3.48724         14.6758          1.0263 
        3.50292         14.6034          1.0145 
        3.51859         14.4289         1.00289 
        3.53431         14.2876        0.991428 
        3.55007          14.157        0.980114 
        3.56577         14.0214        0.969019 
        3.58146         13.9081        0.958099 
        3.59719         13.8012        0.947322 
        3.61292         13.6959        0.936713 
        3.62859         13.5549        0.926305 
        3.64429         13.4586        0.916034 
        3.66003         13.3588        0.905887 
        3.67578         13.2428        0.895896 
        3.69146         13.1514        0.886093 
        3.70712         13.0368        0.876453 
        3.72284         12.9062         0.86692 
        3.73853         12.7949        0.857544 
        3.75422          12.683        0.848303 
        3.76993         12.5681        0.839189 
        3.78564         12.4586        0.830211 
        3.80137         12.3679         0.82135 
        3.81707         12.2596        0.812635 
        3.83279          12.169        0.804039 
        3.84853         12.0307        0.795553 
        3.86424         11.9352        0.787205 
        3.87992         11.8439        0.778989 
        3.89561         11.7334        0.770888 
        3.91134         11.6718        0.762885 
        3.92704         11.5276        0.755005 
        3.94273         11.4433        0.747243 
        3.95845         11.3871        0.739575 
        3.97418         11.2708        0.732012 
        3.98988         11.1856        0.724565 
        4.00554         11.0721        0.717241 
        4.02125         11.0143        0.709996 
        4.03698         10.8877         0.70284 
        4.05268         10.7653        0.695798 
        4.06839          10.728        0.688846 
         4.0841         10.6447        0.681991 
        4.09983          10.524        0.675219 
        4.11555         10.4819        0.668541 
        4.13124         10.3709        0.661971 
        4.14693          10.275        0.655484 
        4.16266         10.1999        0.649068 
        4.17839         10.1342         0.64274 
        4.19408         10.0378        0.636511 
        4.20977         9.97648        0.630362 
        4.22551         9.87236        0.624278 
        4.24123         9.79258         0.61828 
        4.25691         9.70276        0.612377 
        4.27259         9.65903        0.606549 
        4.28831         9.55651        0.600784 
        4.30404          9.4828        0.595088 
        4.31974         9.41737        0.589478 
        4.33543         9.33711        0.583943 
        4.35116         9.27755        0.578465 
        4.36688         9.19444         0.57306 
        4.38255         9.13887        0.567742 
        4.39825         9.05082        0.562481 
        4.41398          8.9768        0.557275 
         4.4297         8.90273         0.55214 
        4.44541          8.8494        0.547071 
        4.46111         8.77501        0.542068 
        4.47683          8.7052        0.537124 
        4.49251          8.6302        0.532251 
        4.50819         8.58457         0.52744 
         4.5239         8.51039        0.522681 
        4.53962         8.43436        0.517974 
        4.55535         8.35538        0.513322 
        4.57106         8.27934        0.508734 
        4.58678         8.23581        0.504201 
         4.6025         8.16777        0.499721 
        4.61821         8.10553        0.495297 
        4.63391         8.02837        0.490931 
         4.6496         7.99463        0.486619 
        4.66532         7.91163        0.482352 
        4.68103         7.85835        0.478138 
        4.69673         7.80349        0.473978 
        4.71241         7.74472        0.469871 
        4.72811         7.69228        0.465805 
        4.74384         7.61896        0.461783 
        4.75955         7.57601        0.457813 
        4.77525         7.53078        0.453892 
        4.79096         7.44305        0.450012 
        4.80669         7.40501        0.446175 
         4.8224         7.36638        0.442387 
        4.83809         7.28209        0.438647 
        4.85379         7.21623        0.434947 
         4.8695          7.1917        0.431287 
        4.88521         7.13031         0.42767 
        4.90093         7.07005        0.424093 
        4.91663         7.01345        0.420561 
        4.93234         6.97946        0.417065 
        4.94807         6.92559        0.413606 
        4.96377         6.86706        0.410192 
        4.97943         6.80997        0.406824 
        4.99514         6.76765        0.403484 
        5.01086         6.73059         0.40018 
        5.02654          6.6733         0.39692 
        5.04227         6.62371        0.393687 
          5.058          6.5704        0.390489 
        5.07371         6.52551        0.387331 
        5.08942         6.48758        0.384209 
        5.10513         6.43901        0.381119 
        5.12084         6.38427        0.378063 
        5.13656          6.3363         0.37504 
        5.15225         6.29295        0.372055 
        5.16796         6.24976        0.369097 
        5.18369         6.19329        0.366169 
         5.1994         6.16026        0.363278 
        5.21509         6.11771         0.36042 
        5.23079         6.06411        0.357589 
        5.24649         6.02077        0.354791 
        5.26217         5.98031        0.352025 
        5.27788         5.93834        0.349283 
        5.29359         5.89171        0.346571 
        5.30933         5.86642        0.343883 
        5.32504         5.81749        0.341228 
        5.34073         5.78711        0.338603 
        5.35646         5.74729        0.336001 
        5.37218         5.71808        0.333426 
        5.38789         5.65967        0.330881 
        5.40357         5.62846        0.328366 
        5.41929         5.58186        0.325871 
        5.43502         5.54652        0.323402 
         5.4507         5.51371        0.320963 
        5.46639         5.47932         0.31855 
        5.48212         5.44202        0.316155 
        5.49786         5.40268        0.313783 
        5.51353         5.35026        0.311446 
        5.52921          5.3193         0.30913 
        5.54495         5.29252        0.306831 
        5.56066         5.25776        0.304558 
        5.57637         5.22484        0.302307 
        5.59207         5.18021        0.300082 
        5.60778         5.15042        0.297878 
        5.62346         5.10494        0.295699 
        5.63916         5.08244        0.293539 
        5.65487          5.0469          0.2914 
         5.6706          5.0039        0.289279 
        5.68633         4.98497        0.287179 
        5.70203         4.93701        0.285104 
        5.71773         4.91415        0.283049 
        5.73344         4.87482        0.281013 
        5.74916         4.84829        0.278996 
        5.76486         4.80809        0.277001 
        5.78054         4.79421        0.275028 
        5.79626         4.75272        0.273069 
          5.812         4.72628        0.271127 
         5.8277         4.69441        0.269209 
        5.84339         4.66911         0.26731 
        5.85911         4.63275        0.265425 
        5.87484         4.59641        0.263559 
        5.89053         4.58087        0.261714 
        5.90623         4.53782        0.259886 
        5.92195         4.51863        0.258072 
        5.93767         4.49002        0.256276 
        5.95336         4.45606          0.2545 
        5.96905         4.42906        0.252742 
        5.98476         4.40802        0.250997 
        6.00048         4.38098        0.249269 
        6.01617         4.35013        0.247559 
        6.03185         4.31335        0.245866 
        6.04756         4.29293        0.244186 
        6.06331         4.26497        0.242517 
        6.07903         4.23969        0.240868 
        6.09473         4.20813        0.239235 
        6.11044         4.18573        0.237616 
        6.12616         4.15796        0.236012 
        6.14186         4.12471        0.234424 
        6.15755         4.10942        0.232851 
        6.17326         4.07973        0.231291 
        6.18898         4.05932        0.229745 
        6.20467         4.02905        0.228215 
        6.22036         4.00587        0.226699 
         6.2361         3.97821        0.225193 
         6.2518         3.95639        0.223703 
        6.26748         3.93361         0.22223 
        6.28319         3.89982        0.220765 
        6.29893         3.88093        0.219313 
        6.31463         3.86028        0.217876 
        6.33033         3.84367        0.216452 
        6.34604         3.81578         0.21504 
        6.36177         3.78389        0.213639 
        6.37747         3.76997        0.212253 
