# k  (h/Mpc)    Pcb(k)  (Mpc/h)^3    Pcb_linear(k) (Mpc/h)^3   ShotnoiseSubtracted = true
      0.0200456         4612.86          4666.9 
      0.0350414         3033.71         2956.13 
      0.0492313         2013.71         2008.43 
      0.0637834          1613.3         1645.12 
      0.0800726         1221.69         1247.99 
       0.096163         882.528         851.958 
       0.111083         703.763         674.597 
       0.126058         600.975         603.287 
       0.142273         494.512         492.768 
       0.158546         388.267         374.349 
        0.17375         334.494         317.789 
       0.188953         304.401         289.797 
       0.204907         253.729         249.659 
       0.220756         219.969         205.818 
        0.23588         193.114         179.971 
         0.2514         173.943         164.424 
       0.267535         160.969         146.214 
       0.283568         138.849         126.659 
       0.299022         128.205         112.946 
       0.314451         121.902         103.555 
       0.330372         106.822         94.0356 
       0.346141         97.1965         84.3075 
       0.361624         89.7073         76.4579 
       0.377134         81.8242         70.4102 
       0.392932         78.7091         64.7789 
       0.408854         72.6223         59.2251 
       0.424564         68.7564          54.397 
       0.440253         62.4881         50.3821 
       0.455999         56.9517         46.7726 
       0.471626         54.3529         43.3827 
        0.48727         52.3838         40.2975 
       0.502856         48.3776         37.6028 
       0.518488         45.8934         35.1675 
       0.534347         43.0599         32.8771 
       0.550082         41.4272         30.7819 
       0.565732         39.8238         28.9015 
       0.581496         36.8514          27.176 
       0.597222         35.2067         25.5869 
       0.612804         33.5215         24.1272 
       0.628434          32.855         22.7804 
       0.644267         30.9418         21.5265 
       0.660051         29.5206           20.37 
       0.675724         28.2171          19.304 
       0.691403         27.5931         18.3127 
       0.707174         26.4122         17.3849 
       0.722871         25.5577         16.5245 
        0.73838         24.2888         15.7311 
       0.754018         22.8702         14.9834 
       0.769845         22.4582          14.276 
        0.78569         21.6598         13.6133 
       0.801365          20.874         12.9991 
       0.817031         19.9711         12.4231 
       0.832809         19.4917         11.8783 
       0.848511          18.811         11.3686 
       0.864097         18.2552         10.8922 
       0.879701         17.8952         10.4426 
       0.895507          17.161          10.013 
       0.911279         16.5163         9.60845 
        0.92691          16.207          9.2295 
       0.942635         15.7756         8.86884 
       0.958396         15.3013         8.52664 
       0.974128          14.878         8.20305 
       0.989692         14.1723         7.89939 
        1.00528         14.0264          7.6106 
        1.02113         13.5747         7.33168 
        1.03692         13.2907         7.06772 
        1.05264         12.9904         6.81792 
        1.06832         12.6957         6.58055 
        1.08405         12.3092         6.35381 
        1.09979         12.0557         6.13759 
        1.11537         11.6524         5.93354 
        1.13105         11.4927         5.73751 
        1.14679         11.1781         5.54956 
        1.16256         10.9697         5.36964 
        1.17828           10.73         5.19826 
        1.19395         10.5249         5.03491 
         1.2097         10.2599         4.87773 
        1.22537         10.0502         4.72799 
          1.241         9.78386         4.58497 
        1.25666         9.65304         4.44749 
        1.27241         9.48917         4.31498 
        1.28819         9.09258         4.18763 
        1.30392         9.13593         4.06577 
        1.31957         8.83834         3.94928 
        1.33529         8.72382         3.83692 
        1.35108         8.56069         3.72846 
        1.36674         8.35866         3.62496 
         1.3824         8.18796         3.52546 
        1.39811         8.05701         3.42936 
        1.41389         7.92161         3.33645 
        1.42964         7.78635         3.24713 
        1.44531         7.64542          3.1615 
        1.46101         7.55188         3.07877 
        1.47667         7.38656         2.99923 
        1.49229         7.18032          2.9227 
        1.50793         7.12547         2.84874 
        1.52367         7.01578         2.77686 
        1.53953         6.89478         2.70696 
        1.55526          6.7471         2.64002 
        1.57092         6.69176         2.57561 
        1.58662         6.56448         2.51318 
        1.60235         6.49094         2.45269 
        1.61809          6.3708         2.39416 
        1.63369         6.25934         2.33804 
        1.64941         6.14533         2.28332 
        1.66519          6.0892         2.23014 
        1.68085         5.95357         2.17902 
        1.69652          5.9198         2.12949 
        1.71228         5.83159          2.0812 
        1.72806         5.73861         2.03437 
        1.74368         5.65603         1.98944 
        1.75933         5.57062         1.94578 
        1.77505         5.47497         1.90321 
        1.79081         5.40793         1.86183 
         1.8065         5.36573         1.82186 
        1.82218         5.29831         1.78309 
        1.83797         5.19502         1.74518 
        1.85367         5.13817         1.70857 
        1.86928         5.05439         1.67323 
        1.88497         5.01078         1.63869 
        1.90073         4.92567         1.60499 
        1.91647         4.81811         1.57227 
        1.93218         4.79556         1.54052 
        1.94787         4.72375         1.50969 
        1.96363         4.67827         1.47958 
        1.97935         4.63144         1.45035 
        1.99499         4.56713         1.42206 
        2.01064         4.50467         1.39449 
         2.0264         4.45814         1.36747 
        2.04216         4.42002         1.34118 
        2.05781         4.36395         1.31574 
        2.07353         4.29661         1.29087 
        2.08928          4.2458         1.26658 
        2.10499          4.2004         1.24298 
        2.12065         4.17146         1.22005 
        2.13633         4.11165         1.19767 
        2.15211         4.07226         1.17571 
        2.16785         4.00736         1.15435 
        2.18349          3.9918         1.13366 
        2.19916         3.94071         1.11343 
        2.21489         3.90199         1.09362 
        2.23063         3.85139         1.07428 
         2.2463         3.79541         1.05549 
        2.26194         3.75031          1.0372 
        2.27765         3.71008         1.01924 
        2.29341         3.66334         1.00166 
        2.30914         3.64695        0.984522 
        2.32486         3.59219        0.967797 
        2.34061         3.57708         0.95143 
        2.35635         3.53437        0.935454 
        2.37203         3.50106        0.919898 
        2.38768         3.46679        0.904726 
        2.40339           3.415        0.889839 
        2.41914         3.39722        0.875251 
        2.43483         3.37168         0.86104 
         2.4505         3.31457        0.847165 
        2.46622          3.2891        0.833548 
        2.48195         3.27596        0.820227 
        2.49759         3.22306        0.807266 
        2.51328         3.20033         0.79455 
        2.52906         3.15826        0.782026 
        2.54479         3.13923        0.769817 
        2.56049         3.10276        0.757891 
        2.57618         3.08183        0.746227 
        2.59189         3.07192        0.734788 
        2.60758         3.03055        0.723607 
        2.62325         2.97947         0.71267 
        2.63898         2.98183        0.701919 
        2.65468         2.94424        0.691412 
        2.67044         2.92848        0.681074 
        2.68618         2.88838        0.670969 
        2.70184          2.8765        0.661109 
        2.71755         2.84075        0.651421 
        2.73329         2.81364        0.641911 
        2.74897         2.79357        0.632621 
        2.76462         2.77322        0.623534 
        2.78034         2.74968        0.614587 
        2.79607         2.72165        0.605805 
        2.81179         2.70253        0.597204 
        2.82749         2.67281        0.588778 
        2.84321         2.65864        0.580505 
        2.85893         2.62536        0.572392 
        2.87462         2.61683        0.564447 
        2.89033         2.59539        0.556644 
        2.90605         2.56851        0.548982 
        2.92176         2.54027        0.541466 
        2.93747         2.53066        0.534095 
        2.95318         2.50744        0.526858 
        2.96891         2.48373        0.519751 
        2.98456         2.46794        0.512806 
        3.00023         2.45465        0.505977 
        3.01596         2.42533         0.49925 
        3.03164         2.40991        0.492664 
        3.04738         2.39493        0.486177 
         3.0631         2.37831        0.479808 
        3.07883          2.3551        0.473553 
        3.09456         2.33025        0.467409 
        3.11026         2.32164        0.461382 
        3.12596         2.30985        0.455463 
        3.14163         2.28074        0.449659 
        3.15734         2.26674        0.443943 
        3.17308         2.25366        0.438312 
        3.18879         2.23632        0.432793 
        3.20447         2.22903        0.427377 
         3.2202          2.2017        0.422036 
         3.2359         2.18959        0.416796 
        3.25157          2.1744        0.411656 
        3.26729         2.15875        0.406586 
        3.28304         2.13347        0.401592 
        3.29877         2.12672        0.396688 
        3.31446         2.11421        0.391875 
        3.33014         2.09594        0.387146 
        3.34585         2.08628        0.382488 
        3.36158          2.0679        0.377899 
        3.37727         2.05339        0.373398 
        3.39294         2.04279        0.368975 
        3.40867         2.02713        0.364607 
        3.42439         2.01171        0.360312 
        3.44008          1.9971        0.356094 
        3.45578         1.98063         0.35194 
        3.47153         1.97192        0.347842 
        3.48724         1.95824        0.343817 
        3.50292          1.9469        0.339864 
        3.51859         1.93043        0.335975 
        3.53431         1.91769        0.332134 
        3.55007          1.9061        0.328343 
        3.56577          1.8929        0.324626 
        3.58146         1.88534        0.320968 
        3.59719          1.8778        0.317358 
        3.61292         1.85836        0.313804 
        3.62859         1.84882        0.310317 
        3.64429         1.83576        0.306876 
        3.66003         1.82584        0.303477 
        3.67578         1.81709         0.30013 
        3.69146         1.80114        0.296846 
        3.70712         1.79497        0.293616 
        3.72284         1.77837        0.290423 
        3.73853         1.76809        0.287282 
        3.75422         1.75384        0.284186 
        3.76993         1.74026        0.281133 
        3.78564         1.73249        0.278125 
        3.80137         1.71897        0.275157 
        3.81707         1.71279        0.272237 
        3.83279         1.69842        0.269357 
        3.84853         1.68808        0.266515 
        3.86424          1.6773        0.263718 
        3.87992         1.67181        0.260965 
        3.89561         1.65942        0.258252 
        3.91134          1.6465        0.255571 
        3.92704         1.63743        0.252931 
        3.94273         1.62534         0.25033 
        3.95845         1.61813        0.247761 
        3.97418         1.60663        0.245228 
        3.98988          1.5949        0.242733 
        4.00554         1.58459        0.240279 
        4.02125         1.57504        0.237852 
        4.03698          1.5653        0.235455 
        4.05268         1.55642        0.233096 
        4.06839         1.54551        0.230767 
         4.0841         1.53485        0.228471 
        4.09983         1.52446        0.226202 
        4.11555          1.5145        0.223965 
        4.13124         1.50748        0.221764 
        4.14693          1.4977        0.219591 
        4.16266         1.48709        0.217441 
        4.17839          1.4765        0.215321 
        4.19408         1.46416        0.213235 
        4.20977         1.45864        0.211174 
        4.22551         1.44699        0.209136 
        4.24123         1.44179        0.207127 
        4.25691         1.43235         0.20515 
        4.27259         1.42196        0.203197 
        4.28831         1.41107        0.201266 
        4.30404         1.40512        0.199358 
        4.31974         1.39926        0.197478 
        4.33543         1.38768        0.195624 
        4.35116         1.37778        0.193789 
        4.36688         1.37096        0.191978 
        4.38255         1.36588        0.190197 
        4.39825         1.35589        0.188434 
        4.41398         1.35125         0.18669 
         4.4297         1.34146         0.18497 
        4.44541           1.331        0.183272 
        4.46111         1.32799        0.181596 
        4.47683         1.31844        0.179939 
        4.49251            1.31        0.178307 
        4.50819         1.30705        0.176695 
         4.5239         1.29922        0.175101 
        4.53962         1.29303        0.173524 
        4.55535         1.28364        0.171966 
        4.57106          1.2761        0.170429 
        4.58678         1.26955         0.16891 
         4.6025         1.26434        0.167409 
        4.61821         1.25754        0.165927 
        4.63391         1.25339        0.164464 
         4.6496          1.2429         0.16302 
        4.66532         1.23927        0.161591 
        4.68103          1.2337        0.160179 
        4.69673         1.22685        0.158785 
        4.71241         1.22031        0.157409 
        4.72811          1.2188        0.156047 
        4.74384         1.21066          0.1547 
        4.75955         1.20645         0.15337 
        4.77525         1.19852        0.152056 
        4.79096         1.19359        0.150756 
        4.80669         1.18849        0.149471 
         4.8224         1.17794        0.148202 
        4.83809         1.17799        0.146949 
        4.85379         1.17531         0.14571 
         4.8695          1.1698        0.144483 
        4.88521         1.16074        0.143272 
        4.90093          1.1583        0.142074 
        4.91663         1.15402         0.14089 
        4.93234         1.15025        0.139719 
        4.94807         1.14569         0.13856 
        4.96377         1.13926        0.137416 
        4.97943         1.13506        0.136288 
        4.99514         1.13081        0.135169 
        5.01086         1.12523        0.134062 
        5.02654         1.12056         0.13297 
        5.04227         1.11499        0.131887 
          5.058         1.11207        0.130816 
        5.07371         1.10929        0.129758 
        5.08942         1.10791        0.128712 
        5.10513          1.1026        0.127677 
        5.12084         1.09588        0.126653 
        5.13656         1.09236         0.12564 
        5.15225         1.08939         0.12464 
        5.16796         1.08662         0.12365 
        5.18369         1.08177        0.122669 
         5.1994         1.07934          0.1217 
        5.21509         1.07407        0.120743 
        5.23079         1.07109        0.119794 
        5.24649         1.06904        0.118857 
        5.26217         1.06363         0.11793 
        5.27788         1.05724        0.117012 
        5.29359         1.05622        0.116103 
        5.30933         1.05288        0.115203 
        5.32504         1.05067        0.114313 
        5.34073         1.04496        0.113434 
        5.35646         1.04127        0.112562 
        5.37218          1.0401        0.111699 
        5.38789         1.03663        0.110847 
        5.40357         1.03195        0.110004 
        5.41929         1.02885        0.109168 
        5.43502         1.02683        0.108341 
         5.4507         1.02239        0.107524 
        5.46639         1.01985        0.106716 
        5.48212         1.01782        0.105914 
        5.49786         1.01373        0.105119 
        5.51353         1.01079        0.104336 
        5.52921          1.0093         0.10356 
        5.54495         1.00885         0.10279 
        5.56066         1.00521        0.102028 
        5.57637         0.99901        0.101275 
        5.59207        0.995972        0.100529 
        5.60778        0.995402       0.0997906 
        5.62346        0.993401       0.0990606 
        5.63916        0.989553       0.0983371 
        5.65487        0.986374       0.0976205 
         5.6706        0.985487       0.0969101 
        5.68633        0.983044       0.0962065 
        5.70203        0.977227       0.0955112 
        5.71773        0.977913       0.0948229 
        5.73344        0.974667        0.094141 
        5.74916        0.972777       0.0934651 
        5.76486        0.970961       0.0927967 
        5.78054        0.967503       0.0921359 
        5.79626        0.966025       0.0914795 
          5.812        0.961917       0.0908289 
         5.8277        0.961742       0.0901865 
        5.84339         0.95737       0.0895502 
        5.85911        0.957217       0.0889188 
        5.87484        0.952592       0.0882936 
        5.89053        0.953335       0.0876755 
        5.90623        0.950453       0.0870631 
        5.92195        0.947317       0.0864554 
        5.93767          0.9434       0.0858538 
        5.95336        0.943946       0.0852589 
        5.96905        0.940021       0.0846698 
        5.98476        0.938243       0.0840854 
        6.00048        0.935834       0.0835063 
        6.01617        0.934433       0.0829334 
        6.03185        0.931907       0.0823665 
        6.04756        0.930303       0.0818036 
        6.06331        0.927366       0.0812446 
        6.07903        0.926577        0.080692 
        6.09473        0.926753       0.0801451 
        6.11044        0.922623       0.0796026 
        6.12616        0.917848       0.0790653 
        6.14186         0.91813       0.0785334 
        6.15755        0.915792       0.0780064 
        6.17326        0.915101       0.0774838 
        6.18898        0.913222       0.0769657 
        6.20467        0.910359       0.0764532 
        6.22036         0.90918       0.0759455 
         6.2361        0.905219       0.0754409 
         6.2518        0.904911       0.0749417 
        6.26748        0.900191       0.0744481 
        6.28319        0.901066       0.0739575 
        6.29893        0.900183       0.0734709 
        6.31463        0.895819       0.0729895 
        6.33033        0.894025       0.0725125 
        6.34604        0.891464       0.0720394 
        6.36177        0.890265       0.0715701 
        6.37747        0.888957       0.0711057 
