# k  (h/Mpc)    Pcb(k)  (Mpc/h)^3    Pcb_linear(k) (Mpc/h)^3   ShotnoiseSubtracted = true
      0.0200456         11316.1         11496.4 
      0.0350414         7118.23          7282.1 
      0.0492313         4939.11         4947.53 
      0.0637834         4153.16         4052.56 
      0.0800726         3160.06         3074.27 
       0.096163         2090.26          2098.7 
       0.111083         1652.71         1661.79 
       0.126058         1524.04         1486.13 
       0.142273         1284.17         1213.88 
       0.158546         1034.69         922.167 
        0.17375         829.696         782.836 
       0.188953         799.419         713.883 
       0.204907         735.145         615.005 
       0.220756         612.148         507.009 
        0.23588         537.052         443.338 
         0.2514         469.017         405.041 
       0.267535         447.592         360.181 
       0.283568         401.781          312.01 
       0.299022         372.262         278.229 
       0.314451         345.209         255.097 
       0.330372         317.084         231.646 
       0.346141         282.792         207.682 
       0.361624         272.094         188.345 
       0.377134         251.539         173.447 
       0.392932         233.989         159.575 
       0.408854         223.395         145.894 
       0.424564         212.019         134.001 
       0.440253         202.874          124.11 
       0.455999         189.448         115.219 
       0.471626          176.39         106.868 
        0.48727         169.174         99.2684 
       0.502856         162.921         92.6302 
       0.518488         159.616         86.6312 
       0.534347         150.748         80.9889 
       0.550082          140.08         75.8277 
       0.565732         135.798         71.1955 
       0.581496         129.232         66.9449 
       0.597222         125.167         63.0303 
       0.612804         120.137         59.4346 
       0.628434         116.118          56.117 
       0.644267         112.045         53.0281 
       0.660051          110.27         50.1791 
       0.675724         106.687         47.5532 
       0.691403         103.135         45.1113 
       0.707174         98.8866         42.8257 
       0.722871         97.4692         40.7062 
        0.73838         95.2282         38.7517 
       0.754018         91.3787           36.91 
       0.769845         89.0149         35.1672 
        0.78569         86.8994         33.5349 
       0.801365         84.1403         32.0218 
       0.817031          81.051         30.6029 
       0.832809         80.1135          29.261 
       0.848511         77.1637         28.0053 
       0.864097         75.5688         26.8317 
       0.879701         73.9487         25.7242 
       0.895507           72.37          24.666 
       0.911279         70.7738         23.6693 
        0.92691         69.6526         22.7358 
       0.942635         67.3137         21.8474 
       0.958396         67.0383         21.0044 
       0.974128         65.0711         20.2073 
       0.989692          63.654         19.4592 
        1.00528         62.0933         18.7478 
        1.02113         61.3442         18.0607 
        1.03692         59.1696         17.4105 
        1.05264         59.0622         16.7952 
        1.06832         57.1693         16.2104 
        1.08405         56.3417         15.6519 
        1.09979          56.112         15.1193 
        1.11537          54.021         14.6166 
        1.13105         54.2086         14.1337 
        1.14679          52.932         13.6707 
        1.16256         52.0276         13.2275 
        1.17828         51.0059         12.8053 
        1.19395         50.0234         12.4029 
         1.2097         49.0173         12.0157 
        1.22537         49.0929         11.6469 
          1.241         47.8515         11.2945 
        1.25666         46.7574         10.9559 
        1.27241         46.1229         10.6295 
        1.28819         45.3174         10.3157 
        1.30392         44.7458         10.0156 
        1.31957         44.2467         9.72861 
        1.33529         43.2237         9.45181 
        1.35108         42.9759         9.18464 
        1.36674         42.5759         8.92967 
         1.3824         41.4645         8.68457 
        1.39811           41.01         8.44783 
        1.41389         40.5215         8.21897 
        1.42964         39.9326         7.99894 
        1.44531         39.1669           7.788 
        1.46101         38.5396         7.58419 
        1.47667         38.4522         7.38826 
        1.49229         37.8796         7.19973 
        1.50793         37.4628         7.01755 
        1.52367         36.6205         6.84047 
        1.53953         36.3622         6.66829 
        1.55526         35.9765         6.50338 
        1.57092         35.5259         6.34471 
        1.58662         34.9859         6.19093 
        1.60235         34.6041         6.04193 
        1.61809         34.1148         5.89773 
        1.63369          33.539          5.7595 
        1.64941         33.3154         5.62469 
        1.66519          32.577         5.49369 
        1.68085         32.4646         5.36777 
        1.69652         31.8844         5.24575 
        1.71228         31.6851         5.12681 
        1.72806         31.2952         5.01144 
        1.74368         30.7486         4.90077 
        1.75933         30.4835          4.7932 
        1.77505            30.2         4.68834 
        1.79081         29.7759         4.58642 
         1.8065          29.528         4.48794 
        1.82218         29.1183         4.39244 
        1.83797         28.6639         4.29904 
        1.85367         28.3645         4.20887 
        1.86928         27.9895          4.1218 
        1.88497         27.9761         4.03672 
        1.90073          27.448         3.95371 
        1.91647         27.1755          3.8731 
        1.93218         26.9991         3.79489 
        1.94787         26.5977         3.71895 
        1.96363         26.3777         3.64477 
        1.97935         25.9631         3.57276 
        1.99499         25.7986         3.50309 
        2.01064         25.5212         3.43517 
         2.0264         25.1109         3.36862 
        2.04216         24.9531         3.30385 
        2.05781         24.5965         3.24118 
        2.07353         24.3547         3.17991 
        2.08928         24.3028         3.12008 
        2.10499           23.89         3.06194 
        2.12065         23.5779         3.00545 
        2.13633         23.4314         2.95033 
        2.15211         23.1984         2.89622 
        2.16785         22.8207         2.84362 
        2.18349         22.6485         2.79265 
        2.19916         22.5049         2.74281 
        2.21489         22.1978         2.69402 
        2.23063         21.9338         2.64637 
         2.2463         21.7199         2.60008 
        2.26194          21.556         2.55501 
        2.27765         21.3556         2.51078 
        2.29341         21.1519         2.46746 
        2.30914         20.9654         2.42526 
        2.32486         20.6985         2.38406 
        2.34061         20.5187         2.34374 
        2.35635         20.3045         2.30438 
        2.37203         20.2022         2.26606 
        2.38768         19.9101         2.22869 
        2.40339         19.7558         2.19202 
        2.41914         19.5763         2.15608 
        2.43483         19.3614         2.12107 
         2.4505         19.2291          2.0869 
        2.46622         19.0067         2.05335 
        2.48195         18.8354         2.02053 
        2.49759         18.6414         1.98861 
        2.51328         18.3774         1.95728 
        2.52906         18.3123         1.92643 
        2.54479         18.0943         1.89636 
        2.56049           17.93         1.86698 
        2.57618         17.7179         1.83824 
        2.59189         17.6299         1.81007 
        2.60758         17.4663         1.78252 
        2.62325          17.262         1.75558 
        2.63898         17.1556          1.7291 
        2.65468         16.9664         1.70321 
        2.67044         16.8037         1.67775 
        2.68618         16.6258         1.65286 
        2.70184         16.5255         1.62857 
        2.71755         16.4066          1.6047 
        2.73329         16.2082         1.58127 
        2.74897         16.0268         1.55839 
        2.76462          15.903           1.536 
        2.78034         15.8131         1.51396 
        2.79607         15.6798         1.49233 
        2.81179         15.4592         1.47114 
        2.82749         15.3773         1.45039 
        2.84321         15.2543         1.43001 
        2.85893          15.021         1.41002 
        2.87462         14.9604         1.39045 
        2.89033         14.9038         1.37123 
        2.90605         14.7012         1.35235 
        2.92176         14.5358         1.33384 
        2.93747         14.4414         1.31568 
        2.95318         14.3239         1.29785 
        2.96891         14.2158         1.28035 
        2.98456         14.1062         1.26324 
        3.00023          13.868         1.24642 
        3.01596         13.8548         1.22985 
        3.03164         13.7219         1.21362 
        3.04738         13.5787         1.19764 
         3.0631         13.4696         1.18195 
        3.07883         13.3313         1.16654 
        3.09456         13.1974         1.15141 
        3.11026         13.0923         1.13656 
        3.12596         13.0023         1.12198 
        3.14163         12.8862         1.10768 
        3.15734         12.7628          1.0936 
        3.17308         12.6517         1.07973 
        3.18879         12.5823         1.06614 
        3.20447         12.4872         1.05279 
         3.2202         12.3314         1.03964 
         3.2359         12.2162         1.02673 
        3.25157         12.1265         1.01407 
        3.26729         12.0605         1.00158 
        3.28304         11.9421        0.989276 
        3.29877         11.7996        0.977195 
        3.31446         11.7393         0.96534 
        3.33014         11.6105        0.953691 
        3.34585         11.5241        0.942215 
        3.36158         11.4295         0.93091 
        3.37727         11.3229        0.919824 
        3.39294         11.2331        0.908928 
        3.40867          11.101        0.898168 
        3.42439         11.0397        0.887587 
        3.44008         10.9401        0.877196 
        3.45578         10.8788        0.866963 
        3.47153         10.8079        0.856869 
        3.48724         10.6832        0.846953 
        3.50292          10.637        0.837215 
        3.51859         10.5089        0.827635 
        3.53431          10.445        0.818173 
        3.55007         10.3698        0.808836 
        3.56577         10.2787         0.79968 
        3.58146         10.2266        0.790669 
        3.59719         10.0982        0.781775 
        3.61292         10.0196        0.773019 
        3.62859          9.9438        0.764431 
        3.64429         9.87791        0.755955 
        3.66003         9.79527        0.747581 
        3.67578         9.74356        0.739336 
        3.69146          9.6338        0.731246 
        3.70712          9.5475         0.72329 
        3.72284         9.50231        0.715423 
        3.73853         9.38553        0.707686 
        3.75422         9.30927        0.700059 
        3.76993         9.24463        0.692538 
        3.78564         9.17456         0.68513 
        3.80137         9.10775        0.677817 
        3.81707         9.06949        0.670625 
        3.83279         8.95118        0.663531 
        3.84853         8.90409        0.656528 
        3.86424         8.78268        0.649639 
        3.87992         8.74659        0.642858 
        3.89561         8.67941        0.636173 
        3.91134         8.59456        0.629569 
        3.92704         8.51957        0.623066 
        3.94273         8.44431         0.61666 
        3.95845         8.40194        0.610332 
        3.97418         8.35366        0.604091 
        3.98988         8.27728        0.597945 
        4.00554         8.22426        0.591901 
        4.02125         8.15734        0.585922 
        4.03698         8.06935        0.580016 
        4.05268         8.01495        0.574205 
        4.06839          7.9697        0.568468 
         4.0841         7.86614        0.562811 
        4.09983         7.81816        0.557223 
        4.11555          7.7813        0.551712 
        4.13124         7.71042         0.54629 
        4.14693         7.65201        0.540936 
        4.16266         7.58364        0.535641 
        4.17839         7.54123         0.53042 
        4.19408         7.47926        0.525279 
        4.20977         7.41312        0.520204 
        4.22551         7.36925        0.515184 
        4.24123         7.29495        0.510234 
        4.25691         7.26501        0.505363 
        4.27259         7.19003        0.500553 
        4.28831         7.13225        0.495795 
        4.30404         7.07357        0.491095 
        4.31974         7.03414        0.486465 
        4.33543         6.98712        0.481897 
        4.35116         6.92507        0.477377 
        4.36688         6.87696        0.472916 
        4.38255         6.79826        0.468528 
        4.39825         6.76485        0.464186 
        4.41398         6.71335         0.45989 
         4.4297         6.66671        0.455652 
        4.44541         6.61008        0.451468 
        4.46111         6.57059         0.44734 
        4.47683         6.52267         0.44326 
        4.49251         6.48183        0.439239 
        4.50819         6.40415        0.435268 
         4.5239         6.36617        0.431341 
        4.53962          6.3316        0.427456 
        4.55535         6.25798        0.423618 
        4.57106         6.22842        0.419832 
        4.58678         6.19615         0.41609 
         4.6025         6.13621        0.412394 
        4.61821         6.08648        0.408742 
        4.63391         6.05331        0.405139 
         4.6496         6.01333        0.401581 
        4.66532         5.95684         0.39806 
        4.68103         5.92606        0.394582 
        4.69673         5.87478        0.391149 
        4.71241         5.83981        0.387759 
        4.72811         5.77093        0.384405 
        4.74384         5.74673        0.381085 
        4.75955          5.7048        0.377809 
        4.77525          5.6683        0.374573 
        4.79096         5.62996        0.371371 
        4.80669         5.57155        0.368205 
         4.8224         5.53502        0.365079 
        4.83809         5.50181        0.361992 
        4.85379          5.4609        0.358939 
         4.8695         5.42596        0.355918 
        4.88521         5.38314        0.352933 
        4.90093         5.33186        0.349982 
        4.91663         5.30127        0.347067 
        4.93234         5.25233        0.344181 
        4.94807         5.23686        0.341327 
        4.96377         5.19487         0.33851 
        4.97943         5.16951         0.33573 
        4.99514         5.11285        0.332974 
        5.01086         5.07691        0.330247 
        5.02654         5.04903        0.327557 
        5.04227         5.01976        0.324889 
          5.058         4.98946         0.32225 
        5.07371          4.9416        0.319644 
        5.08942         4.90808        0.317067 
        5.10513         4.87385        0.314518 
        5.12084         4.84594        0.311995 
        5.13656          4.8192        0.309501 
        5.15225          4.7741        0.307037 
        5.16796         4.74486        0.304596 
        5.18369         4.71486         0.30218 
         5.1994         4.67217        0.299794 
        5.21509         4.65912        0.297435 
        5.23079         4.62107        0.295099 
        5.24649         4.59809         0.29279 
        5.26217         4.56108        0.290507 
        5.27788           4.535        0.288245 
        5.29359         4.50324        0.286007 
        5.30933         4.47502        0.283788 
        5.32504         4.44602        0.281597 
        5.34073         4.40673        0.279431 
        5.35646         4.37672        0.277284 
        5.37218         4.35009        0.275159 
        5.38789         4.32958        0.273059 
        5.40357         4.29626        0.270983 
        5.41929         4.26977        0.268924 
        5.43502         4.23354        0.266886 
         5.4507          4.2029        0.264874 
        5.46639         4.18175        0.262882 
        5.48212         4.15064        0.260906 
        5.49786         4.12893        0.258948 
        5.51353         4.09134         0.25702 
        5.52921          4.0749        0.255109 
        5.54495         4.04214        0.253211 
        5.56066         4.02134        0.251335 
        5.57637         4.00004        0.249478 
        5.59207         3.97096        0.247642 
        5.60778         3.94506        0.245823 
        5.62346         3.91617        0.244024 
        5.63916          3.8943        0.242242 
        5.65487         3.86864        0.240477 
         5.6706         3.84772        0.238727 
        5.68633         3.81807        0.236994 
        5.70203         3.79242        0.235281 
        5.71773         3.77576        0.233585 
        5.73344         3.74601        0.231906 
        5.74916         3.72795        0.230241 
        5.76486         3.69923        0.228594 
        5.78054          3.6825        0.226966 
        5.79626         3.65427        0.225349 
          5.812         3.63924        0.223747 
         5.8277         3.61502        0.222164 
        5.84339         3.59145        0.220597 
        5.85911         3.57245        0.219041 
        5.87484          3.5463        0.217501 
        5.89053         3.52773        0.215979 
        5.90623         3.50778         0.21447 
        5.92195          3.4864        0.212973 
        5.93767         3.45994        0.211491 
        5.95336         3.44652        0.210026 
        5.96905         3.41773        0.208574 
        5.98476         3.39542        0.207135 
        6.00048         3.38065        0.205708 
        6.01617         3.36122        0.204297 
        6.03185         3.33207        0.202901 
        6.04756          3.3111        0.201514 
        6.06331         3.29784        0.200137 
        6.07903         3.27522        0.198776 
        6.09473         3.25968        0.197428 
        6.11044         3.23736        0.196092 
        6.12616         3.21771        0.194768 
        6.14186         3.20601        0.193458 
        6.15755         3.17945         0.19216 
        6.17326         3.16676        0.190872 
        6.18898         3.14789        0.189596 
        6.20467           3.134        0.188334 
        6.22036         3.11018        0.187083 
         6.2361         3.09004         0.18584 
         6.2518         3.07615         0.18461 
        6.26748         3.05776        0.183394 
        6.28319         3.03703        0.182186 
        6.29893         3.01617        0.180987 
        6.31463         3.00725        0.179801 
        6.33033         2.98756        0.178626 
        6.34604         2.96912        0.177461 
        6.36177         2.94769        0.176305 
        6.37747            2.94        0.175161 
