# k  (h/Mpc)    Pcb(k)  (Mpc/h)^3    Pcb_linear(k) (Mpc/h)^3   ShotnoiseSubtracted = true
      0.0200456         8379.42         8482.97 
      0.0350414         5542.49         5373.33 
      0.0492313         3650.07          3650.7 
      0.0637834         2914.63         2990.31 
      0.0800726         2205.36         2268.45 
       0.096163         1621.56         1548.59 
       0.111083         1297.22         1226.21 
       0.126058         1096.07         1096.59 
       0.142273         909.667         895.699 
       0.158546         720.737         680.451 
        0.17375         624.253         577.641 
       0.188953         573.467         526.762 
       0.204907         478.226         453.802 
       0.220756         419.194         374.113 
        0.23588         369.857         327.131 
         0.2514         330.534         298.872 
       0.267535         312.738         265.771 
       0.283568          269.28         230.227 
       0.299022         252.948           205.3 
       0.314451         246.369         188.231 
       0.330372         211.973         170.927 
       0.346141         194.464         153.245 
       0.361624         182.298         138.977 
       0.377134         167.007         127.984 
       0.392932         161.035         117.748 
       0.408854         151.587         107.653 
       0.424564          143.92         98.8768 
       0.440253         129.996         91.5789 
       0.455999         120.703          85.018 
       0.471626         117.597         78.8563 
        0.48727          112.35         73.2484 
       0.502856         102.356         68.3502 
       0.518488         100.525         63.9237 
       0.534347         93.6921         59.7603 
       0.550082         91.1203          55.952 
       0.565732         88.8257         52.5339 
       0.581496         81.2244         49.3975 
       0.597222         79.1193          46.509 
       0.612804         75.8054         43.8558 
       0.628434          73.989         41.4077 
       0.644267          69.754         39.1285 
       0.660051         67.5927         37.0263 
       0.675724         65.7016         35.0887 
       0.691403          64.159         33.2868 
       0.707174         61.5677         31.6003 
       0.722871         60.2055         30.0364 
        0.73838          58.176         28.5942 
       0.754018         54.6116         27.2352 
       0.769845         54.1097         25.9493 
        0.78569         52.3386         24.7448 
       0.801365         50.4726         23.6283 
       0.817031         48.7168         22.5814 
       0.832809         47.6424         21.5911 
       0.848511         46.5164         20.6646 
       0.864097         45.4933         19.7987 
       0.879701         44.3766         18.9814 
       0.895507         42.6808         18.2006 
       0.911279         41.7592         17.4652 
        0.92691         40.8837         16.7764 
       0.942635         39.7496         16.1208 
       0.958396         39.5371         15.4988 
       0.974128         38.4692         14.9106 
       0.989692         37.2467         14.3586 
        1.00528         36.4875         13.8337 
        1.02113         35.5753         13.3267 
        1.03692         35.3296         12.8469 
        1.05264         34.4813         12.3929 
        1.06832         33.5919         11.9614 
        1.08405         32.8882         11.5493 
        1.09979         32.5706         11.1562 
        1.11537         31.6458         10.7853 
        1.13105         30.8638          10.429 
        1.14679         30.4208         10.0874 
        1.16256         29.9604         9.76034 
        1.17828         29.5791         9.44882 
        1.19395         28.6814          9.1519 
         1.2097         28.6483         8.86619 
        1.22537         27.8295         8.59401 
          1.241         27.5225         8.33405 
        1.25666         26.7761         8.08415 
        1.27241         26.6384         7.84329 
        1.28819         25.9775         7.61181 
        1.30392         25.6033         7.39031 
        1.31957         25.3771         7.17857 
        1.33529         24.9119         6.97432 
        1.35108         24.4486         6.77719 
        1.36674         24.0382         6.58905 
         1.3824         23.6705         6.40819 
        1.39811         23.2215          6.2335 
        1.41389         22.8896         6.06463 
        1.42964         22.8087         5.90228 
        1.44531         22.2869         5.74663 
        1.46101         22.0392         5.59624 
        1.47667         21.7498         5.45166 
        1.49229         21.2754         5.31256 
        1.50793         21.1699         5.17813 
        1.52367         20.7007         5.04746 
        1.53953         20.6406         4.92042 
        1.55526         20.2287         4.79873 
        1.57092         20.0108         4.68165 
        1.58662         19.7585         4.56818 
        1.60235         19.4666         4.45823 
        1.61809         19.2157         4.35183 
        1.63369         18.9939         4.24983 
        1.64941         18.7021         4.15036 
        1.66519          18.543          4.0537 
        1.68085         18.1603         3.96079 
        1.69652         17.9862         3.87074 
        1.71228         17.9295         3.78298 
        1.72806         17.5629         3.69785 
        1.74368         17.3488         3.61619 
        1.75933         17.2079         3.53682 
        1.77505         17.0113         3.45944 
        1.79081         16.7869         3.38424 
         1.8065         16.6169         3.31158 
        1.82218         16.4053          3.2411 
        1.83797          16.315         3.17219 
        1.85367         16.1044         3.10565 
        1.86928          15.999         3.04141 
        1.88497         15.7416         2.97862 
        1.90073         15.5856         2.91737 
        1.91647         15.3525         2.85789 
        1.93218         15.3223         2.80018 
        1.94787         15.1149         2.74415 
        1.96363         14.9328         2.68941 
        1.97935         14.7234         2.63628 
        1.99499         14.6187         2.58487 
        2.01064         14.3792         2.53475 
         2.0264         14.3013         2.48564 
        2.04216         14.2461         2.43785 
        2.05781         13.9981         2.39161 
        2.07353         13.8973          2.3464 
        2.08928         13.7067         2.30225 
        2.10499         13.5106         2.25935 
        2.12065         13.4315         2.21767 
        2.13633         13.3355         2.17699 
        2.15211         13.1312         2.13707 
        2.16785         13.1107         2.09826 
        2.18349         12.9267         2.06064 
        2.19916         12.7792         2.02387 
        2.21489         12.6068         1.98787 
        2.23063         12.5472         1.95271 
         2.2463         12.4204         1.91856 
        2.26194          12.268          1.8853 
        2.27765          12.132         1.85266 
        2.29341         12.0139          1.8207 
        2.30914         11.8968         1.78956 
        2.32486         11.8514         1.75915 
        2.34061          11.703          1.7294 
        2.35635         11.5632         1.70036 
        2.37203         11.4764         1.67209 
        2.38768         11.3545         1.64451 
        2.40339         11.3435         1.61745 
        2.41914         11.2015         1.59093 
        2.43483         11.0488          1.5651 
         2.4505           10.93         1.53988 
        2.46622           10.87         1.51513 
        2.48195         10.7676         1.49092 
        2.49759         10.6462         1.46736 
        2.51328         10.5674         1.44425 
        2.52906         10.4723         1.42148 
        2.54479         10.3807         1.39929 
        2.56049          10.271         1.37761 
        2.57618         10.2435         1.35641 
        2.59189         10.1067         1.33562 
        2.60758         9.98187         1.31529 
        2.62325         9.92777         1.29541 
        2.63898         9.87763         1.27587 
        2.65468         9.75377         1.25677 
        2.67044         9.69806         1.23798 
        2.68618         9.57914         1.21961 
        2.70184         9.52983         1.20169 
        2.71755         9.42216         1.18408 
        2.73329         9.35989         1.16679 
        2.74897         9.28016         1.14991 
        2.76462         9.19221         1.13339 
        2.78034         9.11631         1.11713 
        2.79607         9.03055         1.10117 
        2.81179         8.99297         1.08553 
        2.82749         8.89999         1.07022 
        2.84321         8.84026         1.05518 
        2.85893         8.72708         1.04043 
        2.87462          8.6884         1.02599 
        2.89033         8.58072         1.01181 
        2.90605         8.53414        0.997878 
        2.92176         8.48038        0.984218 
        2.93747         8.40926        0.970818 
        2.95318         8.34839        0.957664 
        2.96891         8.25378        0.944746 
        2.98456         8.18613        0.932122 
        3.00023         8.13491        0.919709 
        3.01596         8.07591        0.907482 
        3.03164         7.99935        0.895511 
        3.04738         7.93324        0.883719 
         3.0631         7.84722        0.872142 
        3.07883         7.80332        0.860771 
        3.09456         7.72198        0.849604 
        3.11026         7.65309         0.83865 
        3.12596         7.61598        0.827889 
        3.14163         7.55756        0.817341 
        3.15734         7.49829        0.806951 
        3.17308         7.44585        0.796715 
        3.18879         7.38467        0.786684 
        3.20447         7.32883        0.776839 
         3.2202         7.26137        0.767131 
         3.2359         7.19597        0.757605 
        3.25157         7.15903        0.748262 
        3.26729         7.09402        0.739048 
        3.28304         7.02409         0.72997 
        3.29877         6.99372        0.721055 
        3.31446         6.94133        0.712307 
        3.33014          6.8793        0.703712 
        3.34585         6.79933        0.695244 
        3.36158         6.78095        0.686902 
        3.37727         6.72423        0.678722 
        3.39294         6.67993        0.670682 
        3.40867         6.64397        0.662743 
        3.42439         6.57566        0.654935 
        3.44008         6.51666        0.647268 
        3.45578         6.47414        0.639717 
        3.47153         6.43176        0.632269 
        3.48724         6.36727        0.624952 
        3.50292         6.31334        0.617767 
        3.51859         6.28139        0.610697 
        3.53431         6.21803        0.603716 
        3.55007         6.16853        0.596826 
        3.56577         6.11911         0.59007 
        3.58146         6.10111         0.58342 
        3.59719         6.03187        0.576858 
        3.61292         6.00872        0.570398 
        3.62859         5.96562         0.56406 
        3.64429         5.91527        0.557806 
        3.66003         5.87206        0.551627 
        3.67578         5.84337        0.545543 
        3.69146         5.79202        0.539573 
        3.70712         5.74605        0.533703 
        3.72284         5.70821        0.527898 
        3.73853         5.67193        0.522189 
        3.75422          5.6397        0.516562 
        3.76993         5.58277        0.511012 
        3.78564         5.55149        0.505545 
        3.80137         5.48605        0.500149 
        3.81707         5.45386        0.494842 
        3.83279          5.4187        0.489608 
        3.84853         5.37914         0.48444 
        3.86424         5.33322        0.479357 
        3.87992         5.31103        0.474354 
        3.89561         5.26296        0.469421 
        3.91134         5.23151        0.464548 
        3.92704         5.18071        0.459749 
        3.94273         5.15674        0.455023 
        3.95845         5.11699        0.450353 
        3.97418         5.08493        0.445748 
        3.98988          5.0447        0.441213 
        4.00554         5.01359        0.436753 
        4.02125         4.98117        0.432342 
        4.03698         4.93498        0.427984 
        4.05268         4.89889        0.423696 
        4.06839         4.84608        0.419463 
         4.0841         4.84046        0.415289 
        4.09983         4.78372        0.411165 
        4.11555         4.76208        0.407099 
        4.13124         4.72445        0.403098 
        4.14693         4.69098        0.399147 
        4.16266         4.65543         0.39524 
        4.17839         4.62564        0.391387 
        4.19408          4.5997        0.387594 
        4.20977         4.56346         0.38385 
        4.22551         4.53281        0.380145 
        4.24123         4.48941        0.376493 
        4.25691         4.46296        0.372898 
        4.27259         4.42576        0.369349 
        4.28831         4.40344        0.365839 
        4.30404         4.35843         0.36237 
        4.31974         4.33943        0.358954 
        4.33543         4.29716        0.355584 
        4.35116         4.26918        0.352248 
        4.36688         4.25047        0.348956 
        4.38255         4.22394        0.345718 
        4.39825         4.19265        0.342515 
        4.41398         4.15256        0.339344 
         4.4297          4.1276        0.336218 
        4.44541         4.11113        0.333131 
        4.46111         4.07936        0.330084 
        4.47683         4.04826        0.327074 
        4.49251         4.02566        0.324107 
        4.50819         4.00898        0.321177 
         4.5239         3.96073        0.318279 
        4.53962         3.94591        0.315413 
        4.55535         3.91024         0.31258 
        4.57106         3.89978        0.309786 
        4.58678         3.86363        0.307026 
         4.6025         3.84616        0.304298 
        4.61821          3.8206        0.301604 
        4.63391         3.78806        0.298945 
         4.6496         3.75888         0.29632 
        4.66532         3.72907        0.293721 
        4.68103         3.71527        0.291155 
        4.69673         3.68675        0.288622 
        4.71241          3.6668        0.286121 
        4.72811         3.63898        0.283645 
        4.74384         3.62183        0.281196 
        4.75955         3.58921        0.278779 
        4.77525         3.56987        0.276391 
        4.79096         3.55556        0.274028 
        4.80669          3.5337        0.271692 
         4.8224         3.50519        0.269385 
        4.83809         3.48242        0.267108 
        4.85379         3.46297        0.264855 
         4.8695         3.43037        0.262626 
        4.88521         3.41536        0.260423 
        4.90093         3.38788        0.258246 
        4.91663         3.37152        0.256094 
        4.93234         3.35194        0.253965 
        4.94807         3.33051        0.251859 
        4.96377          3.3135         0.24978 
        4.97943         3.28598        0.247729 
        4.99514         3.27651        0.245696 
        5.01086         3.24695        0.243684 
        5.02654          3.2296        0.241699 
        5.04227           3.215         0.23973 
          5.058         3.18563        0.237782 
        5.07371          3.1679         0.23586 
        5.08942          3.1513        0.233958 
        5.10513          3.1404        0.232077 
        5.12084         3.11937        0.230216 
        5.13656         3.09302        0.228375 
        5.15225         3.07824        0.226557 
        5.16796         3.05595        0.224756 
        5.18369         3.04113        0.222973 
         5.1994         3.01858        0.221213 
        5.21509         3.00421        0.219472 
        5.23079         2.97758        0.217749 
        5.24649         2.97347        0.216045 
        5.26217         2.94682         0.21436 
        5.27788         2.92911        0.212691 
        5.29359         2.90857        0.211039 
        5.30933          2.9007        0.209402 
        5.32504         2.87996        0.207786 
        5.34073         2.86938        0.206188 
        5.35646         2.85014        0.204603 
        5.37218         2.82907        0.203035 
        5.38789         2.81291        0.201485 
        5.40357         2.79737        0.199954 
        5.41929          2.7801        0.198434 
        5.43502         2.76553        0.196931 
         5.4507          2.7456        0.195446 
        5.46639         2.73648        0.193976 
        5.48212          2.7221        0.192518 
        5.49786         2.69357        0.191073 
        5.51353         2.68183         0.18965 
        5.52921         2.66944         0.18824 
        5.54495         2.65586         0.18684 
        5.56066         2.63956        0.185456 
        5.57637         2.61879        0.184086 
        5.59207         2.60972         0.18273 
        5.60778         2.59279        0.181388 
        5.62346         2.58561        0.180061 
        5.63916         2.56742        0.178746 
        5.65487         2.55198        0.177444 
         5.6706         2.53821        0.176152 
        5.68633         2.52382        0.174873 
        5.70203         2.50749         0.17361 
        5.71773          2.4922        0.172359 
        5.73344         2.47925        0.171119 
        5.74916          2.4656        0.169891 
        5.76486         2.45271        0.168676 
        5.78054         2.43819        0.167474 
        5.79626         2.42787        0.166281 
          5.812          2.4149        0.165099 
         5.8277         2.39831        0.163931 
        5.84339          2.3878        0.162774 
        5.85911         2.37718        0.161627 
        5.87484         2.36288         0.16049 
        5.89053         2.34702        0.159367 
        5.90623          2.3395        0.158254 
        5.92195         2.32308        0.157149 
        5.93767         2.31301        0.156056 
        5.95336         2.29745        0.154974 
        5.96905         2.29074        0.153903 
        5.98476         2.27371        0.152841 
        6.00048         2.26358        0.151789 
        6.01617           2.252        0.150747 
        6.03185         2.24028        0.149717 
        6.04756         2.22547        0.148693 
        6.06331           2.217        0.147677 
        6.07903           2.202        0.146673 
        6.09473         2.19365        0.145679 
        6.11044         2.18064        0.144693 
        6.12616         2.17172        0.143716 
        6.14186         2.15875        0.142749 
        6.15755         2.15035        0.141791 
        6.17326         2.13564        0.140841 
        6.18898          2.1255          0.1399 
        6.20467         2.11681        0.138968 
        6.22036          2.1069        0.138045 
         6.2361          2.0923        0.137128 
         6.2518         2.08599        0.136221 
        6.26748         2.07427        0.135323 
        6.28319         2.06637        0.134432 
        6.29893         2.05422        0.133547 
        6.31463         2.04456        0.132672 
        6.33033         2.03578        0.131805 
        6.34604         2.02263        0.130945 
        6.36177         2.01345        0.130092 
        6.37747         2.00515        0.129248 
