# k  (h/Mpc)    Pcb(k)  (Mpc/h)^3    Pcb_linear(k) (Mpc/h)^3   ShotnoiseSubtracted = true
      0.0200456         20835.9         21146.5 
      0.0350414         13952.2         13394.8 
      0.0492313         9012.17         9100.53 
      0.0637834         7165.99         7454.32 
      0.0800726         5411.26         5654.84 
       0.096163         4137.05         3860.37 
       0.111083          3323.2         3056.71 
       0.126058         2762.36          2733.6 
       0.142273         2349.97         2232.82 
       0.158546         1879.74         1696.24 
        0.17375         1661.41         1439.96 
       0.188953         1564.85         1313.12 
       0.204907         1321.04         1131.25 
       0.220756         1179.89         932.596 
        0.23588         1048.55          815.48 
         0.2514         937.669         745.035 
       0.267535          903.65         662.521 
       0.283568         791.972         573.914 
       0.299022         751.572         511.777 
       0.314451         776.375         469.227 
       0.330372         667.242         426.091 
       0.346141         612.637         382.012 
       0.361624         584.924         346.444 
       0.377134         556.003         319.041 
       0.392932         528.855         293.525 
       0.408854         506.028         268.359 
       0.424564         491.068         246.482 
       0.440253         448.029          228.29 
       0.455999             427         211.935 
       0.471626          434.03         196.575 
        0.48727         406.691         182.595 
       0.502856         383.821         170.385 
       0.518488         376.045          159.35 
       0.534347         356.827         148.972 
       0.550082         339.909         139.478 
       0.565732         336.496         130.958 
       0.581496         325.527         123.139 
       0.597222         316.495         115.939 
       0.612804         307.017         109.325 
       0.628434         295.953         103.222 
       0.644267         284.543         97.5404 
       0.660051         281.258         92.2999 
       0.675724         274.118         87.4697 
       0.691403         268.853         82.9781 
       0.707174         258.416          78.774 
       0.722871         254.529         74.8754 
        0.73838         249.824         71.2803 
       0.754018         241.049         67.8925 
       0.769845         240.954         64.6869 
        0.78569         233.168         61.6843 
       0.801365         225.805         58.9012 
       0.817031         224.906         56.2913 
       0.832809         219.369         53.8229 
       0.848511         214.716         51.5132 
       0.864097         208.003         49.3545 
       0.879701         208.042         47.3173 
       0.895507         202.351         45.3708 
       0.911279         197.865         43.5375 
        0.92691         194.876         41.8205 
       0.942635         192.872         40.1863 
       0.958396         187.915         38.6357 
       0.974128         186.009         37.1695 
       0.989692         179.175         35.7935 
        1.00528         179.037         34.4849 
        1.02113          176.53         33.2211 
        1.03692         172.634         32.0251 
        1.05264         168.964         30.8932 
        1.06832         168.275         29.8176 
        1.08405          164.36         28.7902 
        1.09979         162.249         27.8105 
        1.11537          160.75         26.8859 
        1.13105         157.109         25.9977 
        1.14679         156.011          25.146 
        1.16256         152.664         24.3308 
        1.17828         151.279         23.5542 
        1.19395         147.631          22.814 
         1.2097         147.136         22.1018 
        1.22537         145.729         21.4233 
          1.241         141.147         20.7753 
        1.25666         140.835         20.1523 
        1.27241          137.87         19.5519 
        1.28819         136.536         18.9749 
        1.30392         134.975         18.4227 
        1.31957         132.111         17.8949 
        1.33529         129.655         17.3857 
        1.35108         129.071         16.8943 
        1.36674         126.197         16.4253 
         1.3824         125.455         15.9745 
        1.39811         124.085          15.539 
        1.41389         121.251          15.118 
        1.42964         119.476         14.7133 
        1.44531         118.924         14.3253 
        1.46101         116.526         13.9504 
        1.47667         116.122           13.59 
        1.49229           114.7         13.2433 
        1.50793         112.248         12.9081 
        1.52367         110.799         12.5824 
        1.53953         109.128         12.2657 
        1.55526         108.361         11.9624 
        1.57092          107.36         11.6705 
        1.58662         105.407         11.3877 
        1.60235         104.265         11.1136 
        1.61809         103.074         10.8483 
        1.63369         101.297         10.5941 
        1.64941         101.011         10.3461 
        1.66519         99.1894         10.1051 
        1.68085         97.6775         9.87353 
        1.69652         96.9102         9.64907 
        1.71228         95.2602         9.43029 
        1.72806          95.174         9.21809 
        1.74368         93.8395         9.01451 
        1.75933         92.5231         8.81665 
        1.77505         91.5055         8.62377 
        1.79081         90.1706          8.4363 
         1.8065         88.5535         8.25517 
        1.82218         87.8371         8.07949 
        1.83797         87.4395          7.9077 
        1.85367         85.9677         7.74183 
        1.86928          85.611         7.58168 
        1.88497         83.8358         7.42518 
        1.90073         83.3025         7.27249 
        1.91647         81.8805         7.12421 
        1.93218          81.243         6.98035 
        1.94787         79.7615         6.84066 
        1.96363         79.2567         6.70423 
        1.97935          78.587         6.57177 
        1.99499         77.8326         6.44362 
        2.01064         76.4445         6.31869 
         2.0264         75.5338         6.19626 
        2.04216         74.6055         6.07713 
        2.05781         73.7364         5.96186 
        2.07353         73.1075         5.84915 
        2.08928         72.2808          5.7391 
        2.10499         71.3754         5.63216 
        2.12065         70.7094         5.52825 
        2.13633         69.7921         5.42686 
        2.15211         68.7923         5.32734 
        2.16785          67.868         5.23058 
        2.18349          67.159         5.13682 
        2.19916          66.735         5.04515 
        2.21489         65.7817          4.9554 
        2.23063         64.7262         4.86776 
         2.2463         64.1847         4.78262 
        2.26194         63.9523         4.69972 
        2.27765         62.6345         4.61834 
        2.29341         62.1512         4.53868 
        2.30914         61.4367         4.46104 
        2.32486         61.0364         4.38525 
        2.34061         59.9403         4.31109 
        2.35635         59.4388          4.2387 
        2.37203         58.5319         4.16822 
        2.38768         58.2107         4.09947 
        2.40339         57.5013         4.03202 
        2.41914         56.5773         3.96591 
        2.43483         56.4568         3.90152 
         2.4505         55.6826         3.83865 
        2.46622         55.1569         3.77695 
        2.48195         54.5187         3.71659 
        2.49759         54.0071         3.65786 
        2.51328         53.2255         3.60025 
        2.52906         52.8899          3.5435 
        2.54479         52.3112         3.48818 
        2.56049         51.4591         3.43414 
        2.57618         51.0919         3.38128 
        2.59189         50.4278         3.32945 
        2.60758         49.8604         3.27879 
        2.62325         49.5933         3.22923 
        2.63898          49.156         3.18052 
        2.65468         48.5147         3.13291 
        2.67044         48.0574         3.08606 
        2.68618         47.6601         3.04028 
        2.70184         47.0824          2.9956 
        2.71755            46.4          2.9517 
        2.73329         45.9044         2.90861 
        2.74897         45.4973         2.86651 
        2.76462         45.0622         2.82534 
        2.78034         44.7294          2.7848 
        2.79607         44.2025         2.74501 
        2.81179         43.6725         2.70603 
        2.82749         43.3058         2.66786 
        2.84321         42.8522         2.63037 
        2.85893          42.383         2.59361 
        2.87462         42.1498         2.55761 
        2.89033         41.3822         2.52225 
        2.90605         40.9153         2.48753 
        2.92176         40.8175         2.45348 
        2.93747         40.3437         2.42008 
        2.95318         39.9049         2.38729 
        2.96891         39.4329         2.35508 
        2.98456         39.1479         2.32361 
        3.00023         38.6919         2.29267 
        3.01596          38.086         2.26219 
        3.03164         37.8235         2.23235 
        3.04738          37.551         2.20295 
         3.0631         37.3178         2.17409 
        3.07883         36.8929         2.14575 
        3.09456         36.4516         2.11791 
        3.11026         36.1581          2.0906 
        3.12596         35.7845         2.06378 
        3.14163            35.4         2.03749 
        3.15734         35.0511         2.01158 
        3.17308         34.7627         1.98607 
        3.18879         34.4393         1.96106 
        3.20447         33.9677         1.93652 
         3.2202         33.6972         1.91232 
         3.2359         33.4642         1.88857 
        3.25157         33.0933         1.86528 
        3.26729         32.8352         1.84231 
        3.28304         32.4701         1.81968 
        3.29877         32.0603         1.79746 
        3.31446         31.7379         1.77565 
        3.33014         31.4747         1.75423 
        3.34585         31.1252         1.73312 
        3.36158         30.9445         1.71232 
        3.37727         30.6038         1.69193 
        3.39294         30.3338         1.67189 
        3.40867         30.0176          1.6521 
        3.42439         29.7529         1.63264 
        3.44008         29.5056         1.61352 
        3.45578         29.2017          1.5947 
        3.47153         28.9464         1.57613 
        3.48724         28.6146         1.55789 
        3.50292         28.5106         1.53998 
        3.51859         28.1449         1.52236 
        3.53431         27.8612         1.50496 
        3.55007         27.5913         1.48778 
        3.56577         27.3588         1.47094 
        3.58146         27.0868         1.45436 
        3.59719         26.8908           1.438 
        3.61292         26.6452          1.4219 
        3.62859         26.3259          1.4061 
        3.64429         26.1345         1.39051 
        3.66003         25.8955         1.37511 
        3.67578          25.575         1.35994 
        3.69146         25.3751         1.34506 
        3.70712         25.1921         1.33043 
        3.72284         25.0069         1.31596 
        3.73853         24.8193         1.30172 
        3.75422          24.495          1.2877 
        3.76993          24.319         1.27386 
        3.78564         24.1084         1.26023 
        3.80137         23.8596         1.24678 
        3.81707         23.7065         1.23355 
        3.83279         23.4434         1.22051 
        3.84853         23.1913         1.20762 
        3.86424         23.0549         1.19495 
        3.87992          22.829         1.18248 
        3.89561         22.5779         1.17018 
        3.91134          22.385         1.15804 
        3.92704         22.1938         1.14607 
        3.94273         22.0362         1.13429 
        3.95845         21.8252         1.12265 
        3.97418         21.6465         1.11117 
        3.98988         21.3746         1.09987 
        4.00554         21.2067         1.08875 
        4.02125         21.0855         1.07775 
        4.03698         20.8744         1.06689 
        4.05268         20.7017          1.0562 
        4.06839         20.4694         1.04565 
         4.0841         20.2848         1.03524 
        4.09983         20.1565         1.02496 
        4.11555         19.9659         1.01482 
        4.13124         19.8456         1.00485 
        4.14693         19.6339        0.995003 
        4.16266            19.5        0.985263 
        4.17839         19.3817        0.975659 
        4.19408         19.1661        0.966203 
        4.20977         19.0269        0.956868 
        4.22551         18.8779        0.947633 
        4.24123         18.7099        0.938529 
        4.25691         18.5737        0.929568 
        4.27259         18.3495        0.920721 
        4.28831          18.278         0.91197 
        4.30404          18.114        0.903324 
        4.31974         17.9564        0.894808 
        4.33543         17.7755        0.886406 
        4.35116         17.6433        0.878091 
        4.36688         17.5012        0.869885 
        4.38255          17.351        0.861814 
        4.39825         17.2141        0.853827 
        4.41398         17.0921        0.845925 
         4.4297         16.9163        0.838131 
        4.44541         16.8094        0.830435 
        4.46111         16.6317        0.822841 
        4.47683         16.5239        0.815337 
        4.49251         16.3715         0.80794 
        4.50819         16.2385        0.800636 
         4.5239          16.169        0.793412 
        4.53962         15.9635        0.786267 
        4.55535         15.8694        0.779207 
        4.57106         15.7542        0.772242 
        4.58678         15.6094         0.76536 
         4.6025         15.4666        0.758561 
        4.61821         15.3413        0.751844 
        4.63391         15.2331        0.745217 
         4.6496         15.0853        0.738672 
        4.66532          14.972        0.732195 
        4.68103         14.9051        0.725798 
        4.69673          14.763        0.719483 
        4.71241         14.6556        0.713248 
        4.72811         14.5401        0.707077 
        4.74384         14.4158        0.700971 
        4.75955         14.2905        0.694945 
        4.77525         14.2003        0.688993 
        4.79096         14.0684        0.683104 
        4.80669         13.9672        0.677279 
         4.8224         13.8273        0.671529 
        4.83809         13.7283        0.665851 
        4.85379         13.6172        0.660235 
         4.8695           13.54        0.654679 
        4.88521         13.4188        0.649188 
        4.90093         13.3418         0.64376 
        4.91663         13.2027        0.638398 
        4.93234         13.1372         0.63309 
        4.94807         13.0386         0.62784 
        4.96377         12.9266        0.622658 
        4.97943          12.816        0.617545 
        4.99514         12.7192        0.612476 
        5.01086         12.6248         0.60746 
        5.02654         12.5216        0.602512 
        5.04227         12.4433        0.597604 
          5.058         12.3366        0.592749 
        5.07371         12.2619        0.587956 
        5.08942         12.1895        0.583216 
        5.10513         12.0695        0.578527 
        5.12084         11.9894        0.573887 
        5.13656         11.8829        0.569298 
        5.15225         11.7955        0.564767 
        5.16796         11.7308        0.560277 
        5.18369         11.6048        0.555832 
         5.1994         11.5519        0.551443 
        5.21509         11.4657        0.547105 
        5.23079           11.38        0.542809 
        5.24649          11.295        0.538561 
        5.26217         11.2122        0.534362 
        5.27788         11.1431        0.530201 
        5.29359         11.0329        0.526083 
        5.30933         10.9785        0.522003 
        5.32504         10.8927        0.517972 
        5.34073         10.8027        0.513989 
        5.35646         10.7344        0.510039 
        5.37218         10.6517        0.506129 
        5.38789         10.5637        0.502267 
        5.40357         10.4755        0.498448 
        5.41929         10.4347        0.494661 
        5.43502         10.3529        0.490913 
         5.4507         10.2645        0.487212 
        5.46639         10.1843        0.483548 
        5.48212         10.1151        0.479914 
        5.49786         10.0522        0.476312 
        5.51353         10.0005        0.472764 
        5.52921         9.90989        0.469249 
        5.54495         9.83965        0.465759 
        5.56066         9.76019        0.462308 
        5.57637         9.69905        0.458893 
        5.59207         9.62765        0.455514 
        5.60778         9.57936        0.452169 
        5.62346         9.49735        0.448861 
        5.63916         9.43251        0.445583 
        5.65487         9.38109        0.442335 
         5.6706         9.29277        0.439117 
        5.68633         9.23638        0.435928 
        5.70203         9.16407        0.432778 
        5.71773         9.10377        0.429659 
        5.73344          9.0539        0.426569 
        5.74916         8.97859        0.423507 
        5.76486         8.93442        0.420478 
        5.78054         8.86555        0.417484 
        5.79626         8.78924         0.41451 
          5.812         8.74298        0.411562 
         5.8277         8.64896        0.408651 
        5.84339         8.61487        0.405767 
        5.85911         8.54394        0.402907 
        5.87484         8.51065        0.400073 
        5.89053         8.45608        0.397273 
        5.90623           8.394        0.394498 
        5.92195         8.32298        0.391744 
        5.93767         8.27468        0.389019 
        5.95336         8.20275        0.386323 
        5.96905         8.15731        0.383654 
        5.98476          8.1095        0.381006 
        6.00048         8.05359        0.378382 
        6.01617         8.00932        0.375786 
        6.03185          7.9317        0.373217 
        6.04756         7.87966        0.370666 
        6.06331         7.83294        0.368133 
        6.07903         7.80157         0.36563 
        6.09473         7.72883        0.363151 
        6.11044         7.67438        0.360693 
        6.12616         7.63224        0.358259 
        6.14186          7.5938        0.355848 
        6.15755         7.54454        0.353461 
        6.17326         7.46667        0.351093 
        6.18898         7.43681        0.348745 
        6.20467         7.36991        0.346423 
        6.22036         7.33933        0.344122 
         6.2361         7.30175        0.341836 
         6.2518         7.26708        0.339574 
        6.26748         7.20072        0.337337 
        6.28319         7.16549        0.335114 
        6.29893          7.1117        0.332909 
        6.31463         7.05394        0.330728 
        6.33033         7.01992        0.328567 
        6.34604           6.978        0.326423 
        6.36177         6.93784        0.324296 
        6.37747         6.88706        0.322192 
