# k  (h/Mpc)    Pcb(k)  (Mpc/h)^3    Pcb_linear(k) (Mpc/h)^3   ShotnoiseSubtracted = true
      0.0200456           13582         13808.7 
      0.0350414         9771.57         9481.27 
      0.0492313         6476.58         6526.25 
      0.0637834         5269.85         5448.31 
      0.0800726         4259.96         4477.89 
       0.096163         3288.71         3163.25 
       0.111083         2573.17            2410 
       0.126058         2156.09          2160.7 
       0.142273          1919.1         1912.29 
       0.158546          1566.9         1498.09 
        0.17375         1340.95         1209.65 
       0.188953         1245.27         1093.91 
       0.204907         1079.99         1005.34 
       0.220756         973.277         858.707 
        0.23588         856.272          725.82 
         0.2514         763.216         650.622 
       0.267535         744.413         602.199 
       0.283568         653.357         539.753 
       0.299022         621.731         474.814 
       0.314451         629.438         428.022 
       0.330372         540.879         396.017 
       0.346141         501.328         364.496 
       0.361624         479.209         330.736 
       0.377134         449.245         301.601 
       0.392932         434.584         279.277 
       0.408854         414.203         259.632 
       0.424564          400.59          240.03 
       0.440253         362.802         221.704 
       0.455999         346.866         206.311 
       0.471626         349.461         193.144 
        0.48727         330.803         180.671 
       0.502856         304.713         168.876 
       0.518488         305.323         158.226 
       0.534347         284.348         148.712 
       0.550082         275.085         140.034 
       0.565732         273.988         131.928 
       0.581496         260.429         124.361 
       0.597222         253.302         117.516 
       0.612804         246.217         111.284 
       0.628434         237.752         105.461 
       0.644267         227.308         99.9472 
       0.660051         223.903         94.8574 
       0.675724         220.515         90.1862 
       0.691403         215.323         85.8344 
       0.707174         207.713         81.7453 
       0.722871         204.464         77.9393 
        0.73838         202.255         74.4168 
       0.754018         192.132         71.0859 
       0.769845         192.205         67.9233 
        0.78569         187.058         64.9512 
       0.801365         181.507         62.1873 
       0.817031          178.02         59.5876 
       0.832809         174.824         57.1217 
       0.848511         170.659         54.8083 
       0.864097         166.958         52.6408 
       0.879701         165.814         50.5902 
       0.895507         161.883         48.6262 
       0.911279         157.175          46.772 
        0.92691         154.863         45.0313 
       0.942635         152.627         43.3708 
       0.958396          149.92         41.7917 
       0.974128         147.184         40.2951 
       0.989692         143.003         38.8876 
        1.00528         142.101         37.5461 
        1.02113         138.741         36.2477 
        1.03692         137.037         35.0162 
        1.05264         135.245         33.8483 
        1.06832         133.097         32.7361 
        1.08405         130.477         31.6715 
        1.09979         129.715         30.6542 
        1.11537         126.855         29.6922 
        1.13105         125.337         28.7662 
        1.14679          123.36         27.8765 
        1.16256         121.175         27.0232 
        1.17828         119.988         26.2088 
        1.19395         117.332         25.4312 
         1.2097         116.251         24.6814 
        1.22537         114.442         23.9659 
          1.241         112.881         23.2812 
        1.25666         110.555         22.6219 
        1.27241         108.501         21.9853 
        1.28819         108.017         21.3724 
        1.30392         106.282         20.7849 
        1.31957         104.542         20.2224 
        1.33529         103.331         19.6788 
        1.35108          102.53         19.1533 
        1.36674          100.56          18.651 
         1.3824         100.224         18.1674 
        1.39811         97.9107         17.6995 
        1.41389         96.8134         17.2464 
        1.42964         94.8914         16.8102 
        1.44531         94.4196         16.3913 
        1.46101         93.0005          15.986 
        1.47667          92.396         15.5958 
        1.49229          91.421         15.2197 
        1.50793         89.7377         14.8558 
        1.52367         88.9566         14.5015 
        1.53953         88.0844         14.1566 
        1.55526         86.5099         13.8257 
        1.57092         86.1646         13.5069 
        1.58662         84.9999         13.1975 
        1.60235         83.6946         12.8973 
        1.61809          82.778         12.6064 
        1.63369         81.5605         12.3271 
        1.64941         81.5647         12.0543 
        1.66519         79.8202          11.789 
        1.68085         78.8044         11.5335 
        1.69652         77.6858         11.2857 
        1.71228         76.7602         11.0438 
        1.72806         76.5156         10.8088 
        1.74368         75.1185         10.5832 
        1.75933         74.5575         10.3635 
        1.77505         73.8956         10.1492 
        1.79081         72.6383         9.94057 
         1.8065          72.249         9.73877 
        1.82218           70.95         9.54281 
        1.83797         70.4845         9.35095 
        1.85367         69.3747         9.16547 
        1.86928         68.7416         8.98619 
        1.88497         68.1066         8.81078 
        1.90073         67.2713         8.63944 
        1.91647         66.4711         8.47285 
        1.93218         65.7544         8.31106 
        1.94787         64.8777         8.15376 
        1.96363         64.2139         7.99996 
        1.97935         63.5834         7.85047 
        1.99499         62.8736         7.70569 
        2.01064         62.2801         7.56438 
         2.0264         61.5183         7.42576 
        2.04216         60.8269         7.29071 
        2.05781         60.1021         7.15991 
        2.07353         59.4758         7.03188 
        2.08928         58.7901         6.90673 
        2.10499         58.2024         6.78499 
        2.12065         57.6467         6.66658 
        2.13633         57.2217         6.55092 
        2.15211         56.3842         6.43728 
        2.16785         55.5453         6.32667 
        2.18349         55.0675         6.21939 
        2.19916         54.5047         6.11439 
        2.21489         54.0711         6.01148 
        2.23063         53.3414          5.9109 
         2.2463         52.8649         5.81309 
        2.26194         52.6205         5.71776 
        2.27765         51.7715          5.6241 
        2.29341         51.0914         5.53231 
        2.30914         50.5167         5.44277 
        2.32486         50.0042         5.35529 
        2.34061          49.637          5.2696 
        2.35635         48.9501         5.18588 
        2.37203         48.3749         5.10428 
        2.38768         48.1633         5.02462 
        2.40339         47.6078         4.94639 
        2.41914         47.0944         4.86966 
        2.43483         46.4121         4.79484 
         2.4505         46.2088         4.72173 
        2.46622         45.6863         4.64991 
        2.48195         45.1048         4.57959 
        2.49759         44.6299         4.51111 
        2.51328         44.3107         4.44386 
        2.52906         43.8089         4.37758 
        2.54479         43.5558          4.3129 
        2.56049         42.6787         4.24967 
        2.57618          42.501         4.18777 
        2.59189          42.079         4.12702 
        2.60758         41.4366         4.06758 
        2.62325         41.3827          4.0094 
        2.63898         40.8305         3.95216 
        2.65468         40.4006         3.89616 
        2.67044         40.1596         3.84102 
        2.68618         39.7524         3.78709 
        2.70184         39.1339         3.73441 
        2.71755         38.8553         3.68261 
        2.73329         38.3117         3.63173 
        2.74897         38.1044         3.58198 
        2.76462         37.5835         3.53328 
        2.78034          37.325         3.48529 
        2.79607         36.8577         3.43815 
        2.81179         36.5061         3.39194 
        2.82749         36.1949         3.34664 
        2.84321         35.7327         3.30213 
        2.85893         35.4048         3.25844 
        2.87462         35.0934         3.21563 
        2.89033         34.8161         3.17355 
        2.90605         34.4338         3.13219 
        2.92176         34.2767          3.0916 
        2.93747         33.9292         3.05176 
        2.95318         33.5512         3.01261 
        2.96891         33.1666         2.97414 
        2.98456         32.9674         2.93651 
        3.00023         32.6039         2.89949 
        3.01596         32.2612           2.863 
        3.03164         31.8779         2.82724 
        3.04738         31.7033         2.79199 
         3.0631         31.4752         2.75737 
        3.07883         31.0056         2.72333 
        3.09456          30.679         2.68988 
        3.11026         30.4009         2.65704 
        3.12596         30.1342         2.62476 
        3.14163         29.8346          2.5931 
        3.15734         29.5891         2.56189 
        3.17308         29.2295         2.53112 
        3.18879         29.0175         2.50094 
        3.20447         28.7813         2.47131 
         3.2202         28.4557         2.44206 
         3.2359         28.1464         2.41335 
        3.25157         28.0089         2.38517 
        3.26729         27.7527         2.35736 
        3.28304         27.3164         2.32994 
        3.29877         27.1049         2.30299 
        3.31446         26.8862         2.27654 
        3.33014         26.6717         2.25052 
        3.34585         26.3893         2.22488 
        3.36158         26.2129          2.1996 
        3.37727         25.8602         2.17479 
        3.39294         25.6912          2.1504 
        3.40867         25.4627         2.12629 
        3.42439         25.2322         2.10257 
        3.44008         24.9612         2.07926 
        3.45578          24.837         2.05628 
        3.47153         24.5195         2.03361 
        3.48724          24.295         2.01132 
        3.50292          24.111         1.98942 
        3.51859          23.887         1.96786 
        3.53431          23.681         1.94656 
        3.55007         23.4534         1.92552 
        3.56577         23.2447         1.90487 
        3.58146         23.0593         1.88454 
        3.59719         22.8024         1.86447 
        3.61292         22.6094         1.84469 
        3.62859         22.4114         1.82528 
        3.64429         22.1456         1.80611 
        3.66003         22.0706         1.78716 
        3.67578         21.8395         1.76849 
        3.69146         21.6255         1.75016 
        3.70712         21.4829         1.73213 
        3.72284         21.2486         1.71428 
        3.73853         21.1303         1.69672 
        3.75422         20.8565          1.6794 
        3.76993         20.7523         1.66231 
        3.78564         20.5263         1.64547 
        3.80137         20.3707         1.62883 
        3.81707         20.1803         1.61246 
        3.83279         20.0085         1.59631 
        3.84853         19.7705         1.58035 
        3.86424         19.6233         1.56464 
        3.87992         19.4619         1.54917 
        3.89561          19.339         1.53391 
        3.91134         19.1034         1.51883 
        3.92704         19.0025         1.50396 
        3.94273         18.7836         1.48932 
        3.95845         18.6757         1.47484 
        3.97418         18.4746         1.46055 
        3.98988         18.3252         1.44648 
        4.00554         18.2187         1.43263 
        4.02125         17.9928         1.41892 
        4.03698         17.8154         1.40537 
        4.05268         17.6989         1.39203 
        4.06839         17.5665         1.37885 
         4.0841         17.3975         1.36585 
        4.09983         17.2503         1.35301 
        4.11555         17.0868         1.34033 
        4.13124         16.9893         1.32785 
        4.14693          16.882         1.31552 
        4.16266         16.7313         1.30332 
        4.17839         16.5397         1.29129 
        4.19408         16.3993         1.27943 
        4.20977         16.2857         1.26772 
        4.22551         16.1723         1.25613 
        4.24123         15.9841         1.24469 
        4.25691         15.8244         1.23343 
        4.27259         15.7583         1.22231 
        4.28831         15.6793          1.2113 
        4.30404         15.4709         1.20042 
        4.31974         15.3848          1.1897 
        4.33543          15.243         1.17912 
        4.35116         15.1089         1.16864 
        4.36688         14.9815         1.15829 
        4.38255         14.8838         1.14811 
        4.39825          14.724         1.13803 
        4.41398         14.6575         1.12805 
         4.4297         14.5043          1.1182 
        4.44541          14.388         1.10847 
        4.46111         14.3076         1.09886 
        4.47683         14.1664         1.08937 
        4.49251         14.0684            1.08 
        4.50819         13.9439         1.07075 
         4.5239         13.8355          1.0616 
        4.53962         13.7457         1.05254 
        4.55535         13.6203         1.04358 
        4.57106         13.5089         1.03475 
        4.58678         13.4013         1.02601 
         4.6025         13.3153         1.01737 
        4.61821         13.1887         1.00883 
        4.63391          13.088         1.00041 
         4.6496         12.9644        0.992082 
        4.66532         12.9054        0.983838 
        4.68103         12.7576        0.975693 
        4.69673         12.6566        0.967648 
        4.71241         12.5741        0.959703 
        4.72811         12.4971        0.951834 
        4.74384         12.3864        0.944044 
        4.75955         12.2967        0.936354 
        4.77525         12.2088        0.928755 
        4.79096          12.137        0.921231 
        4.80669         12.0385        0.913787 
         4.8224         11.9351        0.906435 
        4.83809         11.8496        0.899172 
        4.85379         11.7308        0.891985 
         4.8695         11.6532        0.884871 
        4.88521         11.5711        0.877839 
        4.90093          11.506        0.870882 
        4.91663         11.3784        0.864007 
        4.93234         11.3168          0.8572 
        4.94807         11.2181        0.850462 
        4.96377          11.134         0.84381 
        4.97943          11.067        0.837244 
        4.99514         10.9443         0.83073 
        5.01086         10.8986        0.824282 
        5.02654         10.8132        0.817919 
        5.04227         10.7041        0.811606 
          5.058         10.6375        0.805356 
        5.07371         10.5637        0.799185 
        5.08942         10.5047        0.793078 
        5.10513         10.4103        0.787035 
        5.12084         10.3611        0.781052 
        5.13656         10.2434        0.775133 
        5.15225         10.1572        0.769285 
        5.16796         10.1145         0.76349 
        5.18369         10.0186        0.757749 
         5.1994         9.96044        0.752078 
        5.21509         9.88241         0.74647 
        5.23079         9.79795        0.740914 
        5.24649         9.72742        0.735419 
        5.26217         9.66333        0.729983 
        5.27788         9.61664        0.724596 
        5.29359         9.52742        0.719262 
        5.30933         9.45271        0.713975 
        5.32504         9.39922         0.70875 
        5.34073         9.32592        0.703583 
        5.35646         9.25835        0.698458 
        5.37218         9.19645        0.693383 
        5.38789         9.13311        0.688368 
        5.40357          9.0383        0.683408 
        5.41929         9.00808        0.678486 
        5.43502         8.93536        0.673613 
         5.4507         8.87207        0.668799 
        5.46639         8.80389        0.664032 
        5.48212         8.75823        0.659301 
        5.49786         8.68744         0.65461 
        5.51353         8.63274        0.649989 
        5.52921         8.57911        0.645408 
        5.54495          8.5144        0.640858 
        5.56066         8.43324        0.636357 
        5.57637         8.39972        0.631901 
        5.59207         8.32832        0.627491 
        5.60778         8.28012        0.623122 
        5.62346          8.2125        0.618801 
        5.63916         8.16117        0.614517 
        5.65487         8.11245        0.610272 
         5.6706         8.04453        0.606062 
        5.68633         7.99546        0.601891 
        5.70203         7.91987        0.597768 
        5.71773         7.87938        0.593684 
        5.73344         7.83355        0.589637 
        5.74916         7.78007        0.585624 
        5.76486         7.72931        0.581654 
        5.78054         7.67156        0.577727 
        5.79626         7.60837        0.573826 
          5.812         7.58669        0.569957 
         5.8277         7.51748        0.566135 
        5.84339         7.46284        0.562349 
        5.85911         7.39573         0.55859 
        5.87484         7.37002        0.554866 
        5.89053         7.32032        0.551184 
        5.90623         7.28067        0.547535 
        5.92195          7.2173        0.543911 
        5.93767          7.1743        0.540324 
        5.95336         7.12127        0.536774 
        5.96905         7.07288        0.533258 
        5.98476         7.02725        0.529769 
        6.00048         6.98691         0.52631 
        6.01617         6.93753        0.522886 
        6.03185         6.89509        0.519498 
        6.04756         6.85334        0.516132 
        6.06331         6.81091        0.512788 
        6.07903         6.74925        0.509482 
        6.09473         6.71456        0.506208 
        6.11044          6.6814         0.50296 
        6.12616         6.62131        0.499741 
        6.14186         6.58372        0.496553 
        6.15755         6.54862        0.493394 
        6.17326         6.51169         0.49026 
        6.18898         6.45615        0.487152 
        6.20467         6.41449        0.484077 
        6.22036         6.37564        0.481029 
         6.2361         6.33511        0.477999 
         6.2518         6.29713           0.475 
        6.26748         6.26379        0.472034 
        6.28319         6.22795        0.469085 
        6.29893         6.17161        0.466158 
        6.31463         6.14178        0.463262 
        6.33033          6.1047        0.460392 
        6.34604         6.06273        0.457544 
        6.36177         6.02748        0.454718 
        6.37747         5.98374        0.451921 
