# k  (h/Mpc)    Pcb(k)  (Mpc/h)^3    Pcb_linear(k) (Mpc/h)^3   ShotnoiseSubtracted = true
      0.0200456         16811.1         17180.1 
      0.0350414         11366.2         11796.1 
      0.0492313         8035.42         8119.64 
      0.0637834         6959.56         6778.51 
      0.0800726         5642.57         5571.17 
       0.096163         3842.95         3935.56 
       0.111083         2968.78         2998.41 
       0.126058         2752.27         2688.23 
       0.142273         2450.77         2379.17 
       0.158546         2083.62         1863.85 
        0.17375         1627.79         1504.99 
       0.188953         1583.15         1360.98 
       0.204907         1507.45         1250.79 
       0.220756         1296.69         1068.36 
        0.23588         1143.06         903.029 
         0.2514         988.756         809.472 
       0.267535         980.998         749.225 
       0.283568         892.764         671.534 
       0.299022         838.496          590.74 
       0.314451         794.675         532.523 
       0.330372         731.417         492.704 
       0.346141         677.008         453.488 
       0.361624         652.825         411.486 
       0.377134         605.366         375.237 
       0.392932         580.427         347.463 
       0.408854         561.907         323.022 
       0.424564         526.461         298.634 
       0.440253         516.645         275.833 
       0.455999         487.923         256.682 
       0.471626         464.349         240.301 
        0.48727         447.163         224.782 
       0.502856          434.45         210.107 
       0.518488         430.503         196.857 
       0.534347         402.588          185.02 
       0.550082         384.549         174.223 
       0.565732          383.52         164.138 
       0.581496         360.919         154.724 
       0.597222         355.194         146.208 
       0.612804         345.546         138.454 
       0.628434         332.763          131.21 
       0.644267         323.604         124.349 
       0.660051         316.541         118.017 
       0.675724         311.684         112.205 
       0.691403         302.248         106.791 
       0.707174         292.006         101.703 
       0.722871         287.944         96.9682 
        0.73838         284.126         92.5856 
       0.754018         276.439         88.4415 
       0.769845         268.024         84.5068 
        0.78569          267.76          80.809 
       0.801365         258.429         77.3703 
       0.817031         250.297         74.1359 
       0.832809         249.062         71.0679 
       0.848511         242.041         68.1897 
       0.864097         238.838          65.493 
       0.879701         235.285         62.9418 
       0.895507         229.762         60.4983 
       0.911279         222.379         58.1914 
        0.92691         222.847         56.0257 
       0.942635          216.93         53.9598 
       0.958396         214.801         51.9951 
       0.974128         210.411         50.1331 
       0.989692         206.324          48.382 
        1.00528         203.747          46.713 
        1.02113         201.665         45.0975 
        1.03692         196.995         43.5654 
        1.05264         193.011         42.1124 
        1.06832         189.791         40.7286 
        1.08405         186.924         39.4041 
        1.09979         184.495         38.1384 
        1.11537         181.093         36.9415 
        1.13105         177.643         35.7894 
        1.14679         177.788         34.6826 
        1.16256         174.735         33.6209 
        1.17828         171.442         32.6077 
        1.19395         168.551         31.6402 
         1.2097         168.312         30.7074 
        1.22537         164.728         29.8172 
          1.241         162.928         28.9653 
        1.25666         160.397          28.145 
        1.27241         157.323          27.353 
        1.28819          156.03         26.5904 
        1.30392         152.956         25.8595 
        1.31957         152.868         25.1596 
        1.33529         148.708         24.4834 
        1.35108         147.638         23.8296 
        1.36674          146.24         23.2047 
         1.3824         144.056         22.6029 
        1.39811         143.374         22.0208 
        1.41389         140.619         21.4571 
        1.42964         137.984         20.9144 
        1.44531         135.955         20.3933 
        1.46101          134.51          19.889 
        1.47667         132.709         19.4035 
        1.49229          131.01         18.9356 
        1.50793          129.93         18.4828 
        1.52367         128.603         18.0421 
        1.53953         125.964         17.6129 
        1.55526         124.837         17.2013 
        1.57092         123.401         16.8046 
        1.58662         121.572         16.4197 
        1.60235         120.614         16.0462 
        1.61809         118.596         15.6842 
        1.63369         117.304         15.3367 
        1.64941         116.303         14.9974 
        1.66519         114.357         14.6672 
        1.68085         113.649         14.3494 
        1.69652         111.148         14.0411 
        1.71228          110.92         13.7401 
        1.72806         109.721         13.4478 
        1.74368         108.434          13.167 
        1.75933         106.841         12.8938 
        1.77505         105.926         12.6271 
        1.79081         104.531         12.3676 
         1.8065         103.227         12.1165 
        1.82218          101.49         11.8727 
        1.83797         99.9977          11.634 
        1.85367         99.5216         11.4032 
        1.86928         98.2398         11.1802 
        1.88497         96.6752         10.9619 
        1.90073         96.1617         10.7488 
        1.91647         94.9547         10.5415 
        1.93218         93.7702         10.3402 
        1.94787         92.8811         10.1445 
        1.96363         91.5846         9.95315 
        1.97935         90.3994         9.76716 
        1.99499         89.7328         9.58703 
        2.01064         88.6678         9.41122 
         2.0264         87.2484         9.23876 
        2.04216         86.5092         9.07074 
        2.05781         85.3517           8.908 
        2.07353         84.0231         8.74872 
        2.08928         82.9961         8.59301 
        2.10499         82.0916         8.44155 
        2.12065         81.8372         8.29423 
        2.13633         80.8165         8.15032 
        2.15211         79.9447         8.00894 
        2.16785         78.7313         7.87133 
        2.18349         77.7654         7.73785 
        2.19916         76.9854         7.60721 
        2.21489         76.1599         7.47919 
        2.23063         75.4062         7.35405 
         2.2463         74.3232         7.23236 
        2.26194         74.2347         7.11375 
        2.27765         73.1565         6.99722 
        2.29341         72.1041         6.88302 
        2.30914         71.1944         6.77163 
        2.32486         70.4108         6.66278 
        2.34061         69.7638         6.55617 
        2.35635         68.9005         6.45201 
        2.37203         67.9311         6.35049 
        2.38768         67.2552         6.25138 
        2.40339         66.6558         6.15405 
        2.41914         65.9988         6.05858 
        2.43483         65.6784          5.9655 
         2.4505         64.8668         5.87454 
        2.46622         63.9261         5.78518 
        2.48195         63.4017         5.69769 
        2.49759         62.4298         5.61249 
        2.51328          61.971         5.52883 
        2.52906         61.4149         5.44636 
        2.54479          60.694          5.3659 
        2.56049         59.8541         5.28722 
        2.57618         59.5013         5.21021 
        2.59189         58.6283         5.13463 
        2.60758         58.4208         5.06068 
        2.62325         57.5296         4.98829 
        2.63898         57.0739         4.91707 
        2.65468         56.6483         4.84741 
        2.67044         55.6973         4.77881 
        2.68618         55.3083          4.7117 
        2.70184         54.6937         4.64617 
        2.71755         54.3618         4.58172 
        2.73329         53.4995         4.51842 
        2.74897         53.0692         4.45652 
        2.76462         52.3982         4.39593 
        2.78034         52.0007         4.33622 
        2.79607         51.3589         4.27757 
        2.81179         50.8131         4.22008 
        2.82749         50.1873         4.16372 
        2.84321          49.873         4.10834 
        2.85893         49.2299         4.05399 
        2.87462         48.6942         4.00072 
        2.89033         48.1631         3.94837 
        2.90605         47.7551         3.89692 
        2.92176         47.2819         3.84641 
        2.93747         46.8592         3.79684 
        2.95318         46.3005         3.74814 
        2.96891         45.7292         3.70027 
        2.98456         45.4699         3.65346 
        3.00023         44.9171          3.6074 
        3.01596         44.6656           3.562 
        3.03164         44.1001         3.51751 
        3.04738         43.8148         3.47366 
         3.0631         43.2901         3.43058 
        3.07883         42.8049         3.38823 
        3.09456         42.3542         3.34661 
        3.11026         41.8923         3.30576 
        3.12596         41.6781          3.2656 
        3.14163          41.081          3.2262 
        3.15734         40.5237         3.18737 
        3.17308         40.4761         3.14909 
        3.18879         40.1882         3.11155 
        3.20447          39.552         3.07468 
         3.2202         39.1511         3.03829 
         3.2359         38.7273         3.00257 
        3.25157         38.5051         2.96751 
        3.26729         37.9778          2.9329 
        3.28304         37.6471         2.89879 
        3.29877          37.385         2.86527 
        3.31446         37.0665         2.83235 
        3.33014         36.6669         2.79999 
        3.34585          36.372         2.76808 
        3.36158         35.9938         2.73663 
        3.37727         35.6097         2.70577 
        3.39294         35.3233         2.67541 
        3.40867         34.9423         2.64542 
        3.42439         34.6477         2.61591 
        3.44008         34.4817         2.58691 
        3.45578         33.9385         2.55833 
        3.47153         33.6577         2.53012 
        3.48724         33.3427         2.50239 
        3.50292         33.0846         2.47514 
        3.51859          32.756         2.44832 
        3.53431         32.5549         2.42181 
        3.55007         32.1821         2.39563 
        3.56577         31.9332         2.36995 
        3.58146         31.6897         2.34466 
        3.59719         31.2857         2.31968 
        3.61292         31.0889         2.29507 
        3.62859         30.7416         2.27092 
        3.64429          30.401         2.24707 
        3.66003         30.0782          2.2235 
        3.67578         29.9074         2.20027 
        3.69146         29.6435         2.17747 
        3.70712         29.4218         2.15503 
        3.72284         29.2692         2.13283 
        3.73853         28.8908         2.11098 
        3.75422         28.6037         2.08943 
        3.76993         28.3976         2.06817 
        3.78564         28.1343         2.04721 
        3.80137         27.9218         2.02651 
        3.81707         27.6834         2.00615 
        3.83279         27.4627         1.98605 
        3.84853         27.0947         1.96619 
        3.86424         26.8823         1.94665 
        3.87992         26.6632          1.9274 
        3.89561         26.4117         1.90841 
        3.91134          26.199         1.88965 
        3.92704         25.9631         1.87116 
        3.94273          25.745         1.85293 
        3.95845           25.42         1.83492 
        3.97418         25.3208         1.81715 
        3.98988         25.0929         1.79963 
        4.00554         24.8439          1.7824 
        4.02125         24.6931         1.76535 
        4.03698         24.4513         1.74849 
        4.05268         24.1954         1.73189 
        4.06839         24.0367          1.7155 
         4.0841         23.8405         1.69933 
        4.09983         23.6233         1.68334 
        4.11555         23.4484         1.66757 
        4.13124         23.1208         1.65205 
        4.14693         22.9564         1.63671 
        4.16266         22.7585         1.62153 
        4.17839         22.5969         1.60655 
        4.19408         22.4124          1.5918 
        4.20977         22.2953         1.57723 
        4.22551         22.0429         1.56281 
        4.24123         21.8997         1.54858 
        4.25691         21.6738         1.53458 
        4.27259         21.4878         1.52074 
        4.28831         21.3151         1.50704 
        4.30404         21.1209         1.49351 
        4.31974         20.9973         1.48017 
        4.33543         20.8053           1.467 
        4.35116         20.6538         1.45396 
        4.36688         20.4548         1.44109 
        4.38255         20.3086         1.42842 
        4.39825         20.1954         1.41587 
        4.41398         19.9882         1.40346 
         4.4297         19.7984         1.39121 
        4.44541         19.6624          1.3791 
        4.46111         19.5001         1.36715 
        4.47683         19.3308         1.35534 
        4.49251         19.2367         1.34369 
        4.50819         19.0378         1.33218 
         4.5239         18.8746         1.32079 
        4.53962         18.7009         1.30952 
        4.55535         18.5588         1.29837 
        4.57106         18.4727         1.28738 
        4.58678         18.2915         1.27651 
         4.6025         18.1682         1.26576 
        4.61821         17.9936         1.25514 
        4.63391         17.8513         1.24466 
         4.6496         17.7079          1.2343 
        4.66532          17.551         1.22404 
        4.68103          17.425         1.21391 
        4.69673          17.298          1.2039 
        4.71241         17.1982         1.19401 
        4.72811         17.0095         1.18422 
        4.74384         16.8846         1.17453 
        4.75955         16.7666         1.16497 
        4.77525          16.684         1.15551 
        4.79096         16.5117         1.14615 
        4.80669          16.393         1.13689 
         4.8224         16.2507         1.12774 
        4.83809         16.1261         1.11871 
        4.85379         15.9722         1.10976 
         4.8695         15.8882         1.10091 
        4.88521          15.787         1.09216 
        4.90093         15.6463         1.08351 
        4.91663         15.5289         1.07495 
        4.93234         15.4372         1.06649 
        4.94807         15.2978          1.0581 
        4.96377          15.176         1.04983 
        4.97943          15.052         1.04166 
        4.99514         14.9262         1.03355 
        5.01086         14.8489         1.02553 
        5.02654         14.6964         1.01761 
        5.04227         14.6405         1.00976 
          5.058         14.4829         1.00198 
        5.07371         14.4133        0.994306 
        5.08942         14.2757        0.986708 
        5.10513         14.1713        0.979189 
        5.12084         14.0671        0.971745 
        5.13656         13.9736        0.964381 
        5.15225          13.847        0.957107 
        5.16796          13.766        0.949896 
        5.18369         13.6491        0.942753 
         5.1994         13.5743        0.935698 
        5.21509         13.4629        0.928721 
        5.23079         13.3515        0.921808 
        5.24649          13.247        0.914971 
        5.26217          13.157        0.908209 
        5.27788         13.0421        0.901506 
        5.29359         12.9809         0.89487 
        5.30933         12.8826        0.888292 
        5.32504         12.8336        0.881791 
        5.34073         12.6873        0.875363 
        5.35646         12.6077        0.868987 
        5.37218         12.5139        0.862673 
        5.38789         12.4241        0.856433 
        5.40357         12.3574        0.850262 
        5.41929         12.2346        0.844138 
        5.43502          12.174        0.838075 
         5.4507         12.0844        0.832086 
        5.46639         11.9955        0.826156 
        5.48212         11.9284        0.820269 
        5.49786         11.8365        0.814434 
        5.51353         11.7641        0.808684 
        5.52921         11.6667        0.802985 
        5.54495         11.5832        0.797324 
        5.56066         11.4715        0.791724 
        5.57637         11.4069        0.786179 
        5.59207         11.3286        0.780693 
        5.60778         11.2446        0.775257 
        5.62346         11.1912        0.769881 
        5.63916         11.0994        0.764552 
        5.65487         11.0185         0.75927 
         5.6706         10.9484        0.754032 
        5.68633         10.8611        0.748843 
        5.70203         10.8027        0.743713 
        5.71773         10.7418        0.738632 
        5.73344          10.636        0.733597 
        5.74916         10.6007        0.728604 
        5.76486         10.4918        0.723664 
        5.78054         10.4288        0.718779 
        5.79626         10.3533        0.713925 
          5.812         10.3027        0.709112 
         5.8277          10.216        0.704357 
        5.84339         10.1594        0.699646 
        5.85911         10.0828         0.69497 
        5.87484         10.0122        0.690337 
        5.89053         9.93717        0.685756 
        5.90623         9.85909        0.681215 
        5.92195         9.81367        0.676707 
        5.93767         9.75167        0.672243 
        5.95336         9.67796        0.667827 
        5.96905         9.62514        0.663453 
        5.98476         9.55784        0.659112 
        6.00048         9.49373        0.654808 
        6.01617         9.43405        0.650549 
        6.03185         9.35857        0.646334 
        6.04756         9.29264        0.642145 
        6.06331         9.24067        0.637986 
        6.07903         9.19476        0.633872 
        6.09473         9.11586        0.629798 
        6.11044         9.06141        0.625757 
        6.12616         9.00336        0.621752 
        6.14186         8.93176        0.617787 
        6.15755         8.86382        0.613856 
        6.17326         8.81309        0.609957 
        6.18898          8.7667        0.606091 
        6.20467         8.70217        0.602265 
        6.22036         8.64302        0.598472 
         6.2361         8.59302        0.594702 
         6.2518         8.52427        0.590971 
        6.26748          8.4836        0.587281 
        6.28319         8.42595        0.583612 
        6.29893          8.3713        0.579971 
        6.31463         8.31484        0.576368 
        6.33033         8.26496        0.572797 
        6.34604         8.21337        0.569254 
        6.36177         8.16502        0.565737 
        6.37747         8.10326        0.562257 
