# k  (h/Mpc)    Pcb(k)  (Mpc/h)^3    Pcb_linear(k) (Mpc/h)^3   ShotnoiseSubtracted = true
      0.0200456         2360.22         2393.92 
      0.0350414         1672.51          1643.7 
      0.0492313         1135.96         1131.41 
      0.0637834         934.237         944.532 
      0.0800726         759.975         776.298 
       0.096163         559.974         548.389 
       0.111083          431.86         417.804 
       0.126058         373.054         374.584 
       0.142273         327.937         331.519 
       0.158546         263.054         259.713 
        0.17375         217.319         209.708 
       0.188953         195.462         189.642 
       0.204907          172.43         174.288 
       0.220756         152.487         148.868 
        0.23588         130.381          125.83 
         0.2514         116.714         112.793 
       0.267535         109.606         104.399 
       0.283568         97.3556         93.5729 
       0.299022         88.0452         82.3149 
       0.314451         82.1056         74.2029 
       0.330372         73.7728         68.6544 
       0.346141         67.9697           63.19 
       0.361624           62.34         57.3373 
       0.377134         56.7255         52.2863 
       0.392932         54.7782         48.4162 
       0.408854         50.2221         45.0105 
       0.424564         47.9237         41.6122 
       0.440253         43.6279         38.4352 
       0.455999         39.8393         35.7666 
       0.471626         37.7809          33.484 
        0.48727         36.6564         31.3215 
       0.502856         34.2307         29.2767 
       0.518488         31.9317         27.4304 
       0.534347          30.025         25.7811 
       0.550082         28.8693         24.2766 
       0.565732         27.7379         22.8714 
       0.581496         26.0578         21.5596 
       0.597222         24.6384         20.3729 
       0.612804         23.4047         19.2925 
       0.628434         22.9367          18.283 
       0.644267         21.6959         17.3271 
       0.660051         20.5903         16.4447 
       0.675724         19.5968         15.6349 
       0.691403          19.165         14.8805 
       0.707174         18.3269         14.1716 
       0.722871          17.753         13.5117 
        0.73838         16.7852         12.9011 
       0.754018         15.9361         12.3236 
       0.769845         15.4763         11.7754 
        0.78569         15.0211         11.2601 
       0.801365         14.4207         10.7809 
       0.817031         13.9007         10.3303 
       0.832809         13.4143         9.90276 
       0.848511          13.012          9.5017 
       0.864097         12.5539         9.12594 
       0.879701         12.3287         8.77044 
       0.895507         11.8688         8.42996 
       0.911279         11.3739         8.10852 
        0.92691         11.1189         7.80674 
       0.942635         10.8091         7.51887 
       0.958396         10.4375         7.24511 
       0.974128         10.1898         6.98566 
       0.989692         9.70881         6.74165 
        1.00528         9.63013         6.50909 
        1.02113          9.3023         6.28399 
        1.03692         9.08897          6.0705 
        1.05264          8.8384         5.86803 
        1.06832         8.63847         5.67522 
        1.08405           8.413         5.49066 
        1.09979         8.19472         5.31429 
        1.11537         7.98544         5.14751 
        1.13105          7.8104         4.98697 
        1.14679         7.64149         4.83274 
        1.16256          7.4407         4.68481 
        1.17828         7.30002         4.54363 
        1.19395         7.11334         4.40881 
         1.2097         6.89218         4.27883 
        1.22537         6.75199         4.15479 
          1.241         6.58049         4.03609 
        1.25666         6.55537         3.92178 
        1.27241         6.40382         3.81142 
        1.28819         6.14483         3.70517 
        1.30392         6.07334         3.60332 
        1.31957         5.94281          3.5058 
        1.33529         5.83204         3.41157 
        1.35108         5.70876         3.32047 
        1.36674         5.56279         3.23339 
         1.3824         5.50403         3.14954 
        1.39811         5.38904         3.06842 
        1.41389         5.25482         2.98988 
        1.42964         5.18059         2.91426 
        1.44531         5.08153         2.84164 
        1.46101         5.02432         2.77138 
        1.47667         4.90821         2.70372 
        1.49229         4.76797         2.63853 
        1.50793         4.69635         2.57544 
        1.52367         4.60486         2.51402 
        1.53953         4.52667         2.45422 
        1.55526         4.50269         2.39686 
        1.57092         4.39266         2.34159 
        1.58662         4.33046         2.28795 
        1.60235         4.25619         2.23591 
        1.61809         4.18347         2.18547 
        1.63369         4.10512         2.13705 
        1.64941         4.03737         2.08977 
        1.66519         3.99256         2.04376 
        1.68085         3.91533         1.99948 
        1.69652          3.8635         1.95651 
        1.71228         3.81293         1.91457 
        1.72806         3.74828         1.87385 
        1.74368         3.69696         1.83472 
        1.75933         3.63939         1.79665 
        1.77505         3.56874         1.75949 
        1.79081         3.53411         1.72332 
         1.8065         3.48952         1.68834 
        1.82218         3.42565         1.65437 
        1.83797         3.36515          1.6211 
        1.85367         3.31822         1.58895 
        1.86928         3.29366         1.55787 
        1.88497         3.22068         1.52746 
        1.90073         3.19452         1.49775 
        1.91647         3.14346         1.46888 
        1.93218         3.10296         1.44083 
        1.94787         3.06695         1.41356 
        1.96363         3.02931         1.38689 
        1.97935         2.98407         1.36098 
        1.99499         2.94903         1.33588 
        2.01064         2.91461         1.31138 
         2.0264         2.86842         1.28735 
        2.04216         2.83199         1.26394 
        2.05781         2.79736         1.24126 
        2.07353          2.7759         1.21906 
        2.08928         2.73011         1.19737 
        2.10499         2.68794         1.17626 
        2.12065         2.68595         1.15573 
        2.13633         2.64086         1.13568 
        2.15211         2.59429         1.11598 
        2.16785         2.57305         1.09681 
        2.18349          2.5427         1.07821 
        2.19916         2.52093         1.06001 
        2.21489         2.49536         1.04217 
        2.23063         2.45039         1.02473 
         2.2463         2.41864         1.00777 
        2.26194         2.39755        0.991245 
        2.27765         2.34841        0.975007 
        2.29341         2.33515        0.959095 
        2.30914          2.3075        0.943573 
        2.32486         2.30221        0.928406 
        2.34061         2.26968        0.913551 
        2.35635         2.24447        0.899036 
        2.37203         2.23007         0.88489 
        2.38768         2.20507        0.871081 
        2.40339         2.16936        0.857518 
        2.41914         2.14931        0.844216 
        2.43483         2.12703        0.831245 
         2.4505         2.10667        0.818571 
        2.46622         2.08102        0.806119 
        2.48195         2.06702        0.793928 
        2.49759         2.04029        0.782057 
        2.51328         2.02551        0.770399 
        2.52906         2.00566        0.758908 
        2.54479          1.9817        0.747695 
        2.56049         1.96496        0.736733 
        2.57618         1.94516        0.726002 
        2.59189         1.93452        0.715471 
        2.60758          1.9131        0.705166 
        2.62325         1.88368        0.695079 
        2.63898         1.86532        0.685156 
        2.65468          1.8464        0.675448 
        2.67044         1.84152        0.665889 
        2.68618         1.82179        0.656539 
        2.70184         1.80627        0.647407 
        2.71755         1.78844        0.638427 
        2.73329         1.76448        0.629606 
        2.74897          1.7548        0.620981 
        2.76462         1.73877        0.612538 
        2.78034           1.732        0.604218 
        2.79607         1.70871        0.596046 
        2.81179         1.69469        0.588035 
        2.82749         1.67838        0.580182 
        2.84321         1.66482        0.572465 
        2.85893         1.64922        0.564891 
        2.87462         1.64261        0.557469 
        2.89033         1.62488        0.550174 
        2.90605         1.61389        0.543005 
        2.92176         1.59894        0.535968 
        2.93747          1.5855         0.52906 
        2.95318         1.57056        0.522273 
        2.96891         1.56554        0.515604 
        2.98456         1.54886        0.509081 
        3.00023         1.53436        0.502663 
        3.01596         1.51722        0.496336 
        3.03164         1.50887        0.490137 
        3.04738         1.50062        0.484027 
         3.0631         1.48668        0.478024 
        3.07883          1.4761        0.472123 
        3.09456         1.46141        0.466324 
        3.11026         1.45595        0.460631 
        3.12596         1.43959        0.455035 
        3.14163         1.43236        0.449546 
        3.15734         1.41795        0.444135 
        3.17308         1.41204        0.438801 
        3.18879         1.40286         0.43357 
        3.20447         1.38547        0.428432 
         3.2202         1.38367        0.423362 
         3.2359         1.36869        0.418384 
        3.25157         1.35699        0.413499 
        3.26729         1.35004        0.408677 
        3.28304         1.34028        0.403923 
        3.29877         1.32798        0.399252 
        3.31446         1.32445        0.394666 
        3.33014         1.30676        0.390156 
        3.34585         1.30126         0.38571 
        3.36158         1.29313        0.381328 
        3.37727         1.28876        0.377027 
        3.39294         1.27454        0.372798 
        3.40867         1.27092        0.368619 
        3.42439         1.26166        0.364506 
        3.44008         1.25238        0.360465 
        3.45578         1.24224        0.356483 
        3.47153         1.23494        0.352552 
        3.48724         1.22606        0.348688 
        3.50292         1.21412        0.344892 
        3.51859         1.21592        0.341154 
        3.53431         1.20131         0.33746 
        3.55007         1.19892        0.333813 
        3.56577         1.18863        0.330234 
        3.58146         1.18366        0.326709 
        3.59719         1.17356        0.323229 
        3.61292         1.16725          0.3198 
        3.62859         1.15904        0.316435 
        3.64429         1.15133        0.313112 
        3.66003         1.14409        0.309827 
        3.67578         1.13742         0.30659 
        3.69146         1.13046        0.303413 
        3.70712         1.12242        0.300286 
        3.72284         1.11762        0.297193 
        3.73853         1.10899        0.294148 
        3.75422         1.10403        0.291146 
        3.76993         1.09583        0.288183 
        3.78564         1.08769        0.285263 
        3.80137         1.08307        0.282379 
        3.81707         1.07517        0.279541 
        3.83279         1.07125         0.27674 
        3.84853         1.06407        0.273973 
        3.86424         1.05454         0.27125 
        3.87992         1.05348        0.268568 
        3.89561         1.04417        0.265922 
        3.91134         1.03983        0.263307 
        3.92704         1.03191        0.260731 
        3.94273         1.02843        0.258192 
        3.95845         1.01827        0.255682 
        3.97418         1.01428        0.253205 
        3.98988         1.00951        0.250765 
        4.00554         1.00108        0.248363 
        4.02125        0.994527        0.245987 
        4.03698        0.986835        0.243638 
        4.05268        0.980554        0.241326 
        4.06839         0.97207        0.239041 
         4.0841         0.96669        0.236788 
        4.09983        0.960877         0.23456 
        4.11555        0.954602        0.232363 
        4.13124        0.945373        0.230199 
        4.14693        0.941979        0.228062 
        4.16266        0.934393        0.225947 
        4.17839        0.926843         0.22386 
        4.19408         0.92275        0.221805 
        4.20977        0.916896        0.219775 
        4.22551        0.912387        0.217765 
        4.24123        0.904324        0.215783 
        4.25691        0.897725        0.213831 
        4.27259        0.893445        0.211903 
        4.28831        0.890766        0.209995 
        4.30404        0.885039        0.208108 
        4.31974        0.876731         0.20625 
        4.33543        0.871808        0.204415 
        4.35116        0.866962        0.202598 
        4.36688        0.861483        0.200804 
        4.38255        0.857494        0.199039 
        4.39825        0.855349        0.197291 
        4.41398        0.848383        0.195561 
         4.4297        0.846648        0.193854 
        4.44541         0.83972        0.192167 
        4.46111        0.835007        0.190502 
        4.47683        0.831913        0.188856 
        4.49251        0.827483        0.187232 
        4.50819        0.823504        0.185628 
         4.5239         0.81954        0.184041 
        4.53962        0.812165        0.182471 
        4.55535        0.812251        0.180918 
        4.57106        0.806169        0.179386 
        4.58678        0.805732        0.177871 
         4.6025        0.800508        0.176374 
        4.61821        0.798542        0.174894 
        4.63391         0.79595        0.173433 
         4.6496         0.78931         0.17199 
        4.66532        0.787739        0.170561 
        4.68103        0.783964        0.169149 
        4.69673        0.780384        0.167754 
        4.71241        0.778557        0.166376 
        4.72811         0.77503        0.165012 
        4.74384        0.773861        0.163662 
        4.75955        0.769907        0.162329 
        4.77525        0.765831        0.161011 
        4.79096        0.764252        0.159707 
        4.80669         0.76204        0.158416 
         4.8224        0.756728        0.157142 
        4.83809        0.756321        0.155883 
        4.85379        0.752979        0.154637 
         4.8695         0.75066        0.153403 
        4.88521        0.747884        0.152184 
        4.90093        0.746215        0.150978 
        4.91663        0.743179        0.149786 
        4.93234        0.740273        0.148606 
        4.94807         0.73934        0.147438 
        4.96377         0.73933        0.146285 
        4.97943        0.736481        0.145147 
        4.99514        0.733145        0.144018 
        5.01086        0.730133          0.1429 
        5.02654        0.730528        0.141797 
        5.04227        0.725758        0.140702 
          5.058        0.725572        0.139618 
        5.07371        0.723585        0.138549 
        5.08942         0.72264         0.13749 
        5.10513        0.721469        0.136442 
        5.12084        0.717918        0.135405 
        5.13656        0.716994        0.134379 
        5.15225        0.714887        0.133365 
        5.16796        0.713624         0.13236 
        5.18369        0.711575        0.131365 
         5.1994        0.711599        0.130382 
        5.21509        0.709668         0.12941 
        5.23079        0.708553        0.128447 
        5.24649        0.707111        0.127494 
        5.26217        0.707871        0.126552 
        5.27788        0.705013        0.125618 
        5.29359        0.704374        0.124693 
        5.30933        0.703865        0.123776 
        5.32504        0.700866        0.122871 
        5.34073        0.700526        0.121975 
        5.35646        0.700197        0.121086 
        5.37218        0.697891        0.120207 
        5.38789        0.697137        0.119337 
        5.40357        0.697274        0.118477 
        5.41929        0.696341        0.117624 
        5.43502        0.695119        0.116779 
         5.4507        0.692084        0.115945 
        5.46639          0.6939        0.115118 
        5.48212        0.691701        0.114298 
        5.49786        0.693148        0.113485 
        5.51353        0.692633        0.112684 
        5.52921        0.690889         0.11189 
        5.54495        0.688758        0.111101 
        5.56066        0.690077        0.110321 
        5.57637        0.689986        0.109548 
        5.59207        0.688738        0.108783 
        5.60778        0.687661        0.108026 
        5.62346        0.686688        0.107277 
        5.63916        0.687211        0.106534 
        5.65487        0.683513        0.105798 
         5.6706         0.68426        0.105068 
        5.68633        0.683802        0.104345 
        5.70203        0.683751        0.103631 
        5.71773         0.68462        0.102923 
        5.73344        0.682114        0.102221 
        5.74916        0.682719        0.101525 
        5.76486        0.682538        0.100837 
        5.78054        0.681653        0.100156 
        5.79626        0.681947       0.0994798 
          5.812        0.680068       0.0988091 
         5.8277         0.67986       0.0981466 
        5.84339        0.681012       0.0974902 
        5.85911        0.680365       0.0968385 
        5.87484        0.679626        0.096193 
        5.89053        0.678585       0.0955547 
        5.90623        0.678575       0.0949219 
        5.92195        0.677812       0.0942938 
        5.93767        0.678689       0.0936718 
        5.95336        0.678847       0.0930565 
        5.96905        0.676931       0.0924469 
        5.98476         0.67547        0.091842 
        6.00048        0.676798       0.0912424 
        6.01617        0.676191       0.0906489 
        6.03185        0.674506       0.0900615 
        6.04756        0.676651       0.0894779 
        6.06331        0.676678       0.0888983 
        6.07903        0.677043        0.088325 
        6.09473        0.674704       0.0877574 
        6.11044        0.674115       0.0871943 
        6.12616        0.674901       0.0866363 
        6.14186        0.673991       0.0860837 
        6.15755        0.674557       0.0855361 
        6.17326        0.672893       0.0849928 
        6.18898         0.67309        0.084454 
        6.20467        0.674195       0.0839208 
        6.22036        0.674176       0.0833924 
         6.2361        0.672583       0.0828671 
         6.2518        0.672527       0.0823472 
        6.26748        0.671547       0.0818329 
        6.28319        0.671843       0.0813217 
        6.29893        0.673045       0.0808144 
        6.31463        0.671252       0.0803123 
        6.33033        0.670934       0.0798147 
        6.34604        0.672404        0.079321 
        6.36177         0.67031        0.078831 
        6.37747        0.671596       0.0783461 
