# k  (h/Mpc)    Pcb(k)  (Mpc/h)^3    Pcb_linear(k) (Mpc/h)^3   ShotnoiseSubtracted = true
      0.0200456         50.3351         51.0652 
      0.0350414         35.1861         35.0621 
      0.0492313         24.2896         24.1343 
      0.0637834         20.2524          20.148 
      0.0800726         16.5069         16.5594 
       0.096163         11.7448         11.6978 
       0.111083         8.96718         8.91228 
       0.126058         7.99718         7.99034 
       0.142273         7.04711         7.07172 
       0.158546         5.55969         5.53999 
        0.17375         4.48881         4.47333 
       0.188953           4.049         4.04531 
       0.204907         3.72658         3.71778 
       0.220756         3.18037         3.17553 
        0.23588         2.69643         2.68411 
         0.2514         2.40952         2.40602 
       0.267535         2.22361         2.22695 
       0.283568         1.99525         1.99603 
       0.299022         1.76058         1.75588 
       0.314451         1.57932         1.58284 
       0.330372         1.46239         1.46448 
       0.346141         1.34563         1.34792 
       0.361624         1.22385         1.22308 
       0.377134         1.11817         1.11533 
       0.392932         1.02563         1.03278 
       0.408854        0.960505         0.96013 
       0.424564        0.884705        0.887641 
       0.440253        0.818923        0.819869 
       0.455999         0.76403        0.762947 
       0.471626        0.715417        0.714255 
        0.48727        0.666642        0.668127 
       0.502856         0.62228        0.624508 
       0.518488        0.586653        0.585125 
       0.534347        0.552985        0.549942 
       0.550082        0.516509         0.51785 
       0.565732        0.483777        0.487875 
       0.581496        0.459425        0.459893 
       0.597222         0.43455        0.434579 
       0.612804        0.410678        0.411533 
       0.628434        0.390665            0.39 
       0.644267        0.368984        0.369608 
       0.660051        0.349471        0.350786 
       0.675724        0.333175        0.333512 
       0.691403        0.317528        0.317419 
       0.707174        0.301728        0.302297 
       0.722871        0.286552        0.288222 
        0.73838        0.275053        0.275196 
       0.754018        0.263284        0.262878 
       0.769845        0.251459        0.251183 
        0.78569        0.240008        0.240192 
       0.801365         0.22928        0.229971 
       0.817031        0.219985        0.220357 
       0.832809        0.210875        0.211238 
       0.848511        0.202091        0.202683 
       0.864097        0.193537        0.194668 
       0.879701        0.185732        0.187084 
       0.895507         0.17963        0.179821 
       0.911279        0.172506        0.172965 
        0.92691        0.165647        0.166527 
       0.942635        0.159885        0.160387 
       0.958396        0.153694        0.154547 
       0.974128        0.148159        0.149013 
       0.989692        0.143155        0.143808 
        1.00528        0.138502        0.138847 
        1.02113        0.132884        0.134045 
        1.03692        0.128629        0.129491 
        1.05264        0.124446        0.125172 
        1.06832        0.120406        0.121059 
        1.08405        0.116205        0.117122 
        1.09979         0.11235         0.11336 
        1.11537        0.109437        0.109803 
        1.13105        0.105829        0.106378 
        1.14679        0.102761        0.103088 
        1.16256       0.0989969       0.0999328 
        1.17828       0.0959925       0.0969212 
        1.19395       0.0930706       0.0940453 
         1.2097       0.0903266       0.0912728 
        1.22537        0.088128       0.0886267 
          1.241       0.0853884       0.0860948 
        1.25666       0.0831273       0.0836565 
        1.27241       0.0806076       0.0813023 
        1.28819       0.0783602       0.0790358 
        1.30392       0.0760462       0.0768633 
        1.31957        0.074111        0.074783 
        1.33529       0.0719144        0.072773 
        1.35108       0.0700988       0.0708297 
        1.36674       0.0679043       0.0689722 
         1.3824       0.0666423       0.0671836 
        1.39811       0.0646946       0.0654533 
        1.41389        0.063005       0.0637779 
        1.42964       0.0616113       0.0621647 
        1.44531       0.0597925       0.0606158 
        1.46101       0.0583667       0.0591169 
        1.47667        0.056816       0.0576737 
        1.49229       0.0555368       0.0562831 
        1.50793       0.0540694       0.0549373 
        1.52367       0.0528433       0.0536272 
        1.53953       0.0517458       0.0523516 
        1.55526       0.0504455        0.051128 
        1.57092       0.0490025        0.049949 
        1.58662       0.0480797       0.0488048 
        1.60235       0.0471395       0.0476946 
        1.61809       0.0457185       0.0466187 
        1.63369       0.0448456       0.0455859 
        1.64941       0.0440022       0.0445774 
        1.66519       0.0428596        0.043596 
        1.68085       0.0418791       0.0426514 
        1.69652       0.0408952       0.0417348 
        1.71228       0.0402007       0.0408403 
        1.72806       0.0391202       0.0399714 
        1.74368       0.0383971       0.0391369 
        1.75933       0.0376137       0.0383247 
        1.77505        0.036775        0.037532 
        1.79081       0.0360665       0.0367606 
         1.8065       0.0351836       0.0360143 
        1.82218       0.0345784       0.0352897 
        1.83797       0.0338445       0.0345802 
        1.85367       0.0331482       0.0338943 
        1.86928       0.0325784       0.0332313 
        1.88497       0.0319528       0.0325826 
        1.90073       0.0312795        0.031949 
        1.91647       0.0305574       0.0313329 
        1.93218       0.0299996       0.0307346 
        1.94787       0.0293842       0.0301529 
        1.96363       0.0289056       0.0295841 
        1.97935       0.0282844       0.0290313 
        1.99499       0.0277749       0.0284959 
        2.01064       0.0273415       0.0279733 
         2.0264       0.0268381       0.0274607 
        2.04216       0.0262298       0.0269613 
        2.05781       0.0258185       0.0264776 
        2.07353       0.0252268       0.0260042 
        2.08928       0.0248686       0.0255414 
        2.10499       0.0242916       0.0250912 
        2.12065       0.0239928       0.0246533 
        2.13633       0.0235025       0.0242255 
        2.15211       0.0231719       0.0238053 
        2.16785        0.022745       0.0233963 
        2.18349       0.0222308       0.0229995 
        2.19916       0.0220116       0.0226112 
        2.21489       0.0216383       0.0222307 
        2.23063        0.021222       0.0218587 
         2.2463       0.0207678        0.021497 
        2.26194       0.0204462       0.0211445 
        2.27765       0.0201274       0.0207981 
        2.29341       0.0198339       0.0204587 
        2.30914       0.0194754       0.0201276 
        2.32486       0.0191426       0.0198041 
        2.34061       0.0188494       0.0194872 
        2.35635       0.0185083       0.0191776 
        2.37203       0.0182043       0.0188758 
        2.38768       0.0178911       0.0185812 
        2.40339       0.0176108       0.0182919 
        2.41914       0.0173633       0.0180082 
        2.43483       0.0170267       0.0177315 
         2.4505       0.0167977       0.0174611 
        2.46622       0.0165434       0.0171955 
        2.48195       0.0162571       0.0169355 
        2.49759       0.0160238       0.0166822 
        2.51328       0.0158154       0.0164336 
        2.52906       0.0155854       0.0161884 
        2.54479       0.0153505       0.0159493 
        2.56049       0.0151038       0.0157154 
        2.57618        0.014876       0.0154865 
        2.59189       0.0146524       0.0152619 
        2.60758       0.0144275       0.0150421 
        2.62325       0.0142243       0.0148269 
        2.63898           0.014       0.0146152 
        2.65468       0.0137966       0.0144082 
        2.67044       0.0136277       0.0142042 
        2.68618       0.0134181       0.0140048 
        2.70184       0.0132022         0.01381 
        2.71755       0.0129831       0.0136184 
        2.73329       0.0128123       0.0134303 
        2.74897       0.0126684       0.0132463 
        2.76462       0.0124623       0.0130662 
        2.78034        0.012288       0.0128887 
        2.79607       0.0121294       0.0127144 
        2.81179         0.01196       0.0125435 
        2.82749       0.0117788        0.012376 
        2.84321       0.0116312       0.0122114 
        2.85893       0.0114527       0.0120498 
        2.87462       0.0112988       0.0118915 
        2.89033       0.0111912       0.0117359 
        2.90605       0.0110044        0.011583 
        2.92176       0.0108859       0.0114329 
        2.93747       0.0107162       0.0112855 
        2.95318       0.0105768       0.0111407 
        2.96891       0.0104486       0.0109985 
        2.98456       0.0103427       0.0108593 
        3.00023       0.0101721       0.0107224 
        3.01596       0.0100031       0.0105875 
        3.03164      0.00993992       0.0104552 
        3.04738      0.00978649       0.0103249 
         3.0631      0.00962476       0.0101968 
        3.07883      0.00951471        0.010071 
        3.09456      0.00943848      0.00994726 
        3.11026      0.00928518      0.00982583 
        3.12596      0.00919268      0.00970646 
        3.14163      0.00905879      0.00958937 
        3.15734      0.00894821      0.00947395 
        3.17308      0.00882597      0.00936016 
        3.18879       0.0087499      0.00924857 
        3.20447      0.00863944      0.00913898 
         3.2202      0.00853443      0.00903084 
         3.2359      0.00842794      0.00892465 
        3.25157      0.00831667      0.00882044 
        3.26729      0.00825045      0.00871759 
        3.28304      0.00812428      0.00861619 
        3.29877      0.00804177      0.00851655 
        3.31446      0.00794271      0.00841871 
        3.33014      0.00782893      0.00832251 
        3.34585      0.00772942      0.00822768 
        3.36158      0.00765203      0.00813419 
        3.37727      0.00758596      0.00804246 
        3.39294      0.00750068      0.00795224 
        3.40867      0.00743219      0.00786309 
        3.42439       0.0073302      0.00777537 
        3.44008      0.00724479      0.00768917 
        3.45578      0.00716336      0.00760422 
        3.47153      0.00708603      0.00752037 
        3.48724      0.00703084      0.00743795 
        3.50292      0.00690776      0.00735696 
        3.51859      0.00684948      0.00727723 
        3.53431      0.00678574      0.00719844 
        3.55007      0.00673548      0.00712064 
        3.56577      0.00667241       0.0070443 
        3.58146      0.00655422      0.00696912 
        3.59719      0.00650236      0.00689487 
        3.61292      0.00642479      0.00682174 
        3.62859      0.00637339      0.00674995 
        3.64429      0.00630388      0.00667906 
        3.66003      0.00624865      0.00660899 
        3.67578      0.00617555      0.00653995 
        3.69146      0.00611288      0.00647217 
        3.70712       0.0060571      0.00640548 
        3.72284       0.0059897      0.00633949 
        3.73853      0.00592856      0.00627455 
        3.75422      0.00588711       0.0062105 
        3.76993      0.00581977       0.0061473 
        3.78564      0.00578904      0.00608501 
        3.80137      0.00573096      0.00602349 
        3.81707       0.0056527      0.00596295 
        3.83279       0.0056066       0.0059032 
        3.84853      0.00555849      0.00584418 
        3.86424      0.00549654       0.0057861 
        3.87992      0.00545214      0.00572889 
        3.89561      0.00540525      0.00567245 
        3.91134      0.00536865      0.00561667 
        3.92704      0.00529955      0.00556171 
        3.94273      0.00528005      0.00550755 
        3.95845      0.00520646      0.00545401 
        3.97418      0.00516221      0.00540118 
        3.98988      0.00514097      0.00534912 
        4.00554      0.00506429       0.0052979 
        4.02125      0.00500296      0.00524721 
        4.03698      0.00495525       0.0051971 
        4.05268      0.00489076      0.00514777 
        4.06839      0.00483264      0.00509905 
         4.0841      0.00476754      0.00505098 
        4.09983      0.00471773      0.00500347 
        4.11555      0.00466321      0.00495659 
        4.13124      0.00460699      0.00491044 
        4.14693      0.00456607      0.00486485 
        4.16266      0.00449907      0.00481973 
        4.17839        0.004453      0.00477522 
        4.19408      0.00440597      0.00473138 
        4.20977      0.00437748      0.00468807 
        4.22551      0.00433296       0.0046452 
        4.24123      0.00428602      0.00460292 
        4.25691       0.0042397      0.00456128 
        4.27259      0.00420955      0.00452015 
        4.28831      0.00418538      0.00447945 
        4.30404      0.00414129      0.00443921 
        4.31974      0.00410003      0.00439956 
        4.33543      0.00407112      0.00436042 
        4.35116      0.00404326      0.00432166 
        4.36688      0.00401115       0.0042834 
        4.38255      0.00399498      0.00424574 
        4.39825      0.00397351      0.00420846 
        4.41398      0.00395119      0.00417155 
         4.4297      0.00393031      0.00413514 
        4.44541      0.00391504      0.00409916 
        4.46111      0.00388655      0.00406364 
        4.47683      0.00388199      0.00402852 
        4.49251      0.00385516       0.0039939 
        4.50819      0.00384896      0.00395969 
         4.5239      0.00384445      0.00392583 
        4.53962      0.00383127      0.00389233 
        4.55535       0.0038184      0.00385921 
        4.57106      0.00382674      0.00382653 
        4.58678      0.00381142      0.00379421 
         4.6025      0.00381659      0.00376227 
        4.61821      0.00381487      0.00373071 
        4.63391       0.0038075      0.00369954 
         4.6496      0.00381909      0.00366875 
        4.66532      0.00380914      0.00363827 
        4.68103      0.00381885      0.00360815 
        4.69673      0.00381383       0.0035784 
        4.71241      0.00383975      0.00354902 
        4.72811      0.00384808      0.00351992 
        4.74384      0.00385329      0.00349111 
        4.75955      0.00387366      0.00346267 
        4.77525      0.00388725      0.00343457 
        4.79096      0.00390123      0.00340675 
        4.80669      0.00391602      0.00337922 
         4.8224      0.00393166      0.00335203 
        4.83809      0.00394734      0.00332517 
        4.85379       0.0039937      0.00329859 
         4.8695      0.00401372      0.00327229 
        4.88521      0.00401555      0.00324628 
        4.90093      0.00405829      0.00322055 
        4.91663      0.00409354      0.00319513 
        4.93234       0.0041116      0.00316996 
        4.94807      0.00416382      0.00314504 
        4.96377      0.00421344      0.00312044 
        4.97943      0.00424166      0.00309616 
        4.99514      0.00427644      0.00307207 
        5.01086      0.00429724      0.00304823 
        5.02654      0.00435387       0.0030247 
        5.04227      0.00438603      0.00300135 
          5.058      0.00445265      0.00297824 
        5.07371       0.0045183      0.00295541 
        5.08942      0.00456194      0.00293283 
        5.10513      0.00458898      0.00291048 
        5.12084      0.00466713      0.00288836 
        5.13656        0.004702      0.00286647 
        5.15225      0.00477548      0.00284485 
        5.16796      0.00484149      0.00282341 
        5.18369      0.00491341      0.00280218 
         5.1994      0.00499728      0.00278121 
        5.21509      0.00504224      0.00276047 
        5.23079      0.00509669      0.00273993 
        5.24649      0.00520594      0.00271961 
        5.26217      0.00527201      0.00269951 
        5.27788      0.00534997      0.00267958 
        5.29359      0.00545147      0.00265986 
        5.30933      0.00552087       0.0026403 
        5.32504      0.00560955      0.00262098 
        5.34073       0.0057274      0.00260188 
        5.35646      0.00580836      0.00258292 
        5.37218      0.00587698      0.00256416 
        5.38789      0.00597267      0.00254561 
        5.40357      0.00609226      0.00252727 
        5.41929      0.00618542      0.00250907 
        5.43502      0.00631352      0.00249104 
         5.4507      0.00644427      0.00247324 
        5.46639      0.00656324      0.00245562 
        5.48212      0.00663577      0.00243812 
        5.49786      0.00680738      0.00242077 
        5.51353      0.00689999      0.00240368 
        5.52921      0.00702312      0.00238674 
        5.54495      0.00717798      0.00236992 
        5.56066      0.00732341      0.00235327 
        5.57637      0.00746431      0.00233679 
        5.59207      0.00760096      0.00232049 
        5.60778      0.00775945      0.00230433 
        5.62346      0.00794057      0.00228835 
        5.63916      0.00806177      0.00227251 
        5.65487      0.00822047      0.00225681 
         5.6706       0.0083988      0.00224124 
        5.68633      0.00859703      0.00222581 
        5.70203      0.00876146      0.00221057 
        5.71773      0.00901572      0.00219547 
        5.73344      0.00914291       0.0021805 
        5.74916       0.0093538      0.00216566 
        5.76486      0.00959959      0.00215098 
        5.78054      0.00975953      0.00213646 
        5.79626      0.00994728      0.00212203 
          5.812       0.0102036      0.00210772 
         5.8277       0.0104402      0.00209359 
        5.84339       0.0107329      0.00207959 
        5.85911       0.0109482      0.00206569 
        5.87484       0.0112187      0.00205192 
        5.89053       0.0114866       0.0020383 
        5.90623        0.011804       0.0020248 
        5.92195       0.0120549       0.0020114 
        5.93767       0.0122782      0.00199814 
        5.95336         0.01254      0.00198501 
        5.96905       0.0129904      0.00197201 
        5.98476       0.0131588       0.0019591 
        6.00048       0.0134884      0.00194631 
        6.01617       0.0138601      0.00193365 
        6.03185       0.0140755      0.00192112 
        6.04756       0.0145238      0.00190867 
        6.06331         0.01486      0.00189631 
        6.07903       0.0152473      0.00188408 
        6.09473       0.0155355      0.00187197 
        6.11044       0.0160247      0.00185996 
        6.12616       0.0164016      0.00184806 
        6.14186       0.0167794      0.00183627 
        6.15755       0.0172543      0.00182459 
        6.17326       0.0177032        0.001813 
        6.18898       0.0181855      0.00180151 
        6.20467       0.0186806      0.00179014 
        6.22036       0.0191874      0.00177886 
         6.2361       0.0196561      0.00176766 
         6.2518       0.0201782      0.00175657 
        6.26748       0.0206882       0.0017456 
        6.28319       0.0212243      0.00173469 
        6.29893        0.021777      0.00172387 
        6.31463        0.022453      0.00171316 
        6.33033       0.0229838      0.00170255 
        6.34604       0.0236016      0.00169202 
        6.36177       0.0243703      0.00168156 
        6.37747        0.025074      0.00167122 
