# k  (h/Mpc)    Pcb(k)  (Mpc/h)^3    Pcb_linear(k) (Mpc/h)^3   ShotnoiseSubtracted = true
      0.0200456         6501.42         6599.16 
      0.0350414         4641.17         4531.07 
      0.0492313         3118.23         3118.88 
      0.0637834         2549.49         2603.73 
      0.0800726         2068.88         2139.97 
       0.096163         1558.46         1511.71 
       0.111083         1210.63         1151.73 
       0.126058         1028.85         1032.59 
       0.142273         908.487         913.878 
       0.158546         736.989         715.933 
        0.17375         617.752         578.088 
       0.188953         562.698         522.775 
       0.204907         490.013         480.448 
       0.220756         438.781         410.374 
        0.23588         380.437         346.868 
         0.2514         338.794         310.931 
       0.267535         325.874         287.789 
       0.283568         286.195         257.946 
       0.299022         267.119         226.912 
       0.314451          257.93          204.55 
       0.330372         225.003         189.255 
       0.346141         208.488         174.192 
       0.361624         195.904         158.058 
       0.377134         178.968         144.134 
       0.392932         174.108         133.466 
       0.408854         164.017         124.078 
       0.424564         156.473          114.71 
       0.440253         141.762         105.952 
       0.455999         132.075         98.5956 
       0.471626         128.215         92.3032 
        0.48727         123.751         86.3421 
       0.502856         113.416         80.7052 
       0.518488         110.823         75.6157 
       0.534347         104.016          71.069 
       0.550082         101.237         66.9217 
       0.565732         98.7042         63.0481 
       0.581496          90.927          59.432 
       0.597222         88.5111         56.1607 
       0.612804         85.3939         53.1824 
       0.628434         83.4232         50.3997 
       0.644267         78.9129         47.7645 
       0.660051         76.3104         45.3321 
       0.675724         74.2288         43.0997 
       0.691403         72.9119           41.02 
       0.707174         70.2874         39.0659 
       0.722871         68.6069          37.247 
        0.73838         66.0776         35.5636 
       0.754018         62.4579         33.9718 
       0.769845         61.9591         32.4604 
        0.78569         59.9011           31.04 
       0.801365         58.1345         29.7191 
       0.817031         56.0686         28.4768 
       0.832809         55.1506         27.2983 
       0.848511         53.6811         26.1927 
       0.864097         52.6155         25.1569 
       0.879701         51.5219         24.1769 
       0.895507         49.6518         23.2383 
       0.911279         48.6707         22.3522 
        0.92691         47.5366         21.5203 
       0.942635         46.5091         20.7268 
       0.958396         46.1485         19.9721 
       0.974128         44.9184         19.2569 
       0.989692         43.5667         18.5843 
        1.00528         42.8813         17.9432 
        1.02113         41.8714         17.3227 
        1.03692           41.51         16.7341 
        1.05264         40.5162          16.176 
        1.06832         39.6467         15.6445 
        1.08405         38.7962         15.1357 
        1.09979         38.5538         14.6496 
        1.11537         37.4212         14.1898 
        1.13105         36.5754         13.7473 
        1.14679         36.0326         13.3221 
        1.16256         35.5533         12.9143 
        1.17828         35.0851         12.5251 
        1.19395         34.2014         12.1535 
         1.2097         33.9912         11.7952 
        1.22537         33.2378         11.4532 
          1.241         32.6764          11.126 
        1.25666         32.0778         10.8109 
        1.27241         31.8604         10.5067 
        1.28819          30.844         10.2138 
        1.30392         30.8464         9.93304 
        1.31957         30.3879         9.66421 
        1.33529         29.7871         9.40445 
        1.35108         29.3342         9.15333 
        1.36674         29.0147         8.91327 
         1.3824         28.5252         8.68214 
        1.39811         27.9061         8.45853 
        1.41389         27.6202         8.24202 
        1.42964         27.4614         8.03354 
        1.44531         26.8615         7.83338 
        1.46101         26.6239         7.63967 
        1.47667         26.2956         7.45317 
        1.49229         25.7572         7.27346 
        1.50793         25.5731         7.09954 
        1.52367         25.1264         6.93024 
        1.53953         25.0152         6.76539 
        1.55526          24.537         6.60727 
        1.57092         24.3569         6.45491 
        1.58662         23.9791         6.30705 
        1.60235         23.6557         6.16358 
        1.61809         23.3989         6.02454 
        1.63369         23.1962         5.89107 
        1.64941         22.8779         5.76073 
        1.66519          22.544         5.63391 
        1.68085         22.1197         5.51184 
        1.69652          22.049         5.39339 
        1.71228         21.8352         5.27779 
        1.72806         21.4737         5.16551 
        1.74368          21.246         5.05766 
        1.75933         21.0621          4.9527 
        1.77505         20.8373         4.85026 
        1.79081         20.5958         4.75057 
         1.8065         20.3697         4.65413 
        1.82218         20.1597         4.56048 
        1.83797         20.0459         4.46879 
        1.85367         19.8436         4.38015 
        1.86928         19.7034         4.29448 
        1.88497         19.3795         4.21065 
        1.90073         19.1612         4.12876 
        1.91647         18.8624         4.04915 
        1.93218         18.9426         3.97183 
        1.94787         18.6023         3.89666 
        1.96363         18.4549         3.82316 
        1.97935         18.1735         3.75172 
        1.99499         18.0036         3.68253 
        2.01064         17.8057           3.615 
         2.0264         17.6531         3.54875 
        2.04216         17.5917         3.48421 
        2.05781         17.3228          3.4217 
        2.07353         17.2081         3.36052 
        2.08928         16.9388         3.30071 
        2.10499         16.7763         3.24253 
        2.12065          16.668         3.18594 
        2.13633         16.5431         3.13066 
        2.15211          16.305         3.07636 
        2.16785         16.2772          3.0235 
        2.18349         16.0322         2.97223 
        2.19916         15.8787         2.92205 
        2.21489         15.6922         2.87287 
        2.23063         15.6331          2.8248 
         2.2463         15.4107         2.77806 
        2.26194         15.3167          2.7325 
        2.27765         15.0632         2.68774 
        2.29341         15.0085         2.64387 
        2.30914         14.8336         2.60109 
        2.32486         14.7915         2.55928 
        2.34061         14.6236         2.51833 
        2.35635          14.458         2.47832 
        2.37203         14.3509         2.43932 
        2.38768         14.1776         2.40125 
        2.40339           14.15         2.36387 
        2.41914         13.9592          2.3272 
        2.43483         13.7968         2.29144 
         2.4505         13.6691          2.2565 
        2.46622         13.6369         2.22218 
        2.48195         13.4796         2.18857 
        2.49759         13.3022         2.15585 
        2.51328         13.3043         2.12371 
        2.52906         13.1257         2.09203 
        2.54479         12.9976         2.06112 
        2.56049         12.8508          2.0309 
        2.57618          12.845         2.00132 
        2.59189         12.7244         1.97229 
        2.60758         12.5483         1.94389 
        2.62325         12.4592         1.91608 
        2.63898          12.416         1.88872 
        2.65468         12.2051         1.86197 
        2.67044         12.1839         1.83561 
        2.68618         12.0906         1.80984 
        2.70184         11.9718         1.78466 
        2.71755         11.8648         1.75991 
        2.73329         11.7586         1.73559 
        2.74897         11.6692         1.71182 
        2.76462         11.5908         1.68854 
        2.78034         11.4675         1.66561 
        2.79607          11.404         1.64308 
        2.81179         11.2927           1.621 
        2.82749         11.2128         1.59935 
        2.84321         11.1277         1.57808 
        2.85893         11.0223          1.5572 
        2.87462         10.9614         1.53674 
        2.89033         10.8348         1.51663 
        2.90605         10.7828         1.49687 
        2.92176         10.6839         1.47747 
        2.93747         10.5802         1.45843 
        2.95318         10.5138         1.43972 
        2.96891         10.4485         1.42133 
        2.98456         10.3299         1.40335 
        3.00023         10.2623         1.38566 
        3.01596         10.1799         1.36822 
        3.03164         10.1308         1.35113 
        3.04738         10.0259         1.33429 
         3.0631         9.90307         1.31774 
        3.07883         9.85731         1.30147 
        3.09456         9.78613         1.28548 
        3.11026         9.72931         1.26979 
        3.12596         9.63976         1.25437 
        3.14163         9.58627         1.23923 
        3.15734          9.4912         1.22432 
        3.17308         9.43106         1.20961 
        3.18879         9.35323         1.19519 
        3.20447         9.26613         1.18103 
         3.2202         9.19772         1.16706 
         3.2359         9.10721         1.15333 
        3.25157         9.08218         1.13987 
        3.26729         8.99494         1.12657 
        3.28304         8.89552         1.11347 
        3.29877         8.86369         1.10059 
        3.31446         8.80122         1.08795 
        3.33014         8.72461         1.07552 
        3.34585         8.66784         1.06326 
        3.36158         8.61434         1.05118 
        3.37727         8.56563         1.03933 
        3.39294         8.47064         1.02767 
        3.40867         8.44001         1.01615 
        3.42439         8.33369         1.00481 
        3.44008         8.28819        0.993671 
        3.45578         8.22014        0.982693 
        3.47153          8.1613        0.971858 
        3.48724         8.08512        0.961206 
        3.50292          8.0158         0.95074 
        3.51859         7.98574        0.940436 
        3.53431         7.92262        0.930255 
        3.55007           7.832          0.9202 
        3.56577          7.7907        0.910334 
        3.58146         7.76351        0.900619 
        3.59719         7.68183        0.891024 
        3.61292         7.64836        0.881573 
        3.62859         7.59908        0.872296 
        3.64429         7.53337        0.863135 
        3.66003         7.47642         0.85408 
        3.67578         7.40333        0.845158 
        3.69146         7.39231        0.836398 
        3.70712         7.31082         0.82778 
        3.72284          7.2516        0.819252 
        3.73853         7.22625         0.81086 
        3.75422         7.14615        0.802583 
        3.76993         7.10221        0.794415 
        3.78564         7.05128        0.786365 
        3.80137         7.01684        0.778415 
        3.81707         6.93814        0.770592 
        3.83279         6.90387        0.762871 
        3.84853         6.84693        0.755244 
        3.86424         6.80247        0.747737 
        3.87992         6.76452        0.740344 
        3.89561         6.69455        0.733051 
        3.91134          6.6426        0.725843 
        3.92704         6.60764         0.71874 
        3.94273         6.56361         0.71174 
        3.95845         6.53717        0.704822 
        3.97418         6.47061        0.697994 
        3.98988         6.43226        0.691267 
        4.00554         6.38622        0.684648 
        4.02125         6.33922        0.678096 
        4.03698         6.28727        0.671622 
        4.05268         6.23667        0.665247 
        4.06839         6.17551         0.65895 
         4.0841         6.15881        0.652738 
        4.09983         6.10338        0.646598 
        4.11555         6.05934         0.64054 
        4.13124          6.0126        0.634576 
        4.14693         5.96782        0.628684 
        4.16266         5.93647        0.622854 
        4.17839         5.90193        0.617102 
        4.19408         5.85407        0.611436 
        4.20977         5.81779        0.605839 
        4.22551         5.78111        0.600299 
        4.24123         5.72633        0.594835 
        4.25691         5.68855        0.589454 
        4.27259         5.63954        0.584139 
        4.28831         5.60052        0.578879 
        4.30404         5.56199        0.573679 
        4.31974           5.524        0.568555 
        4.33543         5.47911        0.563497 
        4.35116         5.45001        0.558489 
        4.36688          5.4083        0.553544 
        4.38255         5.37847        0.548677 
        4.39825         5.33889        0.543859 
        4.41398          5.2997         0.53909 
         4.4297         5.28143        0.534383 
        4.44541         5.22993        0.529734 
        4.46111         5.19139        0.525145 
        4.47683         5.16699        0.520606 
        4.49251         5.13525        0.516131 
        4.50819         5.10111         0.51171 
         4.5239         5.05675        0.507335 
        4.53962         5.02439        0.503006 
        4.55535         4.99524        0.498726 
        4.57106         4.96092        0.494502 
        4.58678         4.92922        0.490326 
         4.6025         4.89819        0.486198 
        4.61821          4.8581        0.482119 
        4.63391         4.81824        0.478092 
         4.6496          4.7843        0.474113 
        4.66532         4.76445        0.470174 
        4.68103          4.7252        0.466281 
        4.69673         4.70202        0.462436 
        4.71241         4.67565        0.458639 
        4.72811         4.63899        0.454879 
        4.74384         4.61828        0.451156 
        4.75955         4.57449        0.447481 
        4.77525         4.54042        0.443849 
        4.79096         4.52019        0.440254 
        4.80669         4.49711        0.436697 
         4.8224         4.45794        0.433183 
        4.83809         4.43011        0.429712 
        4.85379         4.39112        0.426277 
         4.8695         4.37311        0.422878 
        4.88521         4.34785        0.419517 
        4.90093         4.31358        0.416192 
        4.91663         4.29916        0.412907 
        4.93234         4.26074        0.409654 
        4.94807         4.23512        0.406434 
        4.96377         4.21706        0.403255 
        4.97943          4.1839        0.400116 
        4.99514         4.16031        0.397004 
        5.01086         4.13285        0.393922 
        5.02654          4.1041        0.390881 
        5.04227         4.08651        0.387864 
          5.058         4.04754        0.384877 
        5.07371         4.02494        0.381928 
        5.08942          4.0047         0.37901 
        5.10513         3.97404        0.376122 
        5.12084         3.95216        0.373262 
        5.13656         3.93017        0.370434 
        5.15225          3.9012        0.367639 
        5.16796         3.88368         0.36487 
        5.18369         3.85507        0.362126 
         5.1994          3.8273        0.359416 
        5.21509         3.80283        0.356736 
        5.23079         3.78027        0.354081 
        5.24649          3.7548        0.351455 
        5.26217         3.72973        0.348857 
        5.27788          3.7166        0.346282 
        5.29359         3.69879        0.343733 
        5.30933         3.67443        0.341207 
        5.32504         3.64545        0.338709 
        5.34073         3.62427         0.33624 
        5.35646         3.60345        0.333791 
        5.37218         3.58428        0.331366 
        5.38789         3.56559        0.328969 
        5.40357         3.53942        0.326599 
        5.41929         3.50822        0.324247 
        5.43502         3.49704        0.321918 
         5.4507         3.47247        0.319617 
        5.46639         3.45003        0.317339 
        5.48212         3.43118        0.315078 
        5.49786         3.41035        0.312836 
        5.51353         3.37998        0.310628 
        5.52921         3.36775        0.308439 
        5.54495         3.35206        0.306264 
        5.56066         3.33824        0.304113 
        5.57637          3.3077        0.301984 
        5.59207         3.29011        0.299876 
        5.60778         3.27632        0.297788 
        5.62346         3.25858        0.295723 
        5.63916         3.23207        0.293676 
        5.65487         3.21425        0.291647 
         5.6706         3.19131        0.289635 
        5.68633         3.18202        0.287642 
        5.70203         3.16198        0.285672 
        5.71773         3.13577         0.28372 
        5.73344         3.12051        0.281786 
        5.74916         3.10618        0.279868 
        5.76486         3.08595        0.277971 
        5.78054         3.06812        0.276094 
        5.79626         3.05939         0.27423 
          5.812         3.03331        0.272381 
         5.8277         3.01515        0.270554 
        5.84339         3.00287        0.268745 
        5.85911          2.9856        0.266949 
        5.87484         2.96064        0.265169 
        5.89053         2.94565         0.26341 
        5.90623         2.93625        0.261665 
        5.92195         2.91675        0.259934 
        5.93767         2.90095        0.258219 
        5.95336         2.88309        0.256523 
        5.96905         2.86659        0.254842 
        5.98476         2.84778        0.253175 
        6.00048         2.83648        0.251522 
        6.01617         2.82152        0.249886 
        6.03185         2.80683        0.248267 
        6.04756         2.78345        0.246658 
        6.06331         2.77177         0.24506 
        6.07903         2.75568         0.24348 
        6.09473         2.73863        0.241915 
        6.11044         2.72697        0.240363 
        6.12616         2.71424        0.238825 
        6.14186          2.6965        0.237301 
        6.15755         2.68522        0.235792 
        6.17326         2.67117        0.234294 
        6.18898         2.65197        0.232809 
        6.20467         2.64013        0.231339 
        6.22036         2.62612        0.229882 
         6.2361         2.61219        0.228434 
         6.2518         2.59946        0.227001 
        6.26748          2.5828        0.225584 
        6.28319         2.56866        0.224174 
        6.29893         2.55522        0.222776 
        6.31463         2.54246        0.221392 
        6.33033         2.53544         0.22002 
        6.34604         2.51627        0.218659 
        6.36177         2.50825        0.217308 
        6.37747         2.49207        0.215972 
