# k  (h/Mpc)    Pcb(k)  (Mpc/h)^3    Pcb_linear(k) (Mpc/h)^3   ShotnoiseSubtracted = true
      0.0200456         1469.66         1492.41 
      0.0350414         1019.12         1024.71 
      0.0492313          708.96         705.338 
      0.0637834         596.592         588.837 
      0.0800726         486.274         483.957 
       0.096163         340.465         341.875 
       0.111083         259.344         260.466 
       0.126058         235.154         233.522 
       0.142273         208.289         206.674 
       0.158546         164.796         161.909 
        0.17375         131.259         130.735 
       0.188953         120.491         118.226 
       0.204907         113.375         108.654 
       0.220756         95.4158         92.8065 
        0.23588          81.217         78.4445 
         0.2514         71.9966         70.3173 
       0.267535         67.0368         65.0838 
       0.283568         60.4367         58.3349 
       0.299022         54.0243         51.3165 
       0.314451         47.8569         46.2593 
       0.330372          44.688         42.8003 
       0.346141          40.984         39.3936 
       0.361624         37.6797          35.745 
       0.377134         34.9926         32.5961 
       0.392932         31.1387         30.1835 
       0.408854          29.998         28.0603 
       0.424564         27.9021         25.9417 
       0.440253         25.6935         23.9611 
       0.455999         24.1603         22.2975 
       0.471626         22.7363         20.8745 
        0.48727         21.3793         19.5264 
       0.502856         19.9386         18.2516 
       0.518488         19.0218         17.1006 
       0.534347         18.1952         16.0723 
       0.550082         16.6313         15.1344 
       0.565732         15.3933         14.2584 
       0.581496         15.0762         13.4406 
       0.597222         14.4719         12.7008 
       0.612804         13.4865         12.0273 
       0.628434         12.9902         11.3979 
       0.644267         12.4711          10.802 
       0.660051         11.7683         10.2519 
       0.675724         11.1721         9.74705 
       0.691403         10.8057         9.27672 
       0.707174         10.2843         8.83479 
       0.722871         9.86735         8.42344 
        0.73838         9.47045         8.04274 
       0.754018         9.16007         7.68275 
       0.769845         8.71737         7.34094 
        0.78569         8.43346         7.01972 
       0.801365         8.07474         6.72101 
       0.817031         7.81077         6.44005 
       0.832809         7.57356         6.17354 
       0.848511         7.13419         5.92351 
       0.864097         6.91541         5.68926 
       0.879701         6.69409         5.46763 
       0.895507          6.3914         5.25537 
       0.911279         6.30623         5.05498 
        0.92691         6.07986         4.86685 
       0.942635         5.80865         4.68739 
       0.958396         5.62015         4.51672 
       0.974128         5.47358         4.35497 
       0.989692         5.37326         4.20285 
        1.00528         5.14646         4.05787 
        1.02113         4.95655         3.91754 
        1.03692         4.86256         3.78445 
        1.05264         4.70663         3.65822 
        1.06832         4.59455         3.53802 
        1.08405         4.39139         3.42296 
        1.09979          4.3035         3.31301 
        1.11537         4.20203         3.20904 
        1.13105         4.08879         3.10896 
        1.14679         3.98654         3.01281 
        1.16256         3.85903         2.92059 
        1.17828         3.78226         2.83257 
        1.19395         3.67477         2.74852 
         1.2097         3.54066         2.66749 
        1.22537         3.45698         2.59016 
          1.241         3.39094         2.51616 
        1.25666         3.36418          2.4449 
        1.27241         3.21816          2.3761 
        1.28819         3.14986         2.30986 
        1.30392         3.09484         2.24637 
        1.31957         3.02722         2.18557 
        1.33529         2.94294         2.12683 
        1.35108         2.87716         2.07003 
        1.36674         2.81536         2.01575 
         1.3824         2.72231         1.96348 
        1.39811         2.67473          1.9129 
        1.41389         2.63318         1.86394 
        1.42964         2.57601         1.81679 
        1.44531         2.52363         1.77153 
        1.46101          2.4698         1.72772 
        1.47667         2.39598         1.68554 
        1.49229         2.37572          1.6449 
        1.50793         2.31271         1.60557 
        1.52367         2.28393         1.56728 
        1.53953         2.21247            1.53 
        1.55526          2.1727         1.49424 
        1.57092         2.13511         1.45979 
        1.58662         2.09426         1.42635 
        1.60235         2.05059          1.3939 
        1.61809         2.01264         1.36246 
        1.63369         1.98757         1.33227 
        1.64941         1.93947          1.3028 
        1.66519         1.91039         1.27411 
        1.68085         1.85912         1.24651 
        1.69652         1.82996         1.21972 
        1.71228          1.8058         1.19358 
        1.72806         1.76155         1.16819 
        1.74368         1.73724          1.1438 
        1.75933         1.70123         1.12006 
        1.77505         1.67739         1.09689 
        1.79081         1.64758         1.07435 
         1.8065         1.61534         1.05254 
        1.82218         1.59732         1.03136 
        1.83797         1.57667         1.01062 
        1.85367         1.55157        0.990577 
        1.86928         1.52689        0.971201 
        1.88497         1.49061        0.952242 
        1.90073         1.46135        0.933724 
        1.91647         1.44886         0.91572 
        1.93218         1.42995        0.898234 
        1.94787         1.40027        0.881234 
        1.96363         1.37583        0.864611 
        1.97935         1.35404        0.848455 
        1.99499         1.32947        0.832807 
        2.01064         1.31193        0.817535 
         2.0264         1.30334        0.802554 
        2.04216         1.27813        0.787958 
        2.05781         1.25579        0.773822 
        2.07353         1.24197        0.759985 
        2.08928         1.22057        0.746459 
        2.10499         1.20285        0.733301 
        2.12065         1.19413        0.720504 
        2.13633         1.17141        0.708003 
        2.15211          1.1527        0.695721 
        2.16785         1.13273        0.683768 
        2.18349         1.12207        0.672173 
        2.19916         1.10201        0.660824 
        2.21489         1.08663        0.649703 
        2.23063         1.07093        0.638832 
         2.2463          1.0637        0.628261 
        2.26194         1.03921        0.617958 
        2.27765         1.02712        0.607835 
        2.29341          1.0182        0.597915 
        2.30914         1.00723        0.588238 
        2.32486        0.994913        0.578783 
        2.34061        0.977945        0.569522 
        2.35635        0.962054        0.560474 
        2.37203        0.953711        0.551655 
        2.38768        0.942649        0.543046 
        2.40339        0.931335        0.534591 
        2.41914        0.920794        0.526298 
        2.43483        0.907171        0.518211 
         2.4505        0.893744         0.51031 
        2.46622        0.883017        0.502548 
        2.48195        0.877125        0.494948 
        2.49759        0.864815        0.487547 
        2.51328        0.850254        0.480279 
        2.52906        0.841049        0.473115 
        2.54479        0.833753        0.466125 
        2.56049        0.822004        0.459291 
        2.57618        0.814901        0.452601 
        2.59189        0.803626        0.446036 
        2.60758        0.793798        0.439612 
        2.62325        0.785708        0.433323 
        2.63898        0.778648        0.427137 
        2.65468        0.768998        0.421085 
        2.67044        0.759079        0.415126 
        2.68618        0.748104        0.409297 
        2.70184        0.740421        0.403604 
        2.71755        0.732535        0.398006 
        2.73329        0.726987        0.392506 
        2.74897        0.718449        0.387129 
        2.76462        0.709918        0.381866 
        2.78034        0.703828        0.376679 
        2.79607        0.694811        0.371585 
        2.81179        0.686761        0.366591 
        2.82749        0.682081        0.361695 
        2.84321        0.675472        0.356884 
        2.85893         0.66663        0.352162 
        2.87462        0.661984        0.347535 
        2.89033        0.651302        0.342987 
        2.90605        0.646312        0.338518 
        2.92176         0.63919        0.334131 
        2.93747        0.633578        0.329824 
        2.95318        0.627582        0.325594 
        2.96891        0.621392        0.321436 
        2.98456        0.616959         0.31737 
        3.00023        0.609976        0.313368 
        3.01596        0.604232        0.309424 
        3.03164        0.599621         0.30556 
        3.04738        0.589593         0.30175 
         3.0631        0.586541        0.298008 
        3.07883        0.580397        0.294329 
        3.09456        0.574289        0.290714 
        3.11026        0.569338        0.287165 
        3.12596        0.563441        0.283676 
        3.14163        0.559267        0.280254 
        3.15734         0.55647        0.276881 
        3.17308        0.548475        0.273555 
        3.18879        0.543359        0.270294 
        3.20447        0.539648        0.267091 
         3.2202        0.535586        0.263931 
         3.2359        0.529979        0.260827 
        3.25157        0.524972        0.257782 
        3.26729        0.522375        0.254776 
        3.28304        0.516127        0.251812 
        3.29877           0.511          0.2489 
        3.31446        0.507673        0.246041 
        3.33014        0.504498         0.24323 
        3.34585        0.501002        0.240458 
        3.36158        0.494959        0.237726 
        3.37727        0.492294        0.235045 
        3.39294        0.488364        0.232408 
        3.40867        0.483627        0.229803 
        3.42439        0.480004        0.227239 
        3.44008        0.477179         0.22472 
        3.45578        0.474391        0.222237 
        3.47153        0.469507        0.219787 
        3.48724        0.466949        0.217378 
        3.50292        0.463894        0.215011 
        3.51859        0.459011        0.212681 
        3.53431        0.456237        0.210378 
        3.55007        0.454276        0.208104 
        3.56577        0.448992        0.205873 
        3.58146        0.445528        0.203676 
        3.59719        0.443884        0.201506 
        3.61292         0.44038        0.199369 
        3.62859        0.434819        0.197271 
        3.64429        0.434072        0.195199 
        3.66003        0.430397        0.193151 
        3.67578        0.426525        0.191133 
        3.69146        0.424514        0.189152 
        3.70712        0.421016        0.187203 
        3.72284        0.418582        0.185275 
        3.73853        0.415788        0.183377 
        3.75422        0.411772        0.181505 
        3.76993        0.410438        0.179658 
        3.78564        0.407038        0.177837 
        3.80137        0.402803        0.176039 
        3.81707        0.402637         0.17427 
        3.83279        0.397992        0.172524 
        3.84853        0.395171        0.170799 
        3.86424        0.393028        0.169102 
        3.87992        0.390096         0.16743 
        3.89561        0.387804         0.16578 
        3.91134        0.385321         0.16415 
        3.92704        0.381636        0.162544 
        3.94273        0.380301        0.160961 
        3.95845         0.37752        0.159396 
        3.97418        0.373645        0.157852 
        3.98988        0.371416        0.156331 
        4.00554        0.368517        0.154834 
        4.02125        0.365339        0.153352 
        4.03698        0.362146        0.151888 
        4.05268        0.359517        0.150446 
        4.06839         0.35604        0.149022 
         4.0841        0.352292        0.147617 
        4.09983        0.349258        0.146229 
        4.11555        0.345673        0.144859 
        4.13124        0.342571         0.14351 
        4.14693        0.339797        0.142178 
        4.16266        0.336522        0.140859 
        4.17839         0.33446        0.139558 
        4.19408        0.331642        0.138277 
        4.20977        0.329149        0.137011 
        4.22551        0.326665        0.135758 
        4.24123        0.323779        0.134523 
        4.25691        0.321343        0.133306 
        4.27259        0.319649        0.132104 
        4.28831        0.316985        0.130914 
        4.30404        0.314073        0.129738 
        4.31974        0.312635        0.128579 
        4.33543        0.310098        0.127435 
        4.35116         0.30858        0.126303 
        4.36688        0.306148        0.125184 
        4.38255        0.304637        0.124084 
        4.39825        0.302139        0.122994 
        4.41398        0.300321        0.121916 
         4.4297        0.298552        0.120851 
        4.44541        0.297072          0.1198 
        4.46111        0.296045        0.118762 
        4.47683         0.29462        0.117736 
        4.49251        0.292201        0.116724 
        4.50819         0.29043        0.115724 
         4.5239         0.29025        0.114734 
        4.53962        0.288342        0.113755 
        4.55535         0.28755        0.112787 
        4.57106        0.285705        0.111832 
        4.58678        0.284807        0.110888 
         4.6025        0.283124        0.109954 
        4.61821        0.282156        0.109032 
        4.63391        0.281378        0.108121 
         4.6496        0.280028        0.107221 
        4.66532        0.278962         0.10633 
        4.68103        0.278801         0.10545 
        4.69673        0.277572         0.10458 
        4.71241        0.276953        0.103722 
        4.72811        0.275864        0.102871 
        4.74384        0.275148        0.102029 
        4.75955        0.275291        0.101198 
        4.77525        0.273982        0.100377 
        4.79096        0.273503       0.0995638 
        4.80669         0.27286       0.0987594 
         4.8224        0.272199       0.0979648 
        4.83809         0.27203       0.0971798 
        4.85379        0.272216       0.0964031 
         4.8695        0.271087       0.0956342 
        4.88521        0.270841       0.0948741 
        4.90093        0.271407       0.0941223 
        4.91663         0.27093       0.0933793 
        4.93234        0.270449       0.0926436 
        4.94807        0.270598       0.0919154 
        4.96377        0.270781       0.0911964 
        4.97943        0.271186       0.0904868 
        4.99514        0.271029       0.0897828 
        5.01086        0.271092       0.0890859 
        5.02654         0.27121       0.0883983 
        5.04227        0.270882       0.0877159 
          5.058        0.271342       0.0870404 
        5.07371        0.270957       0.0863735 
        5.08942        0.272549       0.0857134 
        5.10513        0.272161       0.0850603 
        5.12084        0.272853       0.0844137 
        5.13656        0.273621        0.083774 
        5.15225        0.273727        0.083142 
        5.16796        0.275178       0.0825157 
        5.18369        0.274858       0.0818952 
         5.1994        0.275789       0.0812823 
        5.21509         0.27624       0.0806762 
        5.23079        0.277349       0.0800757 
        5.24649        0.278041       0.0794818 
        5.26217        0.277875       0.0788944 
        5.27788        0.279107       0.0783121 
        5.29359        0.280192       0.0777357 
        5.30933        0.281579       0.0771642 
        5.32504        0.281869       0.0765995 
        5.34073        0.283075       0.0760411 
        5.35646         0.28386       0.0754872 
        5.37218        0.285134       0.0749388 
        5.38789         0.28647       0.0743967 
        5.40357        0.287536       0.0738606 
        5.41929        0.287509       0.0733287 
        5.43502        0.289131        0.072802 
         5.4507        0.290405       0.0722818 
        5.46639        0.292719       0.0717666 
        5.48212        0.293762       0.0712552 
        5.49786        0.294036       0.0707483 
        5.51353        0.297016       0.0702489 
        5.52921        0.297477       0.0697538 
        5.54495        0.298543        0.069262 
        5.56066        0.301528       0.0687756 
        5.57637        0.301588       0.0682939 
        5.59207        0.304456       0.0678173 
        5.60778        0.304928       0.0673452 
        5.62346        0.307251       0.0668782 
        5.63916        0.308346       0.0664152 
        5.65487        0.310355       0.0659564 
         5.6706        0.311242       0.0655014 
        5.68633        0.314747       0.0650505 
        5.70203        0.315944       0.0646049 
        5.71773        0.317839       0.0641636 
        5.73344        0.318533       0.0637262 
        5.74916        0.320918       0.0632924 
        5.76486         0.32243       0.0628634 
        5.78054         0.32523        0.062439 
        5.79626        0.324945       0.0620173 
          5.812        0.327869       0.0615992 
         5.8277        0.329644       0.0611862 
        5.84339        0.332301       0.0607769 
        5.85911        0.333306       0.0603707 
        5.87484        0.334757       0.0599683 
        5.89053        0.338584       0.0595704 
        5.90623        0.340012       0.0591759 
        5.92195         0.34214       0.0587843 
        5.93767        0.344556       0.0583965 
        5.95336        0.345049       0.0580129 
        5.96905        0.347834       0.0576329 
        5.98476        0.349347       0.0572558 
        6.00048        0.353183        0.056882 
        6.01617        0.353294        0.056512 
        6.03185        0.355276       0.0561458 
        6.04756        0.358268        0.055782 
        6.06331         0.35984       0.0554206 
        6.07903        0.362755       0.0550633 
        6.09473        0.363965       0.0547094 
        6.11044        0.366741       0.0543583 
        6.12616        0.368405       0.0540105 
        6.14186        0.371376        0.053666 
        6.15755        0.373143       0.0533246 
        6.17326        0.375217       0.0529859 
        6.18898        0.377665         0.05265 
        6.20467        0.380868       0.0523176 
        6.22036        0.380117       0.0519881 
         6.2361         0.38246       0.0516607 
         6.2518        0.384513       0.0513366 
        6.26748        0.386932        0.051016 
        6.28319        0.389428       0.0506972 
        6.29893         0.39196        0.050381 
        6.31463        0.393784        0.050068 
        6.33033        0.395391       0.0497578 
        6.34604        0.396967         0.04945 
        6.36177        0.399736       0.0491445 
        6.37747         0.40222       0.0488422 
