# k  (h/Mpc)    Pcb(k)  (Mpc/h)^3    Pcb_linear(k) (Mpc/h)^3   ShotnoiseSubtracted = true
      0.0200456         12030.4         12271.8 
      0.0350414         8180.85         8425.98 
      0.0492313         5768.15         5799.86 
      0.0637834         4964.85         4841.89 
      0.0800726            4033         3979.49 
       0.096163         2756.65         2811.17 
       0.111083         2116.45         2141.76 
       0.126058         1961.76         1920.21 
       0.142273         1748.75         1699.45 
       0.158546         1455.61         1331.35 
        0.17375         1136.62         1075.01 
       0.188953         1096.42         972.151 
       0.204907         1046.56          893.44 
       0.220756         892.363          763.13 
        0.23588         778.963         645.034 
         0.2514         675.526         578.206 
       0.267535         661.752         535.172 
       0.283568         602.739         479.677 
       0.299022         560.701         421.966 
       0.314451         524.823         380.381 
       0.330372          484.29         351.939 
       0.346141         439.546         323.927 
       0.361624         423.951         293.924 
       0.377134         393.349         268.032 
       0.392932         372.085         248.193 
       0.408854         357.264         230.734 
       0.424564         339.477         213.314 
       0.440253         328.202         197.028 
       0.455999         308.468         183.348 
       0.471626         288.514         171.647 
        0.48727         279.336         160.562 
       0.502856         270.075         150.079 
       0.518488         266.812         140.615 
       0.534347         251.412          132.16 
       0.550082         236.093         124.447 
       0.565732         232.158         117.244 
       0.581496         220.402          110.52 
       0.597222          214.94         104.436 
       0.612804         207.569         98.8978 
       0.628434         200.351         93.7231 
       0.644267         193.826         88.8227 
       0.660051         191.673         84.2995 
       0.675724         187.097         80.1482 
       0.691403         181.821         76.2807 
       0.707174         174.344         72.6468 
       0.722871         172.628         69.2644 
        0.73838         169.081         66.1339 
       0.754018          164.04         63.1738 
       0.769845         159.283         60.3632 
        0.78569         157.152         57.7219 
       0.801365           152.4         55.2656 
       0.817031         147.423         52.9553 
       0.832809         145.623         50.7638 
       0.848511          141.64         48.7079 
       0.864097         139.466         46.7817 
       0.879701         136.374         44.9593 
       0.895507         132.907         43.2139 
       0.911279         130.301         41.5662 
        0.92691         129.268         40.0192 
       0.942635         125.928         38.5435 
       0.958396         125.644         37.1401 
       0.974128         122.093         35.8101 
       0.989692         119.263         34.5593 
        1.00528         116.921         33.3671 
        1.02113         116.189         32.2132 
        1.03692          111.98         31.1188 
        1.05264         111.242         30.0809 
        1.06832         108.725         29.0925 
        1.08405         107.254         28.1464 
        1.09979         106.777         27.2423 
        1.11537         103.322         26.3873 
        1.13105          103.05         25.5644 
        1.14679         101.903         24.7738 
        1.16256         100.408         24.0154 
        1.17828         98.2128         23.2917 
        1.19395         96.5952         22.6006 
         1.2097         94.7022         21.9343 
        1.22537         94.7685         21.2984 
          1.241         92.6422         20.6899 
        1.25666         90.8261          20.104 
        1.27241         89.5484         19.5382 
        1.28819         88.2671         18.9935 
        1.30392         87.2196         18.4715 
        1.31957         86.2072         17.9715 
        1.33529         84.4634         17.4885 
        1.35108         83.6179         17.0215 
        1.36674         82.8238         16.5751 
         1.3824         81.1838         16.1453 
        1.39811         80.3868         15.7295 
        1.41389          79.333         15.3268 
        1.42964         78.2202         14.9392 
        1.44531         76.6896         14.5669 
        1.46101         75.7692         14.2067 
        1.47667         75.6869         13.8599 
        1.49229         74.1777         13.5257 
        1.50793         73.7991         13.2023 
        1.52367         72.4842         12.8875 
        1.53953          71.462         12.5809 
        1.55526         70.8451         12.2869 
        1.57092         70.5945         12.0035 
        1.58662         68.9547         11.7286 
        1.60235         68.5881         11.4618 
        1.61809         67.6225         11.2032 
        1.63369           66.67          10.955 
        1.64941         66.1305         10.7126 
        1.66519         64.7084         10.4768 
        1.68085          64.432         10.2498 
        1.69652           63.26         10.0295 
        1.71228         62.9791         9.81456 
        1.72806         62.3182         9.60577 
        1.74368         61.5338         9.40521 
        1.75933         60.7247         9.21004 
        1.77505         60.2469         9.01954 
        1.79081         59.4863         8.83415 
         1.8065         58.8971         8.65481 
        1.82218         58.1704         8.48066 
        1.83797          57.504         8.31016 
        1.85367         56.9809         8.14533 
        1.86928         56.3302           7.986 
        1.88497         55.7833         7.83011 
        1.90073         54.9276         7.67784 
        1.91647         54.6283          7.5298 
        1.93218         54.0159         7.38601 
        1.94787         53.3867         7.24622 
        1.96363         52.7862         7.10953 
        1.97935         52.3047         6.97669 
        1.99499         51.5979         6.84802 
        2.01064         51.3459         6.72244 
         2.0264         50.1814         6.59925 
        2.04216         50.0257         6.47923 
        2.05781         49.3328         6.36299 
        2.07353         48.8342         6.24921 
        2.08928         48.3584         6.13799 
        2.10499         47.9326          6.0298 
        2.12065         47.3299         5.92457 
        2.13633         47.0556         5.82178 
        2.15211         46.7577         5.72079 
        2.16785         45.9046         5.62249 
        2.18349         45.5015         5.52715 
        2.19916         45.1407         5.43383 
        2.21489         44.6917         5.34238 
        2.23063         44.0153           5.253 
         2.2463         43.6272         5.16607 
        2.26194          42.984         5.08135 
        2.27765         42.6246         4.99812 
        2.29341         42.1299         4.91654 
        2.30914         41.6813         4.83697 
        2.32486         41.0903         4.75923 
        2.34061         40.9257         4.68307 
        2.35635         40.3696         4.60867 
        2.37203          39.968         4.53615 
        2.38768          39.579         4.46536 
        2.40339         39.3322         4.39584 
        2.41914         38.9879         4.32765 
        2.43483          38.364         4.26116 
         2.4505         38.1321         4.19618 
        2.46622         37.6716         4.13236 
        2.48195         37.3887         4.06986 
        2.49759         36.9553         4.00901 
        2.51328         36.4986         3.94925 
        2.52906          36.244         3.89034 
        2.54479         35.6917         3.83286 
        2.56049         35.3828         3.77667 
        2.57618         35.1308         3.72166 
        2.59189         34.7528         3.66767 
        2.60758         34.5732         3.61485 
        2.62325         34.0934         3.56314 
        2.63898         33.7499         3.51227 
        2.65468         33.4376         3.46251 
        2.67044         33.0481          3.4135 
        2.68618          32.835         3.36557 
        2.70184         32.4428         3.31876 
        2.71755         32.2833         3.27273 
        2.73329         31.9139          3.2275 
        2.74897         31.5482         3.18329 
        2.76462         31.1742         3.14001 
        2.78034         31.0518         3.09736 
        2.79607         30.7432         3.05547 
        2.81179         30.4584         3.01441 
        2.82749         30.1306         2.97415 
        2.84321          29.759         2.93459 
        2.85893         29.4998         2.89576 
        2.87462         29.2334         2.85772 
        2.89033         28.9684         2.82032 
        2.90605         28.7684         2.78357 
        2.92176         28.5924         2.74749 
        2.93747         28.2184         2.71208 
        2.95318         27.8451          2.6773 
        2.96891         27.6723         2.64311 
        2.98456         27.3139         2.60967 
        3.00023         27.0714         2.57677 
        3.01596         26.8352         2.54434 
        3.03164         26.6626         2.51256 
        3.04738         26.3779         2.48124 
         3.0631         26.1639         2.45046 
        3.07883         25.9292         2.42021 
        3.09456         25.5948         2.39048 
        3.11026         25.3884          2.3613 
        3.12596         25.1998         2.33262 
        3.14163         24.9333         2.30448 
        3.15734         24.7485         2.27674 
        3.17308          24.456         2.24939 
        3.18879         24.3632         2.22258 
        3.20447         24.0346         2.19624 
         3.2202         23.8113         2.17025 
         3.2359         23.5706         2.14473 
        3.25157          23.514         2.11969 
        3.26729          23.228         2.09497 
        3.28304         23.0158         2.07061 
        3.29877         22.7841         2.04666 
        3.31446         22.5143         2.02315 
        3.33014         22.3181         2.00003 
        3.34585         22.2057         1.97724 
        3.36158         21.9386         1.95477 
        3.37727         21.7261         1.93273 
        3.39294         21.6103         1.91105 
        3.40867         21.3649         1.88963 
        3.42439         21.2052         1.86854 
        3.44008         21.0321         1.84783 
        3.45578         20.8105         1.82741 
        3.47153         20.5748         1.80726 
        3.48724         20.4563         1.78746 
        3.50292         20.3259         1.76799 
        3.51859         20.0605         1.74883 
        3.53431         19.8889          1.7299 
        3.55007         19.6963          1.7112 
        3.56577         19.5253         1.69286 
        3.58146         19.3855         1.67479 
        3.59719          19.176         1.65695 
        3.61292         19.0665         1.63937 
        3.62859          18.857         1.62212 
        3.64429          18.734         1.60508 
        3.66003          18.583         1.58824 
        3.67578         18.3677         1.57165 
        3.69146         18.2838         1.55536 
        3.70712         18.1143         1.53934 
        3.72284         17.9566         1.52348 
        3.73853         17.7833         1.50787 
        3.75422         17.5703         1.49248 
        3.76993         17.4502         1.47729 
        3.78564         17.3218         1.46232 
        3.80137         17.1426         1.44754 
        3.81707         16.9917         1.43299 
        3.83279         16.8772         1.41863 
        3.84853         16.6904         1.40445 
        3.86424         16.5763         1.39049 
        3.87992         16.4315         1.37674 
        3.89561         16.2654         1.36318 
        3.91134         16.1783         1.34978 
        3.92704         16.0229         1.33657 
        3.94273         15.8845         1.32355 
        3.95845         15.7213         1.31068 
        3.97418         15.6438         1.29799 
        3.98988         15.4717         1.28548 
        4.00554         15.3459         1.27317 
        4.02125         15.2614         1.26099 
        4.03698         15.1477         1.24895 
        4.05268         14.9627         1.23709 
        4.06839         14.8514         1.22538 
         4.0841         14.7729         1.21383 
        4.09983         14.5729         1.20241 
        4.11555         14.4927         1.19115 
        4.13124         14.3626         1.18006 
        4.14693         14.2447          1.1691 
        4.16266         14.1192         1.15826 
        4.17839         13.9901         1.14756 
        4.19408         13.8772         1.13702 
        4.20977          13.808         1.12662 
        4.22551         13.6368         1.11631 
        4.24123         13.5554         1.10615 
        4.25691          13.462         1.09615 
        4.27259         13.3221         1.08626 
        4.28831         13.2014         1.07648 
        4.30404          13.113         1.06681 
        4.31974         12.9979         1.05728 
        4.33543         12.9293         1.04788 
        4.35116         12.8013         1.03856 
        4.36688         12.6755         1.02937 
        4.38255         12.5838         1.02032 
        4.39825          12.482         1.01136 
        4.41398         12.4126         1.00249 
         4.4297         12.2632        0.993738 
        4.44541         12.1834        0.985093 
        4.46111         12.0885        0.976558 
        4.47683         12.0317        0.968118 
        4.49251         11.9113        0.959796 
        4.50819         11.8577        0.951575 
         4.5239         11.7344        0.943439 
        4.53962         11.6488        0.935389 
        4.55535         11.5353        0.927429 
        4.57106         11.4225        0.919575 
        4.58678         11.3494         0.91181 
         4.6025         11.2772        0.904133 
        4.61821         11.1809        0.896547 
        4.63391         11.0888        0.889059 
         4.6496         10.9983         0.88166 
        4.66532         10.9066        0.874334 
        4.68103         10.8441        0.867095 
        4.69673         10.7457        0.859946 
        4.71241         10.6436        0.852885 
        4.72811           10.57        0.845892 
        4.74384         10.5274        0.838969 
        4.75955         10.4046        0.832135 
        4.77525         10.3433        0.825381 
        4.79096          10.267        0.818695 
        4.80669         10.1952         0.81208 
         4.8224          10.131        0.805546 
        4.83809         10.0437        0.799091 
        4.85379         9.93902        0.792704 
         4.8695         9.92256        0.786382 
        4.88521         9.80686        0.780132 
        4.90093         9.73326         0.77395 
        4.91663         9.66122         0.76784 
        4.93234         9.60515        0.761791 
        4.94807         9.52076        0.755803 
        4.96377         9.44415        0.749891 
        4.97943         9.37652        0.744055 
        4.99514         9.32145        0.738267 
        5.01086         9.24614        0.732537 
        5.02654         9.16469        0.726882 
        5.04227         9.12773        0.721271 
          5.058         9.03112        0.715717 
        5.07371         8.98424        0.710233 
        5.08942         8.92047        0.704805 
        5.10513         8.83915        0.699435 
        5.12084         8.78228        0.694118 
        5.13656         8.71345        0.688858 
        5.15225         8.65882        0.683661 
        5.16796         8.59905        0.678511 
        5.18369         8.52836        0.673409 
         5.1994         8.44405        0.668369 
        5.21509         8.40932        0.663386 
        5.23079         8.34281        0.658448 
        5.24649         8.28314        0.653564 
        5.26217         8.22123        0.648734 
        5.27788         8.15899        0.643946 
        5.29359         8.10407        0.639206 
        5.30933         8.04585        0.634507 
        5.32504          7.9776        0.629863 
        5.34073         7.94424        0.625272 
        5.35646         7.87564        0.620717 
        5.37218          7.8278        0.616207 
        5.38789           7.761         0.61175 
        5.40357         7.71536        0.607342 
        5.41929         7.64633        0.602968 
        5.43502          7.6098        0.598637 
         5.4507         7.56735        0.594359 
        5.46639         7.52339        0.590123 
        5.48212         7.45803        0.585918 
        5.49786         7.41579         0.58175 
        5.51353         7.34686        0.577643 
        5.52921         7.30056        0.573572 
        5.54495         7.25605        0.569529 
        5.56066         7.20626        0.565529 
        5.57637          7.1377        0.561568 
        5.59207         7.11093        0.557649 
        5.60778         7.03969        0.553767 
        5.62346         6.99984        0.549926 
        5.63916         6.95371        0.546119 
        5.65487         6.92093        0.542347 
         5.6706         6.84833        0.538605 
        5.68633         6.81586        0.534898 
        5.70203          6.7771        0.531234 
        5.71773         6.72111        0.527605 
        5.73344          6.6822        0.524008 
        5.74916         6.63808        0.520442 
        5.76486         6.58648        0.516914 
        5.78054         6.55051        0.513424 
        5.79626         6.50379        0.509957 
          5.812           6.464        0.506519 
         5.8277         6.42082        0.503122 
        5.84339         6.36748        0.499757 
        5.85911         6.33575        0.496417 
        5.87484         6.28164        0.493108 
        5.89053         6.24285        0.489836 
        5.90623         6.20314        0.486592 
        5.92195         6.15352        0.483372 
        5.93767         6.12088        0.480184 
        5.95336          6.0788        0.477029 
        5.96905         6.05397        0.473905 
        5.98476         5.99943        0.470804 
        6.00048          5.9827         0.46773 
        6.01617         5.92222        0.464687 
        6.03185         5.89996        0.461676 
        6.04756         5.84927        0.458685 
        6.06331         5.81951        0.455713 
        6.07903         5.78214        0.452775 
        6.09473          5.7374        0.449865 
        6.11044         5.70059        0.446978 
        6.12616         5.67051        0.444118 
        6.14186         5.63054        0.441285 
        6.15755         5.59471        0.438478 
        6.17326         5.55669        0.435693 
        6.18898         5.52196        0.432931 
        6.20467          5.4913        0.430198 
        6.22036         5.46943        0.427489 
         6.2361         5.41769        0.424796 
         6.2518         5.38554        0.422131 
        6.26748          5.3564        0.419495 
        6.28319          5.3171        0.416874 
        6.29893         5.28383        0.414273 
        6.31463         5.25743          0.4117 
        6.33033         5.22122        0.409149 
        6.34604         5.18963        0.406618 
        6.36177         5.16787        0.404106 
        6.37747         5.12175         0.40162 
