# k  (h/Mpc)    Pcb(k)  (Mpc/h)^3    Pcb_linear(k) (Mpc/h)^3   ShotnoiseSubtracted = true
      0.0200456         17678.7         18072.8 
      0.0350414         11941.4           12409 
      0.0492313         8445.47          8541.5 
      0.0637834         7322.19          7130.7 
      0.0800726         5934.61         5860.63 
       0.096163         4039.97         4140.04 
       0.111083         3124.76         3154.19 
       0.126058         2896.25          2827.9 
       0.142273         2578.33         2502.79 
       0.158546         2200.02         1960.69 
        0.17375         1719.46         1583.18 
       0.188953         1674.09          1431.7 
       0.204907         1593.31         1315.78 
       0.220756         1372.41         1123.87 
        0.23588         1211.81         949.948 
         0.2514         1048.22         851.529 
       0.267535          1041.8         788.152 
       0.283568         947.947         706.424 
       0.299022         891.606         621.433 
       0.314451         846.076         560.191 
       0.330372         778.401         518.303 
       0.346141         723.587          477.05 
       0.361624         697.607         432.865 
       0.377134         647.236         394.733 
       0.392932         621.043         365.516 
       0.408854         602.504         339.805 
       0.424564         563.167          314.15 
       0.440253         553.427         290.164 
       0.455999         523.574         270.018 
       0.471626         499.795         252.786 
        0.48727         480.742          236.46 
       0.502856         467.453         221.023 
       0.518488         463.076         207.085 
       0.534347         432.913         194.633 
       0.550082         414.743         183.275 
       0.565732         414.238         172.666 
       0.581496         389.562         162.763 
       0.597222         383.588         153.804 
       0.612804         373.626         145.648 
       0.628434         360.261         138.027 
       0.644267         350.567          130.81 
       0.660051         342.126         124.149 
       0.675724         337.389         118.035 
       0.691403         326.979         112.339 
       0.707174         316.056         106.988 
       0.722871         311.695         102.006 
        0.73838         307.799         97.3961 
       0.754018          299.28         93.0366 
       0.769845         290.847         88.8974 
        0.78569         290.201         85.0075 
       0.801365         280.492         81.3902 
       0.817031         271.446         77.9878 
       0.832809         270.397         74.7604 
       0.848511          262.88         71.7326 
       0.864097         258.984         68.8958 
       0.879701         255.484          66.212 
       0.895507         249.948         63.6415 
       0.911279         241.786         61.2149 
        0.92691         241.939         58.9366 
       0.942635         235.661         56.7634 
       0.958396          232.85         54.6966 
       0.974128         228.372         52.7379 
       0.989692         224.441         50.8957 
        1.00528         221.367           49.14 
        1.02113         219.019         47.4406 
        1.03692         214.137         45.8289 
        1.05264         210.203         44.3004 
        1.06832         206.528         42.8448 
        1.08405         203.313         41.4514 
        1.09979         200.165           40.12 
        1.11537          197.16         38.8609 
        1.13105         192.912         37.6489 
        1.14679         193.052         36.4846 
        1.16256         189.704         35.3678 
        1.17828         186.273         34.3019 
        1.19395         183.018         33.2841 
         1.2097         183.066         32.3028 
        1.22537         179.003         31.3664 
          1.241         177.314         30.4703 
        1.25666         174.353         29.6073 
        1.27241         171.241         28.7741 
        1.28819         169.738          27.972 
        1.30392         166.065         27.2031 
        1.31957         166.336         26.4668 
        1.33529          161.95         25.7555 
        1.35108         160.202         25.0677 
        1.36674         159.028         24.4103 
         1.3824         156.863         23.7773 
        1.39811         155.997         23.1649 
        1.41389         152.851          22.572 
        1.42964         150.399          22.001 
        1.44531         148.317         21.4528 
        1.46101         146.666         20.9224 
        1.47667         144.438         20.4116 
        1.49229         142.689         19.9194 
        1.50793         141.323         19.4431 
        1.52367         140.135         18.9795 
        1.53953         137.189          18.528 
        1.55526         135.767          18.095 
        1.57092         134.237         17.6777 
        1.58662         132.484         17.2728 
        1.60235          131.09         16.8799 
        1.61809         129.302         16.4991 
        1.63369          127.57         16.1336 
        1.64941         126.181         15.7766 
        1.66519         124.407         15.4293 
        1.68085         123.464          15.095 
        1.69652         121.129         14.7706 
        1.71228         120.333          14.454 
        1.72806          119.08         14.1465 
        1.74368         117.956         13.8511 
        1.75933         116.192         13.5637 
        1.77505         115.104         13.2832 
        1.79081         113.867         13.0101 
         1.8065         112.414          12.746 
        1.82218         110.434         12.4895 
        1.83797         108.814         12.2384 
        1.85367         108.319         11.9957 
        1.86928         106.668         11.7611 
        1.88497         105.031         11.5315 
        1.90073         104.346         11.3072 
        1.91647         103.264         11.0892 
        1.93218         102.029         10.8774 
        1.94787         100.832         10.6716 
        1.96363         99.6596         10.4703 
        1.97935         98.1014         10.2746 
        1.99499         97.4824         10.0851 
        2.01064         96.3315         9.90019 
         2.0264         94.9333         9.71877 
        2.04216         94.1268         9.54202 
        2.05781         92.8815         9.37083 
        2.07353           91.57         9.20327 
        2.08928         90.3876         9.03947 
        2.10499         89.2651         8.88014 
        2.12065         88.9449         8.72516 
        2.13633         88.0063         8.57378 
        2.15211         87.0188         8.42505 
        2.16785         85.5361          8.2803 
        2.18349         84.5159         8.13988 
        2.19916         83.6567         8.00246 
        2.21489         82.7766         7.86778 
        2.23063         81.7927         7.73614 
         2.2463         80.7559         7.60813 
        2.26194         80.8259         7.48336 
        2.27765         79.3916         7.36077 
        2.29341          78.318         7.24064 
        2.30914         77.4313         7.12346 
        2.32486         76.6308         7.00896 
        2.34061         75.8974          6.8968 
        2.35635         74.7139         6.78723 
        2.37203         73.7901         6.68044 
        2.38768         73.1284         6.57618 
        2.40339         72.3465         6.47379 
        2.41914         71.5921         6.37337 
        2.43483          71.261         6.27544 
         2.4505         70.3202         6.17976 
        2.46622         69.3965         6.08576 
        2.48195         68.7657         5.99372 
        2.49759         67.8423          5.9041 
        2.51328         67.2815         5.81609 
        2.52906         66.6395         5.72934 
        2.54479         65.9326         5.64469 
        2.56049         64.9091         5.56193 
        2.57618         64.5276         5.48092 
        2.59189         63.5922         5.40141 
        2.60758         63.1586         5.32362 
        2.62325         62.3736         5.24746 
        2.63898         61.8132         5.17255 
        2.65468         61.4143         5.09926 
        2.67044         60.3824          5.0271 
        2.68618         60.0101         4.95651 
        2.70184         59.5138         4.88757 
        2.71755         58.9474         4.81978 
        2.73329         58.0605         4.75318 
        2.74897         57.6276         4.68806 
        2.76462         56.8699         4.62432 
        2.78034         56.3061         4.56152 
        2.79607         55.7531         4.49982 
        2.81179         55.1148         4.43934 
        2.82749         54.5098         4.38006 
        2.84321         54.1507          4.3218 
        2.85893         53.4533         4.26462 
        2.87462         52.8595         4.20858 
        2.89033         52.2831         4.15351 
        2.90605         51.7658         4.09939 
        2.92176         51.2589         4.04626 
        2.93747         50.8247         3.99411 
        2.95318          50.167         3.94288 
        2.96891         49.5074         3.89253 
        2.98456         49.2327         3.84328 
        3.00023         48.6274         3.79483 
        3.01596         48.3519         3.74707 
        3.03164         47.8403         3.70027 
        3.04738         47.4998         3.65414 
         3.0631         46.9301         3.60882 
        3.07883         46.4554         3.56427 
        3.09456         45.9226         3.52049 
        3.11026         45.4799         3.47751 
        3.12596         45.1848         3.43527 
        3.14163         44.4743         3.39382 
        3.15734         44.0478         3.35297 
        3.17308         43.8908          3.3127 
        3.18879         43.4819         3.27321 
        3.20447         42.8361         3.23442 
         3.2202         42.4998         3.19615 
         3.2359          42.016         3.15857 
        3.25157         41.7932         3.12169 
        3.26729         41.1704         3.08529 
        3.28304         40.8118          3.0494 
        3.29877         40.4805         3.01414 
        3.31446         40.1548         2.97951 
        3.33014         39.6769         2.94546 
        3.34585         39.4661          2.9119 
        3.36158         39.0099         2.87881 
        3.37727         38.5555         2.84635 
        3.39294         38.2358         2.81442 
        3.40867         37.8586         2.78287 
        3.42439         37.5695         2.75182 
        3.44008         37.2594         2.72131 
        3.45578         36.8175         2.69125 
        3.47153         36.4733         2.66157 
        3.48724         36.1105          2.6324 
        3.50292          35.851         2.60374 
        3.51859         35.4186         2.57552 
        3.53431         35.2396         2.54764 
        3.55007         34.8551          2.5201 
        3.56577         34.5631         2.49308 
        3.58146         34.3057         2.46648 
        3.59719         33.9331          2.4402 
        3.61292         33.6904         2.41432 
        3.62859         33.2979         2.38891 
        3.64429         32.9916         2.36382 
        3.66003         32.6585         2.33902 
        3.67578         32.3732         2.31459 
        3.69146         32.0777          2.2906 
        3.70712         31.8871           2.267 
        3.72284         31.7001         2.24364 
        3.73853         31.3074         2.22066 
        3.75422         31.0489         2.19799 
        3.76993         30.7015         2.17562 
        3.78564         30.5044         2.15358 
        3.80137          30.191          2.1318 
        3.81707         29.9781         2.11038 
        3.83279         29.7115         2.08923 
        3.84853         29.4545         2.06835 
        3.86424         29.2041         2.04779 
        3.87992         28.9075         2.02754 
        3.89561         28.6666         2.00757 
        3.91134         28.3946         1.98783 
        3.92704         28.1795         1.96837 
        3.94273         27.9651          1.9492 
        3.95845         27.5718         1.93026 
        3.97418         27.4623         1.91156 
        3.98988         27.2401         1.89314 
        4.00554         26.9293         1.87501 
        4.02125         26.7753         1.85707 
        4.03698         26.4985         1.83933 
        4.05268          26.252         1.82188 
        4.06839         26.1077         1.80463 
         4.0841         25.8515         1.78762 
        4.09983         25.6182          1.7708 
        4.11555         25.4159         1.75421 
        4.13124         25.1025         1.73788 
        4.14693         24.9182         1.72174 
        4.16266          24.631         1.70578 
        4.17839         24.4826         1.69002 
        4.19408         24.3298         1.67451 
        4.20977         24.1196         1.65918 
        4.22551         23.9148         1.64401 
        4.24123         23.6939         1.62904 
        4.25691         23.5147         1.61431 
        4.27259         23.3068         1.59975 
        4.28831          23.096         1.58534 
        4.30404         22.8678          1.5711 
        4.31974         22.7619         1.55707 
        4.33543         22.5508         1.54322 
        4.35116          22.367          1.5295 
        4.36688          22.172         1.51596 
        4.38255         22.0435         1.50263 
        4.39825          21.852         1.48944 
        4.41398         21.6929         1.47638 
         4.4297         21.4916         1.46349 
        4.44541         21.3231         1.45076 
        4.46111         21.1779         1.43819 
        4.47683         20.9372         1.42576 
        4.49251         20.8892          1.4135 
        4.50819         20.6503         1.40139 
         4.5239         20.4685         1.38941 
        4.53962         20.2758         1.37756 
        4.55535         20.1076         1.36583 
        4.57106         20.0085         1.35427 
        4.58678         19.8284         1.34283 
         4.6025         19.6609         1.33153 
        4.61821         19.4966         1.32035 
        4.63391         19.3659         1.30933 
         4.6496         19.1831         1.29843 
        4.66532         19.0223         1.28764 
        4.68103         18.8952         1.27698 
        4.69673         18.7304         1.26645 
        4.71241         18.6293         1.25605 
        4.72811         18.4533         1.24575 
        4.74384         18.3229         1.23556 
        4.75955         18.1631         1.22549 
        4.77525         18.0695         1.21555 
        4.79096         17.9066          1.2057 
        4.80669         17.7562         1.19596 
         4.8224         17.6261         1.18633 
        4.83809         17.4588         1.17683 
        4.85379          17.351         1.16742 
         4.8695         17.2066         1.15811 
        4.88521         17.1113         1.14891 
        4.90093         16.9334          1.1398 
        4.91663         16.8049         1.13081 
        4.93234         16.7209          1.1219 
        4.94807         16.5519         1.11308 
        4.96377         16.4591         1.10437 
        4.97943         16.3265         1.09578 
        4.99514         16.1802         1.08725 
        5.01086         16.0594         1.07881 
        5.02654         15.9366         1.07049 
        5.04227         15.8417         1.06222 
          5.058          15.718         1.05404 
        5.07371         15.6026         1.04597 
        5.08942         15.4825         1.03797 
        5.10513         15.3521         1.03006 
        5.12084         15.2591         1.02223 
        5.13656         15.1637         1.01449 
        5.15225         15.0251         1.00683 
        5.16796         14.8808        0.999249 
        5.18369          14.796        0.991735 
         5.1994         14.7065        0.984313 
        5.21509          14.606        0.976974 
        5.23079         14.4917        0.969702 
        5.24649         14.3577         0.96251 
        5.26217         14.2526        0.955396 
        5.27788          14.143        0.948345 
        5.29359         14.0748        0.941364 
        5.30933         13.9525        0.934444 
        5.32504         13.8884        0.927606 
        5.34073         13.7463        0.920844 
        5.35646         13.6841        0.914136 
        5.37218         13.5656        0.907494 
        5.38789         13.4808         0.90093 
        5.40357         13.3804        0.894438 
        5.41929         13.2546        0.887997 
        5.43502         13.1678        0.881619 
         5.4507         13.0946        0.875319 
        5.46639         12.9975         0.86908 
        5.48212           12.91        0.862887 
        5.49786         12.8246        0.856749 
        5.51353         12.7377          0.8507 
        5.52921         12.6457        0.844705 
        5.54495         12.5639         0.83875 
        5.56066         12.4422        0.832859 
        5.57637          12.359        0.827027 
        5.59207         12.2622        0.821255 
        5.60778         12.1809        0.815537 
        5.62346         12.1137        0.809882 
        5.63916         12.0345        0.804275 
        5.65487         11.9294        0.798719 
         5.6706         11.8749        0.793209 
        5.68633         11.7672         0.78775 
        5.70203         11.6939        0.782353 
        5.71773         11.6102        0.777009 
        5.73344         11.5171        0.771712 
        5.74916         11.4596        0.766459 
        5.76486         11.3847        0.761263 
        5.78054         11.2875        0.756124 
        5.79626         11.2069        0.751018 
          5.812         11.1463        0.745955 
         5.8277         11.0629        0.740953 
        5.84339         10.9814        0.735997 
        5.85911          10.906        0.731078 
        5.87484         10.8407        0.726205 
        5.89053         10.7488        0.721386 
        5.90623         10.6739        0.716609 
        5.92195         10.6269        0.711867 
        5.93767         10.5383        0.707171 
        5.95336         10.4691        0.702525 
        5.96905         10.4176        0.697924 
        5.98476         10.3381        0.693357 
        6.00048         10.2811         0.68883 
        6.01617         10.2014        0.684349 
        6.03185         10.1262        0.679915 
        6.04756         10.0477        0.675509 
        6.06331           9.996        0.671133 
        6.07903         9.93338        0.666806 
        6.09473         9.87604         0.66252 
        6.11044         9.80396        0.658269 
        6.12616         9.75683        0.654056 
        6.14186         9.67956        0.649885 
        6.15755         9.62383         0.64575 
        6.17326         9.54272        0.641649 
        6.18898         9.48868        0.637581 
        6.20467         9.42521        0.633556 
        6.22036         9.35389        0.629567 
         6.2361         9.30307        0.625601 
         6.2518         9.22864        0.621676 
        6.26748         9.18717        0.617794 
        6.28319         9.12673        0.613934 
        6.29893         9.06511        0.610104 
        6.31463          9.0113        0.606314 
        6.33033          8.9404        0.602557 
        6.34604         8.89433         0.59883 
        6.36177         8.84092        0.595131 
        6.37747         8.77652         0.59147 
