# k  (h/Mpc)    Pcb(k)  (Mpc/h)^3    Pcb_linear(k) (Mpc/h)^3   ShotnoiseSubtracted = true
      0.0200456          4653.6         4732.57 
      0.0350414         3201.43         3249.45 
      0.0492313         2241.44         2236.69 
      0.0637834          1904.1         1867.26 
      0.0800726         1550.91         1534.67 
       0.096163         1072.75         1084.12 
       0.111083         817.897         825.962 
       0.126058         751.229          740.52 
       0.142273         668.573         655.385 
       0.158546         536.783         513.429 
        0.17375         422.744         414.574 
       0.188953         396.876         374.906 
       0.204907         378.071         344.552 
       0.220756         317.913         294.298 
        0.23588         272.872         248.755 
         0.2514         239.647         222.983 
       0.267535         227.298         206.387 
       0.283568         206.507         184.986 
       0.299022         187.678         162.729 
       0.314451         168.593         146.693 
       0.330372         157.188         135.724 
       0.346141          142.54         124.921 
       0.361624         134.056         113.351 
       0.377134         125.633         103.365 
       0.392932         112.802         95.7146 
       0.408854         108.759         88.9818 
       0.424564         103.779         82.2638 
       0.440253         96.4002         75.9829 
       0.455999         90.5779         70.7075 
       0.471626          84.223         66.1949 
        0.48727         81.1763           61.92 
       0.502856         76.9825         57.8775 
       0.518488         73.9444         54.2276 
       0.534347         71.1096         50.9669 
       0.550082         65.3188         47.9927 
       0.565732          61.863         45.2147 
       0.581496         60.0268         42.6214 
       0.597222         58.0509         40.2754 
       0.612804         54.6617         38.1396 
       0.628434          53.122          36.144 
       0.644267         51.5818         34.2541 
       0.660051         49.5442         32.5098 
       0.675724         47.1998         30.9088 
       0.691403         45.7804         29.4174 
       0.707174         44.3754          28.016 
       0.722871         42.8062         26.7115 
        0.73838         41.5352         25.5043 
       0.754018         39.6221         24.3627 
       0.769845         38.6955         23.2788 
        0.78569         37.5572         22.2602 
       0.801365         36.1988          21.313 
       0.817031         35.3883          20.422 
       0.832809         34.7209         19.5769 
       0.848511         32.7275          18.784 
       0.864097          32.202         18.0412 
       0.879701         31.5269         17.3384 
       0.895507         30.9423         16.6653 
       0.911279         29.9197         16.0298 
        0.92691         29.2401         15.4332 
       0.942635          28.109         14.8642 
       0.958396         27.7891         14.3229 
       0.974128         26.9493           13.81 
       0.989692         26.6343         13.3276 
        1.00528         26.0137         12.8679 
        1.02113         25.0559         12.4229 
        1.03692         24.5463         12.0008 
        1.05264         24.1976         11.6006 
        1.06832         23.5439         11.2194 
        1.08405         23.0358         10.8545 
        1.09979         22.5905         10.5059 
        1.11537         22.1027         10.1762 
        1.13105         21.8363         9.85881 
        1.14679         21.5139         9.55391 
        1.16256         20.7433         9.26146 
        1.17828         20.6346         8.98236 
        1.19395         20.0533         8.71583 
         1.2097         19.8857         8.45888 
        1.22537         19.4285         8.21365 
          1.241         19.0773         7.97899 
        1.25666          18.602         7.75302 
        1.27241         18.2818         7.53485 
        1.28819         17.9054         7.32479 
        1.30392         17.7698         7.12345 
        1.31957         17.5555         6.93066 
        1.33529          17.285         6.74437 
        1.35108         16.8743         6.56428 
        1.36674         16.6662         6.39212 
         1.3824          16.294         6.22637 
        1.39811         16.0794         6.06601 
        1.41389         15.9143         5.91074 
        1.42964         15.6528         5.76123 
        1.44531         15.5452         5.61768 
        1.46101         15.0816         5.47877 
        1.47667         14.9308         5.34502 
        1.49229         14.7537         5.21614 
        1.50793         14.5514         5.09141 
        1.52367         14.3413            4.97 
        1.53953         14.1573         4.85178 
        1.55526         13.9275         4.73839 
        1.57092         13.7021         4.62912 
        1.58662         13.6013         4.52308 
        1.60235         13.3755         4.42019 
        1.61809         13.2223         4.32048 
        1.63369         13.0364         4.22476 
        1.64941         12.8139         4.13129 
        1.66519         12.7425         4.04034 
        1.68085          12.542          3.9528 
        1.69652         12.3724         3.86785 
        1.71228         12.2178         3.78495 
        1.72806         12.1344         3.70443 
        1.74368          11.923         3.62709 
        1.75933         11.8042         3.55182 
        1.77505         11.6639         3.47835 
        1.79081           11.47         3.40686 
         1.8065         11.4105          3.3377 
        1.82218          11.205         3.27054 
        1.83797         11.0956         3.20478 
        1.85367         10.9602         3.14121 
        1.86928         10.9267         3.07977 
        1.88497         10.6996         3.01965 
        1.90073         10.6841         2.96093 
        1.91647         10.5467         2.90384 
        1.93218         10.4516         2.84839 
        1.94787         10.3033         2.79448 
        1.96363         10.2273         2.74177 
        1.97935         10.0656         2.69053 
        1.99499         9.93005         2.64091 
        2.01064         9.85736         2.59248 
         2.0264         9.77839         2.54497 
        2.04216         9.65645         2.49869 
        2.05781         9.50976         2.45386 
        2.07353         9.46628         2.40998 
        2.08928         9.35994         2.36709 
        2.10499         9.31201         2.32537 
        2.12065         9.15988         2.28479 
        2.13633         9.13935         2.24515 
        2.15211         8.99132          2.2062 
        2.16785         8.94632         2.16829 
        2.18349         8.87794         2.13152 
        2.19916         8.76786         2.09554 
        2.21489         8.66887         2.06027 
        2.23063         8.58772          2.0258 
         2.2463         8.49147         1.99228 
        2.26194         8.41048         1.95961 
        2.27765         8.37679          1.9275 
        2.29341         8.28653         1.89605 
        2.30914         8.16232         1.86536 
        2.32486         8.10473         1.83538 
        2.34061         8.04919         1.80601 
        2.35635         7.99127         1.77732 
        2.37203         7.92391         1.74935 
        2.38768         7.78707         1.72205 
        2.40339         7.76758         1.69524 
        2.41914         7.65784         1.66894 
        2.43483         7.63922          1.6433 
         2.4505         7.57071         1.61824 
        2.46622         7.49031         1.59363 
        2.48195         7.42156         1.56953 
        2.49759         7.37889         1.54606 
        2.51328         7.29802         1.52301 
        2.52906         7.26069         1.50029 
        2.54479         7.18511         1.47813 
        2.56049         7.13747         1.45646 
        2.57618         7.08298         1.43524 
        2.59189         6.97925         1.41442 
        2.60758         6.97453         1.39405 
        2.62325         6.89745         1.37411 
        2.63898         6.80368         1.35449 
        2.65468         6.74244          1.3353 
        2.67044         6.72035         1.31641 
        2.68618         6.66976         1.29792 
        2.70184         6.60875         1.27987 
        2.71755         6.54703         1.26211 
        2.73329         6.49907         1.24468 
        2.74897         6.46847         1.22762 
        2.76462         6.42171         1.21093 
        2.78034         6.34163         1.19449 
        2.79607         6.30296         1.17833 
        2.81179         6.26981         1.16249 
        2.82749         6.20637         1.14697 
        2.84321          6.1976         1.13171 
        2.85893         6.13836         1.11674 
        2.87462         6.05882         1.10207 
        2.89033         6.02038         1.08765 
        2.90605         5.96687         1.07347 
        2.92176         5.91864         1.05956 
        2.93747         5.87706         1.04591 
        2.95318          5.8596         1.03249 
        2.96891         5.79582          1.0193 
        2.98456         5.74692         1.00641 
        3.00023          5.6931        0.993721 
        3.01596         5.66485        0.981213 
        3.03164         5.64205        0.968959 
        3.04738         5.60274        0.956879 
         3.0631         5.53847        0.945011 
        3.07883         5.49566        0.933346 
        3.09456         5.46398        0.921881 
        3.11026         5.43807        0.910627 
        3.12596         5.39979        0.899565 
        3.14163         5.34228        0.888713 
        3.15734         5.30584        0.878016 
        3.17308         5.27499        0.867471 
        3.18879         5.22825        0.857129 
        3.20447         5.21709        0.846972 
         3.2202         5.14416         0.83695 
         3.2359         5.13694        0.827109 
        3.25157         5.08213        0.817451 
        3.26729         5.07114        0.807919 
        3.28304         5.02243        0.798521 
        3.29877          4.9771        0.789287 
        3.31446         4.94291         0.78022 
        3.33014         4.92076        0.771304 
        3.34585         4.89171        0.762515 
        3.36158         4.85142        0.753851 
        3.37727         4.82655         0.74535 
        3.39294         4.81046        0.736989 
        3.40867         4.74646        0.728727 
        3.42439         4.73775        0.720597 
        3.44008         4.68969        0.712608 
        3.45578         4.65442        0.704735 
        3.47153         4.62897        0.696965 
        3.48724         4.59945        0.689326 
        3.50292         4.57164         0.68182 
        3.51859         4.54198        0.674431 
        3.53431         4.49744        0.667129 
        3.55007         4.48534        0.659918 
        3.56577         4.45762        0.652843 
        3.58146         4.43224        0.645876 
        3.59719         4.40138        0.638995 
        3.61292         4.37459        0.632217 
        3.62859         4.33069        0.625564 
        3.64429         4.30757        0.618995 
        3.66003         4.28239        0.612501 
        3.67578         4.26111        0.606102 
        3.69146         4.21102        0.599821 
        3.70712         4.20571         0.59364 
        3.72284         4.17678        0.587524 
        3.73853         4.14818        0.581505 
        3.75422         4.12084         0.57557 
        3.76993         4.09572        0.569712 
        3.78564         4.06945        0.563939 
        3.80137         4.05478        0.558238 
        3.81707         4.02004        0.552628 
        3.83279         3.98784         0.54709 
        3.84853         3.95422        0.541621 
        3.86424         3.93281        0.536237 
        3.87992         3.91172        0.530935 
        3.89561         3.90349        0.525705 
        3.91134         3.85887        0.520536 
        3.92704         3.83483        0.515442 
        3.94273          3.8164        0.510422 
        3.95845         3.79563        0.505461 
        3.97418         3.77199        0.500564 
        3.98988         3.75173         0.49574 
        4.00554         3.72168        0.490993 
        4.02125         3.68923        0.486295 
        4.03698         3.66905        0.481651 
        4.05268         3.63976         0.47708 
        4.06839         3.62823        0.472564 
         4.0841         3.59836        0.468109 
        4.09983         3.56935        0.463706 
        4.11555         3.54695        0.459361 
        4.13124          3.5264        0.455084 
        4.14693         3.50323        0.450859 
        4.16266          3.4858        0.446678 
        4.17839         3.46106        0.442553 
        4.19408         3.43292        0.438489 
        4.20977         3.41521        0.434475 
        4.22551         3.38125        0.430503 
        4.24123         3.36721        0.426584 
        4.25691         3.34758        0.422725 
        4.27259         3.33847        0.418913 
        4.28831         3.30839        0.415141 
        4.30404         3.28437        0.411412 
        4.31974         3.26664        0.407737 
        4.33543         3.24407         0.40411 
        4.35116         3.21757        0.400518 
        4.36688         3.21099        0.396972 
        4.38255          3.1863        0.393482 
        4.39825         3.16968        0.390027 
        4.41398         3.15867        0.386607 
         4.4297         3.12911        0.383231 
        4.44541          3.1145        0.379897 
        4.46111         3.09768        0.376606 
        4.47683          3.0641        0.373351 
        4.49251         3.05698        0.370142 
        4.50819         3.03532        0.366971 
         4.5239         3.02019        0.363834 
        4.53962         3.00492        0.360729 
        4.55535          2.9858         0.35766 
        4.57106         2.97184         0.35463 
        4.58678         2.94873        0.351636 
         4.6025         2.93126        0.348676 
        4.61821          2.9195         0.34575 
        4.63391         2.90255        0.342862 
         4.6496         2.88446        0.340009 
        4.66532         2.85819        0.337184 
        4.68103         2.84373        0.334392 
        4.69673         2.82807        0.331635 
        4.71241         2.80925        0.328912 
        4.72811         2.79781        0.326215 
        4.74384         2.78584        0.323545 
        4.75955          2.7711         0.32091 
        4.77525         2.75689        0.318305 
        4.79096         2.73245        0.315727 
        4.80669         2.72136        0.313176 
         4.8224         2.71426        0.310656 
        4.83809            2.69        0.308167 
        4.85379         2.67974        0.305703 
         4.8695          2.6672        0.303265 
        4.88521         2.64588        0.300855 
        4.90093         2.63289        0.298471 
        4.91663         2.61675        0.296115 
        4.93234         2.60096        0.293782 
        4.94807         2.59111        0.291473 
        4.96377         2.57357        0.289193 
        4.97943         2.56057        0.286942 
        4.99514         2.54237         0.28471 
        5.01086         2.52755          0.2825 
        5.02654         2.51403        0.280319 
        5.04227         2.50799        0.278155 
          5.058         2.49455        0.276014 
        5.07371         2.47638        0.273899 
        5.08942         2.46392        0.271806 
        5.10513          2.4522        0.269734 
        5.12084          2.4385        0.267684 
        5.13656         2.42905        0.265655 
        5.15225         2.40987        0.263651 
        5.16796         2.39495        0.261665 
        5.18369         2.38281        0.259698 
         5.1994         2.37542        0.257754 
        5.21509         2.36048        0.255832 
        5.23079          2.3507        0.253928 
        5.24649         2.33686        0.252045 
        5.26217         2.32751        0.250182 
        5.27788         2.30737        0.248335 
        5.29359          2.3004        0.246507 
        5.30933         2.28985        0.244695 
        5.32504         2.27331        0.242904 
        5.34073         2.26459        0.241134 
        5.35646         2.25082        0.239377 
        5.37218         2.23547        0.237638 
        5.38789         2.23676        0.235919 
        5.40357         2.22337        0.234219 
        5.41929         2.20939        0.232532 
        5.43502         2.19703        0.230862 
         5.4507         2.18813        0.229212 
        5.46639         2.17603        0.227579 
        5.48212         2.16671        0.225957 
        5.49786         2.15893         0.22435 
        5.51353         2.13949        0.222766 
        5.52921         2.13444        0.221196 
        5.54495         2.12314        0.219637 
        5.56066         2.11587        0.218094 
        5.57637         2.10237        0.216567 
        5.59207         2.09393        0.215055 
        5.60778         2.08797        0.213558 
        5.62346         2.07553        0.212077 
        5.63916         2.06014        0.210609 
        5.65487         2.05239        0.209154 
         5.6706         2.04343        0.207711 
        5.68633         2.03261        0.206282 
        5.70203         2.02203        0.204868 
        5.71773         2.01627        0.203469 
        5.73344         2.00579        0.202082 
        5.74916         1.99103        0.200706 
        5.76486         1.98838        0.199346 
        5.78054         1.97907           0.198 
        5.79626         1.96607        0.196663 
          5.812         1.95684        0.195337 
         5.8277         1.94594        0.194027 
        5.84339         1.93859         0.19273 
        5.85911         1.93201        0.191441 
        5.87484         1.92463        0.190165 
        5.89053         1.91306        0.188903 
        5.90623         1.90577        0.187652 
        5.92195         1.89431        0.186411 
        5.93767         1.88941        0.185181 
        5.95336         1.87483        0.183965 
        5.96905         1.87064        0.182759 
        5.98476         1.85754        0.181564 
        6.00048         1.85004        0.180378 
        6.01617         1.84545        0.179205 
        6.03185         1.83767        0.178044 
        6.04756         1.82569         0.17689 
        6.06331         1.81921        0.175744 
        6.07903          1.8087        0.174611 
        6.09473         1.80646        0.173489 
        6.11044         1.79622        0.172376 
        6.12616         1.78629        0.171272 
        6.14186         1.78049         0.17018 
        6.15755         1.77086        0.169097 
        6.17326         1.76454        0.168023 
        6.18898         1.75465        0.166958 
        6.20467         1.74936        0.165904 
        6.22036         1.74008        0.164859 
         6.2361         1.73172        0.163821 
         6.2518          1.7253        0.162793 
        6.26748         1.71572        0.161777 
        6.28319          1.7108        0.160766 
        6.29893         1.70745        0.159763 
        6.31463         1.69627         0.15877 
        6.33033         1.68672        0.157787 
        6.34604           1.679        0.156811 
        6.36177         1.67698        0.155842 
        6.37747         1.66793        0.154883 
