# k  (h/Mpc)    Pcb(k)  (Mpc/h)^3    Pcb_linear(k) (Mpc/h)^3   ShotnoiseSubtracted = true
      0.0200456         308.286          312.84 
      0.0350414         214.925         214.801 
      0.0492313         148.763         147.854 
      0.0637834         124.403         123.433 
      0.0800726         101.399         101.448 
       0.096163         71.7285         71.6642 
       0.111083         54.7001         54.5992 
       0.126058         49.0624         48.9512 
       0.142273         43.2979         43.3234 
       0.158546         34.1424         33.9396 
        0.17375          27.437         27.4049 
       0.188953         24.8641         24.7827 
       0.204907         23.0697         22.7762 
       0.220756         19.5691         19.4542 
        0.23588         16.6013         16.4436 
         0.2514         14.7978           14.74 
       0.267535         13.6766          13.643 
       0.283568         12.2825         12.2282 
       0.299022         10.8703          10.757 
       0.314451         9.68697         9.69693 
       0.330372         9.00014         8.97185 
       0.346141         8.27822         8.25775 
       0.361624         7.54649         7.49292 
       0.377134         6.92433         6.83284 
       0.392932         6.26973          6.3271 
       0.408854         5.94045         5.88203 
       0.424564         5.46145         5.43795 
       0.440253         5.05318         5.02276 
       0.455999         4.72956         4.67403 
       0.471626         4.43958         4.37573 
        0.48727         4.12791         4.09314 
       0.502856          3.8449         3.82592 
       0.518488         3.64938         3.58465 
       0.534347          3.4564         3.36911 
       0.550082         3.19399          3.1725 
       0.565732         2.96731         2.98886 
       0.581496          2.8547         2.81744 
       0.597222         2.70813         2.66236 
       0.612804         2.54546         2.52117 
       0.628434         2.43774         2.38925 
       0.644267           2.299         2.26433 
       0.660051         2.17217         2.14902 
       0.675724         2.07203         2.04319 
       0.691403         1.98377          1.9446 
       0.707174         1.87803         1.85196 
       0.722871         1.78448         1.76573 
        0.73838          1.7168         1.68593 
       0.754018         1.65205         1.61047 
       0.769845         1.56954         1.53882 
        0.78569         1.50214         1.47148 
       0.801365         1.43328         1.40887 
       0.817031         1.37882         1.34997 
       0.832809         1.32062         1.29411 
       0.848511         1.26018         1.24169 
       0.864097         1.20511         1.19259 
       0.879701         1.15858         1.14613 
       0.895507         1.12098         1.10164 
       0.911279         1.08368         1.05963 
        0.92691         1.03959          1.0202 
       0.942635         1.00012        0.982577 
       0.958396        0.959971        0.946801 
       0.974128        0.926401        0.912895 
       0.989692        0.898554        0.881008 
        1.00528        0.866278        0.850616 
        1.02113        0.829178          0.8212 
        1.03692        0.808495        0.793301 
        1.05264        0.779995        0.766842 
        1.06832        0.756374        0.741645 
        1.08405        0.723834        0.717526 
        1.09979        0.702307        0.694479 
        1.11537        0.685484        0.672684 
        1.13105        0.663842        0.651705 
        1.14679        0.646848         0.63155 
        1.16256        0.619092        0.612218 
        1.17828        0.601716        0.593768 
        1.19395        0.582613        0.576149 
         1.2097        0.562017        0.559164 
        1.22537        0.551532        0.542953 
          1.241        0.534662        0.527442 
        1.25666        0.524349        0.512504 
        1.27241        0.503479        0.498082 
        1.28819        0.489269        0.484196 
        1.30392        0.477563        0.470887 
        1.31957        0.465126        0.458142 
        1.33529        0.450855        0.445829 
        1.35108        0.438043        0.433924 
        1.36674        0.422939        0.422543 
         1.3824        0.417559        0.411586 
        1.39811        0.404148        0.400986 
        1.41389        0.394704        0.390722 
        1.42964        0.386135        0.380839 
        1.44531        0.372603         0.37135 
        1.46101        0.365626        0.362167 
        1.47667        0.352679        0.353326 
        1.49229        0.347598        0.344807 
        1.50793        0.336831        0.336562 
        1.52367        0.330165        0.328536 
        1.53953        0.321669        0.320721 
        1.55526        0.314497        0.313225 
        1.57092        0.305011        0.306002 
        1.58662         0.29972        0.298993 
        1.60235        0.293549        0.292191 
        1.61809        0.283491          0.2856 
        1.63369        0.281263        0.279273 
        1.64941        0.273094        0.273094 
        1.66519        0.266234        0.267082 
        1.68085        0.259301        0.261295 
        1.69652        0.253852         0.25568 
        1.71228        0.249721        0.250199 
        1.72806        0.242169        0.244877 
        1.74368        0.239171        0.239764 
        1.75933        0.232977        0.234788 
        1.77505        0.227712        0.229932 
        1.79081        0.223922        0.225206 
         1.8065        0.217002        0.220634 
        1.82218        0.213961        0.216195 
        1.83797        0.208801        0.211848 
        1.85367        0.205537        0.207646 
        1.86928        0.201265        0.203584 
        1.88497        0.197297         0.19961 
        1.90073        0.192547        0.195729 
        1.91647        0.188972        0.191955 
        1.93218        0.184778        0.188289 
        1.94787        0.181238        0.184726 
        1.96363        0.177773        0.181241 
        1.97935        0.173518        0.177854 
        1.99499        0.170878        0.174574 
        2.01064        0.167738        0.171373 
         2.0264        0.163813        0.168232 
        2.04216        0.161978        0.165173 
        2.05781        0.158257         0.16221 
        2.07353        0.154271        0.159309 
        2.08928        0.151641        0.156474 
        2.10499        0.148921        0.153716 
        2.12065        0.146967        0.151033 
        2.13633        0.143583        0.148413 
        2.15211        0.141834        0.145838 
        2.16785        0.138564        0.143332 
        2.18349        0.135245        0.140902 
        2.19916        0.134173        0.138523 
        2.21489        0.131281        0.136192 
        2.23063        0.129346        0.133913 
         2.2463        0.126641        0.131697 
        2.26194        0.124104        0.129537 
        2.27765         0.12202        0.127415 
        2.29341        0.120324        0.125336 
        2.30914        0.117798        0.123307 
        2.32486        0.115856        0.121325 
        2.34061        0.113987        0.119384 
        2.35635        0.111841        0.117487 
        2.37203        0.109923        0.115639 
        2.38768        0.108096        0.113834 
        2.40339          0.1064        0.112062 
        2.41914        0.104934        0.110323 
        2.43483        0.102886        0.108628 
         2.4505        0.100776        0.106972 
        2.46622       0.0992486        0.105345 
        2.48195        0.097486        0.103752 
        2.49759       0.0966004          0.1022 
        2.51328       0.0950778        0.100677 
        2.52906       0.0932296       0.0991751 
        2.54479       0.0915347       0.0977098 
        2.56049       0.0901301       0.0962773 
        2.57618       0.0887836       0.0948749 
        2.59189       0.0875027       0.0934987 
        2.60758       0.0865004       0.0921521 
        2.62325       0.0847643       0.0908339 
        2.63898       0.0835382       0.0895371 
        2.65468       0.0818033       0.0882685 
        2.67044       0.0811305       0.0870193 
        2.68618       0.0797978       0.0857974 
        2.70184        0.078355        0.084604 
        2.71755       0.0768946       0.0834305 
        2.73329       0.0761489       0.0822777 
        2.74897        0.075221       0.0811506 
        2.76462       0.0736989       0.0800473 
        2.78034       0.0728493       0.0789601 
        2.79607       0.0714952       0.0778921 
        2.81179       0.0708922       0.0768453 
        2.82749       0.0695719        0.075819 
        2.84321       0.0685541       0.0748105 
        2.85893       0.0677292       0.0738208 
        2.87462       0.0669793       0.0728508 
        2.89033       0.0658307       0.0718975 
        2.90605       0.0646062       0.0709606 
        2.92176       0.0640053        0.070041 
        2.93747       0.0629994       0.0691383 
        2.95318       0.0619865       0.0682514 
        2.96891       0.0612863       0.0673798 
        2.98456       0.0605836       0.0665274 
        3.00023       0.0595772       0.0656887 
        3.01596       0.0587896       0.0648619 
        3.03164       0.0582859       0.0640518 
        3.04738       0.0572171       0.0632533 
         3.0631       0.0563529       0.0624688 
        3.07883       0.0556943       0.0616977 
        3.09456       0.0550807       0.0609398 
        3.11026       0.0542367       0.0601959 
        3.12596       0.0536802       0.0594646 
        3.14163       0.0529125       0.0587473 
        3.15734       0.0523196       0.0580402 
        3.17308       0.0516449       0.0573431 
        3.18879       0.0508602       0.0566595 
        3.20447       0.0503807       0.0559881 
         3.2202       0.0498455       0.0553255 
         3.2359       0.0491865        0.054675 
        3.25157       0.0484549       0.0540366 
        3.26729       0.0478494       0.0534065 
        3.28304       0.0474178       0.0527853 
        3.29877       0.0467869       0.0521748 
        3.31446       0.0462442       0.0515755 
        3.33014       0.0458524       0.0509861 
        3.34585       0.0452116       0.0504051 
        3.36158       0.0446236       0.0498324 
        3.37727       0.0441564       0.0492704 
        3.39294       0.0437628       0.0487177 
        3.40867       0.0431534       0.0481716 
        3.42439       0.0426964       0.0476342 
        3.44008       0.0421635       0.0471061 
        3.45578       0.0419264       0.0465856 
        3.47153       0.0412708        0.046072 
        3.48724       0.0410388        0.045567 
        3.50292       0.0404537       0.0450709 
        3.51859       0.0399628       0.0445824 
        3.53431        0.039685       0.0440997 
        3.55007       0.0392311       0.0436231 
        3.56577       0.0388762       0.0431554 
        3.58146       0.0384649       0.0426948 
        3.59719       0.0381475         0.04224 
        3.61292       0.0376696       0.0417919 
        3.62859       0.0372847       0.0413521 
        3.64429       0.0369958       0.0409179 
        3.66003       0.0365522       0.0404886 
        3.67578       0.0362418       0.0400657 
        3.69146       0.0358821       0.0396504 
        3.70712       0.0357067       0.0392418 
        3.72284       0.0353156       0.0388375 
        3.73853         0.03492       0.0384397 
        3.75422       0.0347876       0.0380473 
        3.76993       0.0342217       0.0376601 
        3.78564       0.0340671       0.0372785 
        3.80137       0.0336644       0.0369016 
        3.81707       0.0333702       0.0365308 
        3.83279       0.0331919       0.0361647 
        3.84853       0.0328812       0.0358032 
        3.86424       0.0326218       0.0354473 
        3.87992       0.0322791       0.0350968 
        3.89561       0.0320123       0.0347511 
        3.91134       0.0317726       0.0344094 
        3.92704       0.0314567       0.0340727 
        3.94273       0.0311961       0.0337408 
        3.95845       0.0309221       0.0334128 
        3.97418       0.0306797       0.0330892 
        3.98988       0.0303439       0.0327703 
        4.00554       0.0300493       0.0324565 
        4.02125       0.0296497       0.0321459 
        4.03698       0.0292206        0.031839 
        4.05268       0.0288858       0.0315368 
        4.06839       0.0284767       0.0312383 
         4.0841       0.0280441       0.0309438 
        4.09983       0.0276032       0.0306527 
        4.11555       0.0273342       0.0303655 
        4.13124       0.0269546       0.0300828 
        4.14693       0.0265153       0.0298035 
        4.16266       0.0261731       0.0295271 
        4.17839       0.0259323       0.0292544 
        4.19408       0.0256119       0.0289858 
        4.20977       0.0252767       0.0287205 
        4.22551       0.0249114       0.0284578 
        4.24123       0.0246867       0.0281988 
        4.25691       0.0243931       0.0279437 
        4.27259       0.0241228       0.0276918 
        4.28831       0.0239312       0.0274424 
        4.30404       0.0236866       0.0271959 
        4.31974       0.0234794        0.026953 
        4.33543       0.0232848       0.0267132 
        4.35116       0.0230523       0.0264758 
        4.36688       0.0228939       0.0262413 
        4.38255       0.0226642       0.0260107 
        4.39825       0.0225336       0.0257823 
        4.41398       0.0224413       0.0255562 
         4.4297       0.0223074        0.025333 
        4.44541       0.0221446       0.0251126 
        4.46111       0.0219637       0.0248951 
        4.47683       0.0219675       0.0246799 
        4.49251       0.0217759       0.0244678 
        4.50819       0.0217156       0.0242582 
         4.5239       0.0215695       0.0240508 
        4.53962       0.0215829       0.0238456 
        4.55535       0.0215302       0.0236426 
        4.57106        0.021523       0.0234424 
        4.58678       0.0213568       0.0232445 
         4.6025       0.0213804       0.0230488 
        4.61821        0.021377       0.0228554 
        4.63391         0.02136       0.0226645 
         4.6496       0.0213393       0.0224759 
        4.66532       0.0213993       0.0222891 
        4.68103       0.0214109       0.0221046 
        4.69673       0.0214088       0.0219223 
        4.71241       0.0214924       0.0217423 
        4.72811       0.0214304        0.021564 
        4.74384       0.0215721       0.0213876 
        4.75955       0.0216175       0.0212133 
        4.77525       0.0217054       0.0210412 
        4.79096        0.021738       0.0208707 
        4.80669       0.0218606       0.0207021 
         4.8224       0.0220244       0.0205355 
        4.83809       0.0221788        0.020371 
        4.85379       0.0222539       0.0202081 
         4.8695         0.02239        0.020047 
        4.88521       0.0225152       0.0198877 
        4.90093       0.0227275         0.01973 
        4.91663       0.0228961       0.0195743 
        4.93234       0.0230295       0.0194201 
        4.94807       0.0231099       0.0192674 
        4.96377       0.0234357       0.0191167 
        4.97943       0.0236843        0.018968 
        4.99514       0.0237805       0.0188204 
        5.01086       0.0240922       0.0186743 
        5.02654       0.0242844       0.0185302 
        5.04227       0.0246287       0.0183871 
          5.058       0.0247988       0.0182455 
        5.07371       0.0249124       0.0181057 
        5.08942       0.0254322       0.0179674 
        5.10513       0.0257999       0.0178305 
        5.12084       0.0259426       0.0176949 
        5.13656       0.0263891       0.0175608 
        5.15225       0.0266996       0.0174284 
        5.16796       0.0270316        0.017297 
        5.18369       0.0272804        0.017167 
         5.1994       0.0277793       0.0170385 
        5.21509       0.0281053       0.0169115 
        5.23079       0.0284222       0.0167856 
        5.24649       0.0289261       0.0166611 
        5.26217       0.0293391        0.016538 
        5.27788       0.0297681       0.0164159 
        5.29359       0.0303155       0.0162951 
        5.30933       0.0306608       0.0161753 
        5.32504       0.0311294       0.0160569 
        5.34073       0.0317505       0.0159398 
        5.35646       0.0321781       0.0158237 
        5.37218       0.0327137       0.0157088 
        5.38789       0.0334609       0.0155951 
        5.40357       0.0338906       0.0154828 
        5.41929       0.0345228       0.0153713 
        5.43502           0.035       0.0152609 
         5.4507       0.0355749       0.0151518 
        5.46639       0.0363413       0.0150438 
        5.48212       0.0369518       0.0149366 
        5.49786       0.0376486       0.0148304 
        5.51353       0.0385445       0.0147257 
        5.52921       0.0391825       0.0146219 
        5.54495       0.0400841       0.0145188 
        5.56066       0.0407823       0.0144168 
        5.57637        0.041392       0.0143159 
        5.59207       0.0423137        0.014216 
        5.60778       0.0431951        0.014117 
        5.62346       0.0441337       0.0140191 
        5.63916       0.0448741        0.013922 
        5.65487       0.0456515       0.0138259 
         5.6706       0.0465183       0.0137305 
        5.68633       0.0478854        0.013636 
        5.70203       0.0485325       0.0135426 
        5.71773       0.0496988       0.0134501 
        5.73344       0.0506093       0.0133584 
        5.74916       0.0520581       0.0132675 
        5.76486       0.0530225       0.0131775 
        5.78054       0.0541618       0.0130885 
        5.79626       0.0551982       0.0130002 
          5.812       0.0565808       0.0129125 
         5.8277        0.057698       0.0128259 
        5.84339       0.0588742       0.0127401 
        5.85911       0.0601961        0.012655 
        5.87484       0.0616596       0.0125706 
        5.89053       0.0629701       0.0124872 
        5.90623       0.0647332       0.0124045 
        5.92195       0.0660749       0.0123224 
        5.93767       0.0675536       0.0122412 
        5.95336       0.0689327       0.0121607 
        5.96905       0.0710282       0.0120811 
        5.98476       0.0722077        0.012002 
        6.00048       0.0736567       0.0119237 
        6.01617       0.0756795       0.0118461 
        6.03185       0.0773697       0.0117694 
        6.04756       0.0794483       0.0116931 
        6.06331       0.0812972       0.0116173 
        6.07903       0.0830177       0.0115424 
        6.09473       0.0851493       0.0114683 
        6.11044       0.0875622       0.0113947 
        6.12616       0.0896284       0.0113217 
        6.14186       0.0917605       0.0112495 
        6.15755       0.0939433        0.011178 
        6.17326       0.0960268        0.011107 
        6.18898       0.0987982       0.0110366 
        6.20467        0.101078       0.0109669 
        6.22036        0.103143       0.0108978 
         6.2361        0.105811       0.0108292 
         6.2518        0.108423       0.0107612 
        6.26748        0.110854        0.010694 
        6.28319         0.11483       0.0106272 
        6.29893        0.117099       0.0105609 
        6.31463        0.119967       0.0104953 
        6.33033        0.122736       0.0104303 
        6.34604        0.126034       0.0103658 
        6.36177        0.128584       0.0103017 
        6.37747         0.13323       0.0102384 
