# k  (h/Mpc)    Pcb(k)  (Mpc/h)^3    Pcb_linear(k) (Mpc/h)^3   ShotnoiseSubtracted = true
      0.0200456         14018.6           14311 
      0.0350414         9509.05         9826.13 
      0.0492313         6712.74         6763.63 
      0.0637834         5793.66         5646.48 
      0.0800726         4702.47         4640.76 
       0.096163         3208.65          3278.3 
       0.111083         2469.57         2497.66 
       0.126058         2289.97         2239.29 
       0.142273         2040.57         1981.84 
       0.158546         1713.99         1552.58 
        0.17375         1338.06         1253.65 
       0.188953         1295.87         1133.69 
       0.204907         1235.82          1041.9 
       0.220756         1057.84          889.94 
        0.23588         927.317          752.22 
         0.2514         802.876         674.287 
       0.267535          791.26         624.102 
       0.283568         720.475         559.385 
       0.299022         673.171         492.084 
       0.314451         634.151          443.59 
       0.330372         584.442         410.421 
       0.346141         534.261         377.754 
       0.361624         515.449         342.766 
       0.377134         477.704         312.571 
       0.392932         455.471         289.435 
       0.408854         438.444         269.076 
       0.424564          414.27         248.761 
       0.440253         403.562         229.768 
       0.455999         379.786         213.815 
       0.471626         357.652         200.169 
        0.48727         345.691         187.242 
       0.502856         334.916         175.018 
       0.518488         331.701         163.981 
       0.534347         311.293         154.121 
       0.550082         294.474         145.127 
       0.565732         291.402         136.727 
       0.581496         275.573         128.885 
       0.597222         269.966          121.79 
       0.612804         261.691         115.332 
       0.628434         251.724         109.297 
       0.644267         244.107         103.582 
       0.660051         240.629         98.3076 
       0.675724         235.723         93.4665 
       0.691403         229.098         88.9564 
       0.707174         220.431         84.7186 
       0.722871          217.85         80.7741 
        0.73838         213.905         77.1235 
       0.754018         208.367         73.6715 
       0.769845         201.551         70.3938 
        0.78569         200.564         67.3136 
       0.801365         193.768         64.4492 
       0.817031         187.826         61.7549 
       0.832809         186.081         59.1993 
       0.848511         180.935         56.8017 
       0.864097         178.843         54.5554 
       0.879701         175.023         52.4302 
       0.895507         170.421         50.3948 
       0.911279         165.939         48.4732 
        0.92691         165.904         46.6692 
       0.942635         161.545         44.9483 
       0.958396         160.995         43.3117 
       0.974128         156.835         41.7607 
       0.989692         153.366          40.302 
        1.00528         151.024         38.9117 
        1.02113         149.963         37.5661 
        1.03692         145.278         36.2898 
        1.05264         142.811         35.0794 
        1.06832         140.265         33.9268 
        1.08405          138.39         32.8235 
        1.09979         137.645         31.7692 
        1.11537         133.606         30.7721 
        1.13105         132.517         29.8124 
        1.14679         131.755         28.8905 
        1.16256         129.804         28.0061 
        1.17828         127.248         27.1621 
        1.19395         125.093         26.3561 
         1.2097         123.681         25.5791 
        1.22537         122.595         24.8376 
          1.241         120.146          24.128 
        1.25666         118.378         23.4447 
        1.27241         116.257         22.7849 
        1.28819         115.143         22.1497 
        1.30392         113.427         21.5409 
        1.31957         112.538         20.9579 
        1.33529         109.782         20.3946 
        1.35108         108.754           19.85 
        1.36674          107.83         19.3294 
         1.3824         105.708         18.8282 
        1.39811         104.833         18.3432 
        1.41389         103.428         17.8737 
        1.42964         101.373         17.4216 
        1.44531         99.5104         16.9875 
        1.46101         98.7013         16.5675 
        1.47667         98.0051          16.163 
        1.49229         96.3317         15.7733 
        1.50793         95.5822         15.3961 
        1.52367         94.2228          15.029 
        1.53953         92.7666         14.6715 
        1.55526          92.035         14.3286 
        1.57092         91.2764         13.9982 
        1.58662         89.1273         13.6775 
        1.60235         89.0071         13.3664 
        1.61809         87.4167         13.0649 
        1.63369         86.6368         12.7754 
        1.64941         85.9785         12.4928 
        1.66519         83.8555         12.2177 
        1.68085         83.5795          11.953 
        1.69652         81.7222         11.6962 
        1.71228         81.6744         11.4455 
        1.72806         80.5621          11.202 
        1.74368         79.5487         10.9681 
        1.75933         78.2875         10.7405 
        1.77505         77.8592         10.5183 
        1.79081         76.5791         10.3021 
         1.8065         75.7303          10.093 
        1.82218         74.7535          9.8899 
        1.83797          73.859         9.69106 
        1.85367         73.3133         9.49884 
        1.86928         72.9841         9.31304 
        1.88497         71.5316         9.13124 
        1.90073         70.6303         8.95367 
        1.91647         70.1647         8.78103 
        1.93218         69.2015         8.61335 
        1.94787         68.4728         8.45033 
        1.96363         67.5953         8.29093 
        1.97935         67.1682         8.13601 
        1.99499         66.0889         7.98596 
        2.01064         65.6111         7.83951 
         2.0264         64.3217         7.69585 
        2.04216          63.891         7.55589 
        2.05781         63.1178         7.42033 
        2.07353         62.1623         7.28765 
        2.08928         61.5684         7.15794 
        2.10499         61.0984         7.03178 
        2.12065         60.5765         6.90906 
        2.13633         59.8642         6.78919 
        2.15211         59.5098         6.67141 
        2.16785         58.8717         6.55679 
        2.18349         58.2664          6.4456 
        2.19916         57.4782         6.33678 
        2.21489         57.0251         6.23013 
        2.23063         56.5584         6.12589 
         2.2463         55.8298         6.02453 
        2.26194         54.9578         5.92573 
        2.27765         54.7442         5.82866 
        2.29341         54.0633         5.73353 
        2.30914         53.2571         5.64074 
        2.32486         52.4184         5.55007 
        2.34061         52.2708         5.46126 
        2.35635          51.527          5.3745 
        2.37203         50.9725         5.28993 
        2.38768         50.4918         5.20738 
        2.40339         49.9817          5.1263 
        2.41914         49.6586         5.04678 
        2.43483         49.1811         4.96923 
         2.4505         48.8237         4.89347 
        2.46622         48.1219         4.81903 
        2.48195         47.7045         4.74615 
        2.49759         46.9908         4.67519 
        2.51328         46.5391          4.6055 
        2.52906         46.1467          4.5368 
        2.54479         45.6391         4.46977 
        2.56049         45.0169         4.40424 
        2.57618         44.8126         4.34009 
        2.59189         44.1552         4.27713 
        2.60758         43.9765         4.21553 
        2.62325         43.3383         4.15523 
        2.63898          42.946          4.0959 
        2.65468         42.3901         4.03787 
        2.67044         41.7506         3.98073 
        2.68618         41.6222         3.92483 
        2.70184         41.1755         3.87024 
        2.71755         40.8743         3.81656 
        2.73329         40.3287         3.76382 
        2.74897         39.9068         3.71226 
        2.76462         39.4588         3.66179 
        2.78034         39.2563         3.61206 
        2.79607         38.7895          3.5632 
        2.81179         38.4646         3.51531 
        2.82749         37.8892         3.46837 
        2.84321         37.6497         3.42223 
        2.85893         37.3285         3.37696 
        2.87462         36.8401         3.33258 
        2.89033         36.4286         3.28898 
        2.90605         36.2633         3.24612 
        2.92176         35.7827         3.20405 
        2.93747         35.5617         3.16275 
        2.95318         35.1242         3.12218 
        2.96891         34.6745         3.08231 
        2.98456         34.5041         3.04332 
        3.00023         34.0642         3.00495 
        3.01596         33.6854         2.96713 
        3.03164         33.5123         2.93007 
        3.04738          33.233         2.89354 
         3.0631         32.7981         2.85766 
        3.07883         32.4873         2.82238 
        3.09456         32.2338         2.78771 
        3.11026          31.937         2.75368 
        3.12596         31.5972         2.72023 
        3.14163         31.2639         2.68741 
        3.15734         30.9628         2.65507 
        3.17308          30.631         2.62318 
        3.18879         30.4528         2.59191 
        3.20447         30.1424         2.56119 
         3.2202         29.7831         2.53089 
         3.2359          29.594         2.50113 
        3.25157         29.3052         2.47192 
        3.26729         29.0751          2.4431 
        3.28304         28.7431         2.41468 
        3.29877         28.3805         2.38676 
        3.31446         28.2076         2.35934 
        3.33014         27.9796         2.33238 
        3.34585         27.7896          2.3058 
        3.36158         27.4231          2.2796 
        3.37727         27.1488         2.25389 
        3.39294         26.9499         2.22861 
        3.40867         26.6703         2.20363 
        3.42439         26.4608         2.17904 
        3.44008         26.2132         2.15488 
        3.45578         25.9593         2.13108 
        3.47153         25.7386         2.10758 
        3.48724         25.4914         2.08448 
        3.50292         25.2797         2.06178 
        3.51859         25.0194         2.03944 
        3.53431         24.8712         2.01736 
        3.55007         24.5569         1.99555 
        3.56577         24.3526         1.97416 
        3.58146         24.2181         1.95309 
        3.59719         23.9004         1.93228 
        3.61292         23.7606         1.91179 
        3.62859         23.4823         1.89167 
        3.64429          23.263          1.8718 
        3.66003         23.0598         1.85216 
        3.67578         22.8892         1.83282 
        3.69146         22.7047         1.81382 
        3.70712         22.4369         1.79513 
        3.72284         22.2923         1.77664 
        3.73853         22.0941         1.75844 
        3.75422         21.8805         1.74049 
        3.76993         21.6823         1.72278 
        3.78564         21.4742         1.70532 
        3.80137          21.314         1.68808 
        3.81707         21.1608         1.67111 
        3.83279         20.9579         1.65437 
        3.84853         20.7247         1.63783 
        3.86424         20.6021         1.62155 
        3.87992         20.3996         1.60552 
        3.89561         20.2018          1.5897 
        3.91134         20.0888         1.57407 
        3.92704         19.8853         1.55867 
        3.94273          19.723         1.54349 
        3.95845         19.4838         1.52848 
        3.97418         19.4087         1.51368 
        3.98988         19.1796         1.49909 
        4.00554         19.0667         1.48473 
        4.02125         18.8811         1.47053 
        4.03698         18.6951         1.45648 
        4.05268         18.5629         1.44266 
        4.06839         18.2971         1.42901 
         4.0841         18.2908         1.41553 
        4.09983         18.0454         1.40222 
        4.11555         17.9431         1.38908 
        4.13124         17.8133         1.37615 
        4.14693         17.6598         1.36337 
        4.16266         17.4706         1.35073 
        4.17839         17.3277         1.33825 
        4.19408         17.1694         1.32596 
        4.20977         17.0677         1.31383 
        4.22551         16.8934         1.30181 
        4.24123         16.7821         1.28996 
        4.25691         16.6622          1.2783 
        4.27259         16.5128         1.26677 
        4.28831         16.3322         1.25536 
        4.30404         16.2436         1.24409 
        4.31974         16.0934         1.23297 
        4.33543         15.9811           1.222 
        4.35116         15.8148         1.21114 
        4.36688         15.6892         1.20042 
        4.38255         15.5936         1.18987 
        4.39825         15.4765         1.17942 
        4.41398          15.299         1.16908 
         4.4297         15.1931         1.15887 
        4.44541         15.0802         1.14879 
        4.46111         14.9926         1.13883 
        4.47683         14.8254         1.12899 
        4.49251         14.7294         1.11929 
        4.50819         14.5956          1.1097 
         4.5239         14.5366         1.10021 
        4.53962         14.3672         1.09082 
        4.55535         14.2675         1.08154 
        4.57106         14.1597         1.07238 
        4.58678         14.0118         1.06333 
         4.6025         13.9078         1.05437 
        4.61821         13.7834         1.04553 
        4.63391         13.7265         1.03679 
         4.6496         13.5838         1.02817 
        4.66532         13.4424         1.01962 
        4.68103         13.3521         1.01118 
        4.69673         13.2919         1.00284 
        4.71241         13.1461        0.994609 
        4.72811         13.0672        0.986454 
        4.74384         12.9513        0.978381 
        4.75955         12.8646        0.970411 
        4.77525         12.7653        0.962535 
        4.79096         12.6829        0.954738 
        4.80669         12.5532        0.947024 
         4.8224         12.4548        0.939404 
        4.83809          12.398        0.931877 
        4.85379         12.2497        0.924429 
         4.8695         12.2299        0.917056 
        4.88521         12.1047        0.909767 
        4.90093         12.0226        0.902558 
        4.91663          11.909        0.895433 
        4.93234         11.8229        0.888378 
        4.94807         11.7366        0.881395 
        4.96377         11.6423        0.874501 
        4.97943         11.5604        0.867696 
        4.99514         11.4903        0.860946 
        5.01086         11.4079        0.854263 
        5.02654         11.2909        0.847669 
        5.04227         11.2254        0.841125 
          5.058         11.1263        0.834648 
        5.07371         11.0717        0.828253 
        5.08942         10.9608        0.821924 
        5.10513         10.8963        0.815661 
        5.12084         10.8244         0.80946 
        5.13656           10.73        0.803326 
        5.15225         10.6596        0.797266 
        5.16796         10.5949        0.791259 
        5.18369         10.5102         0.78531 
         5.1994         10.4235        0.779432 
        5.21509          10.353        0.773621 
        5.23079         10.2819        0.767862 
        5.24649         10.2069        0.762167 
        5.26217         10.1034        0.756534 
        5.27788         10.0573        0.750951 
        5.29359         9.95786        0.745423 
        5.30933         9.89945        0.739943 
        5.32504         9.83143        0.734528 
        5.34073         9.76464        0.729174 
        5.35646         9.69105        0.723862 
        5.37218         9.61727        0.718603 
        5.38789         9.55923        0.713405 
        5.40357         9.50355        0.708265 
        5.41929         9.41213        0.703164 
        5.43502         9.35978        0.698113 
         5.4507         9.28408        0.693125 
        5.46639         9.21068        0.688184 
        5.48212         9.15053        0.683281 
        5.49786         9.09906         0.67842 
        5.51353         9.04197        0.673631 
        5.52921         8.96302        0.668883 
        5.54495         8.89989        0.664168 
        5.56066         8.84953        0.659503 
        5.57637         8.78168        0.654884 
        5.59207         8.72029        0.650314 
        5.60778         8.66127        0.645786 
        5.62346          8.5984        0.641308 
        5.63916         8.54594        0.636869 
        5.65487         8.48234        0.632469 
         5.6706          8.4325        0.628106 
        5.68633         8.36432        0.623783 
        5.70203         8.30682         0.61951 
        5.71773         8.23235        0.615278 
        5.73344         8.20171        0.611083 
        5.74916         8.13912        0.606924 
        5.76486         8.08905         0.60281 
        5.78054         8.03106         0.59874 
        5.79626         7.98472        0.594697 
          5.812         7.92624        0.590687 
         5.8277         7.86741        0.586727 
        5.84339         7.81914        0.582803 
        5.85911         7.75694        0.578907 
        5.87484         7.71515        0.575048 
        5.89053         7.66995        0.571232 
        5.90623         7.59819        0.567449 
        5.92195         7.56313        0.563695 
        5.93767         7.50377        0.559976 
        5.95336         7.47069        0.556298 
        5.96905         7.41094        0.552654 
        5.98476         7.36344        0.549037 
        6.00048          7.3201        0.545453 
        6.01617         7.26562        0.541905 
        6.03185         7.21318        0.538393 
        6.04756         7.16608        0.534905 
        6.06331         7.12612         0.53144 
        6.07903         7.08006        0.528013 
        6.09473         7.02786        0.524619 
        6.11044         6.97554        0.521253 
        6.12616         6.93865        0.517917 
        6.14186         6.90177        0.514614 
        6.15755         6.83687         0.51134 
        6.17326         6.78593        0.508092 
        6.18898         6.75369        0.504871 
        6.20467         6.71658        0.501684 
        6.22036         6.65607        0.498525 
         6.2361         6.62505        0.495385 
         6.2518         6.58651        0.492277 
        6.26748         6.54101        0.489203 
        6.28319         6.47938        0.486146 
        6.29893         6.46531        0.483114 
        6.31463         6.41638        0.480112 
        6.33033         6.37018        0.477137 
        6.34604         6.33258        0.474186 
        6.36177         6.29748        0.471257 
        6.37747         6.26184        0.468358 
