# k  (h/Mpc)    Pcb(k)  (Mpc/h)^3    Pcb_linear(k) (Mpc/h)^3   ShotnoiseSubtracted = true
      0.0200456         11051.9         11229.6 
      0.0350414         7932.04         7710.38 
      0.0492313          5280.9         5307.29 
      0.0637834         4302.64         4430.68 
      0.0800726         3482.68         3641.52 
       0.096163         2668.09         2572.42 
       0.111083         2083.16         1959.87 
       0.126058         1752.32         1757.13 
       0.142273         1555.46         1555.11 
       0.158546         1268.57         1218.28 
        0.17375         1077.81         983.713 
       0.188953         994.461         889.588 
       0.204907         862.955         817.562 
       0.220756         776.286         698.319 
        0.23588         680.315         590.253 
         0.2514         605.389           529.1 
       0.267535         589.462         489.721 
       0.283568         516.333         438.939 
       0.299022         489.469         386.129 
       0.314451         488.779         348.076 
       0.330372          420.25         322.049 
       0.346141         390.027         296.416 
       0.361624         371.499         268.962 
       0.377134         344.769         245.268 
       0.392932           334.8         227.114 
       0.408854         318.384         211.139 
       0.424564         306.579         195.198 
       0.440253         276.722         180.294 
       0.455999          263.33         167.777 
       0.471626         262.456         157.069 
        0.48727         249.681         146.925 
       0.502856         228.414         137.333 
       0.518488         228.781         128.673 
       0.534347         212.594         120.936 
       0.550082         207.097         113.878 
       0.565732          205.39         107.287 
       0.581496         192.014         101.133 
       0.597222         187.457         95.5667 
       0.612804         181.642         90.4986 
       0.628434         176.115         85.7634 
       0.644267         167.671         81.2792 
       0.660051         164.087         77.1401 
       0.675724         161.774         73.3414 
       0.691403         158.035         69.8024 
       0.707174         152.456          66.477 
       0.722871         149.966         63.3819 
        0.73838         147.877         60.5173 
       0.754018         139.216         57.8086 
       0.769845         139.168         55.2367 
        0.78569         135.429         52.8197 
       0.801365         131.019          50.572 
       0.817031         127.694         48.4579 
       0.832809         125.497         46.4526 
       0.848511         122.466         44.5712 
       0.864097         120.404         42.8086 
       0.879701         118.732          41.141 
       0.895507         115.099         39.5439 
       0.911279         112.362          38.036 
        0.92691         110.179         36.6204 
       0.942635         107.746         35.2701 
       0.958396         106.823         33.9859 
       0.974128         104.545         32.7688 
       0.989692         102.083         31.6242 
        1.00528         100.735         30.5333 
        1.02113         98.0327         29.4774 
        1.03692         97.7707         28.4759 
        1.05264         96.4919         27.5262 
        1.06832         93.4914         26.6217 
        1.08405         92.5694          25.756 
        1.09979         91.8531         24.9287 
        1.11537         89.4081         24.1463 
        1.13105           88.21         23.3933 
        1.14679         86.8684         22.6698 
        1.16256         85.1574         21.9759 
        1.17828         84.4712         21.3136 
        1.19395         82.3528         20.6812 
         1.2097         82.0701         20.0715 
        1.22537         80.2233         19.4896 
          1.241         79.9718         18.9328 
        1.25666         77.2849         18.3966 
        1.27241          76.796         17.8789 
        1.28819         76.2564         17.3805 
        1.30392         74.7909         16.9027 
        1.31957          74.113         16.4453 
        1.33529         73.0616         16.0032 
        1.35108         72.5542         15.5759 
        1.36674         71.2168         15.1674 
         1.3824         70.6064         14.7741 
        1.39811          68.992         14.3936 
        1.41389          68.034         14.0252 
        1.42964         67.2283         13.6704 
        1.44531         66.7723         13.3298 
        1.46101         66.1045         13.0002 
        1.47667          65.035         12.6828 
        1.49229         64.2425          12.377 
        1.50793         63.4425          12.081 
        1.52367         63.0593          11.793 
        1.53953          62.049         11.5124 
        1.55526         60.9213         11.2434 
        1.57092         60.8992         10.9841 
        1.58662         60.0416         10.7325 
        1.60235         59.2028         10.4883 
        1.61809         58.1222         10.2518 
        1.63369         57.5426         10.0246 
        1.64941         57.2782         9.80284 
        1.66519           55.94         9.58703 
        1.68085         55.6137         9.37931 
        1.69652         54.5781         9.17775 
        1.71228          54.249         8.98103 
        1.72806         53.7998         8.78997 
        1.74368         52.9227         8.60645 
        1.75933         52.6556         8.42785 
        1.77505         52.0368         8.25353 
        1.79081         51.3824         8.08388 
         1.8065         50.9916         7.91978 
        1.82218          49.628         7.76042 
        1.83797         49.2827         7.60439 
        1.85367         48.9712         7.45356 
        1.86928         48.5836         7.30776 
        1.88497         47.7528         7.16511 
        1.90073         47.1373         7.02578 
        1.91647         47.0661         6.89031 
        1.93218         46.6222         6.75873 
        1.94787         45.8845         6.63081 
        1.96363         45.2299         6.50574 
        1.97935         44.8357         6.38417 
        1.99499          44.408         6.26643 
        2.01064         43.7126         6.15151 
         2.0264         43.6422         6.03879 
        2.04216         42.9852         5.92896 
        2.05781         42.5191         5.82259 
        2.07353         41.8478         5.71848 
        2.08928         41.7753          5.6167 
        2.10499         41.3955          5.5177 
        2.12065         40.7981         5.42141 
        2.13633         40.6103         5.32735 
        2.15211         40.0076         5.23493 
        2.16785         39.3808         5.14499 
        2.18349         39.0639         5.05774 
        2.19916         38.6999         4.97235 
        2.21489         38.5204         4.88867 
        2.23063         37.9512         4.80687 
         2.2463         37.6895         4.72733 
        2.26194         37.2213         4.64981 
        2.27765         36.8266         4.57364 
        2.29341         36.3234         4.49899 
        2.30914         36.0214         4.42618 
        2.32486         35.6013         4.35503 
        2.34061         35.3439         4.28535 
        2.35635         35.0234         4.21726 
        2.37203         34.6775         4.15091 
        2.38768         34.4477         4.08613 
        2.40339         34.1008         4.02251 
        2.41914         33.8294         3.96011 
        2.43483         33.3849         3.89926 
         2.4505         33.1776         3.83981 
        2.46622         32.6996          3.7814 
        2.48195         32.5206         3.72422 
        2.49759          32.101         3.66853 
        2.51328         31.7573         3.61385 
        2.52906         31.5458         3.55994 
        2.54479         31.3326         3.50734 
        2.56049         31.0231         3.45592 
        2.57618         30.6741         3.40558 
        2.59189         30.3648         3.35618 
        2.60758         30.0164         3.30784 
        2.62325         29.8777         3.26053 
        2.63898         29.5987         3.21398 
        2.65468         29.1729         3.16844 
        2.67044         29.0337          3.1236 
        2.68618         28.7164         3.07974 
        2.70184         28.4254          3.0369 
        2.71755         28.1241         2.99478 
        2.73329         27.9181          2.9534 
        2.74897         27.6096         2.91294 
        2.76462         27.3857         2.87334 
        2.78034         27.0635         2.83431 
        2.79607         26.8978         2.79598 
        2.81179         26.6224          2.7584 
        2.82749         26.3591         2.72156 
        2.84321          26.104         2.68536 
        2.85893         25.8839         2.64983 
        2.87462         25.7072         2.61502 
        2.89033         25.4105          2.5808 
        2.90605         25.1566         2.54717 
        2.92176         24.9649         2.51416 
        2.93747         24.7164         2.48175 
        2.95318         24.6367         2.44992 
        2.96891         24.2562         2.41863 
        2.98456         24.1006         2.38804 
        3.00023         23.7926         2.35793 
        3.01596         23.4741         2.32825 
        3.03164         23.3585         2.29917 
        3.04738          23.241         2.27051 
         3.0631          22.997         2.24235 
        3.07883         22.7119         2.21467 
        3.09456         22.5074         2.18746 
        3.11026         22.2857         2.16076 
        3.12596          22.077         2.13451 
        3.14163         21.9044         2.10876 
        3.15734         21.7702         2.08338 
        3.17308          21.475         2.05836 
        3.18879         21.3319         2.03382 
        3.20447         21.2026         2.00972 
         3.2202         20.9424         1.98594 
         3.2359         20.7148         1.96259 
        3.25157         20.5464         1.93967 
        3.26729         20.4516         1.91705 
        3.28304         20.2484         1.89475 
        3.29877          20.065         1.87284 
        3.31446         19.9186         1.85133 
        3.33014         19.6495         1.83017 
        3.34585         19.5858         1.80932 
        3.36158         19.3057         1.78876 
        3.37727         19.1898         1.76859 
        3.39294         19.0619         1.74875 
        3.40867         18.8728         1.72914 
        3.42439         18.6465         1.70985 
        3.44008         18.4996          1.6909 
        3.45578         18.3308         1.67221 
        3.47153            18.2         1.65378 
        3.48724         18.0835         1.63565 
        3.50292         17.8869         1.61784 
        3.51859         17.7552         1.60031 
        3.53431         17.5908         1.58298 
        3.55007         17.4096         1.56587 
        3.56577         17.2987         1.54908 
        3.58146         17.1452         1.53255 
        3.59719         16.9885         1.51622 
        3.61292         16.8772         1.50014 
        3.62859          16.641         1.48436 
        3.64429         16.5321         1.46877 
        3.66003         16.4341         1.45336 
        3.67578         16.3468         1.43818 
        3.69146         16.1503         1.42327 
        3.70712         16.0029          1.4086 
        3.72284         15.8814         1.39409 
        3.73853         15.7797         1.37981 
        3.75422         15.5495         1.36573 
        3.76993         15.4579         1.35183 
        3.78564         15.3486         1.33813 
        3.80137         15.2052          1.3246 
        3.81707         15.0532         1.31129 
        3.83279         14.9932         1.29815 
        3.84853         14.8423         1.28517 
        3.86424         14.6952          1.2724 
        3.87992         14.6077         1.25982 
        3.89561         14.4616         1.24741 
        3.91134         14.3622         1.23514 
        3.92704           14.25         1.22306 
        3.94273         14.1221         1.21114 
        3.95845         13.9998         1.19937 
        3.97418         13.8538         1.18775 
        3.98988         13.7771         1.17631 
        4.00554          13.645         1.16504 
        4.02125         13.5436         1.15389 
        4.03698         13.4397         1.14288 
        4.05268         13.3283         1.13203 
        4.06839         13.1866         1.12131 
         4.0841         13.1159         1.11074 
        4.09983         12.9739         1.10029 
        4.11555         12.8791         1.08998 
        4.13124         12.7859         1.07984 
        4.14693         12.7021         1.06981 
        4.16266         12.5704         1.05989 
        4.17839          12.449          1.0501 
        4.19408         12.3821         1.04046 
        4.20977         12.2878         1.03094 
        4.22551         12.1703         1.02151 
        4.24123         12.0793         1.01221 
        4.25691         11.9712         1.00305 
        4.27259         11.8771        0.994009 
        4.28831         11.8366        0.985059 
        4.30404         11.6967         0.97621 
        4.31974         11.6245        0.967491 
        4.33543         11.4826        0.958884 
        4.35116         11.4387        0.950361 
        4.36688         11.3249        0.941946 
        4.38255         11.2114        0.933665 
        4.39825         11.1591        0.925467 
        4.41398          11.076        0.917351 
         4.4297         10.9637        0.909342 
        4.44541         10.8953        0.901431 
        4.46111         10.8054        0.893621 
        4.47683         10.7046        0.885898 
        4.49251          10.637        0.878283 
        4.50819         10.5461         0.87076 
         4.5239         10.4822        0.863315 
        4.53962         10.3811        0.855948 
        4.55535         10.3137        0.848665 
        4.57106         10.2624        0.841477 
        4.58678         10.1631        0.834372 
         4.6025         10.0985        0.827347 
        4.61821         10.0319        0.820405 
        4.63391         9.91531        0.813553 
         4.6496         9.83729        0.806782 
        4.66532         9.78609        0.800078 
        4.68103         9.68789        0.793454 
        4.69673         9.61476        0.786912 
        4.71241         9.56029        0.780451 
        4.72811          9.4775        0.774052 
        4.74384         9.42952        0.767717 
        4.75955          9.3511        0.761463 
        4.77525         9.26291        0.755283 
        4.79096         9.20985        0.749165 
        4.80669         9.12069        0.743112 
         4.8224          9.0749        0.737133 
        4.83809         8.98737        0.731226 
        4.85379         8.95138        0.725381 
         4.8695         8.85848        0.719596 
        4.88521         8.78384        0.713877 
        4.90093         8.75097         0.70822 
        4.91663         8.66022        0.702629 
        4.93234         8.60869        0.697093 
        4.94807         8.55274        0.691614 
        4.96377         8.48061        0.686204 
        4.97943         8.41961        0.680864 
        4.99514          8.3561        0.675568 
        5.01086         8.30756        0.670324 
        5.02654         8.22685         0.66515 
        5.04227         8.17364        0.660015 
          5.058          8.1162        0.654933 
        5.07371         8.06844        0.649914 
        5.08942         7.99653        0.644948 
        5.10513         7.91288        0.640033 
        5.12084         7.87346        0.635168 
        5.13656         7.82498        0.630355 
        5.15225         7.76257        0.625599 
        5.16796         7.70865        0.620886 
        5.18369         7.65398        0.616218 
         5.1994         7.61327        0.611606 
        5.21509         7.55287        0.607046 
        5.23079         7.48282        0.602527 
        5.24649         7.44698        0.598058 
        5.26217         7.40191        0.593638 
        5.27788         7.34633        0.589257 
        5.29359         7.28354        0.584919 
        5.30933            7.22         0.58062 
        5.32504         7.18605         0.57637 
        5.34073         7.13444        0.572169 
        5.35646         7.09536        0.568001 
        5.37218         7.04426        0.563874 
        5.38789          6.9877        0.559795 
        5.40357         6.93705        0.555762 
        5.41929         6.89964        0.551759 
        5.43502         6.84562        0.547796 
         5.4507         6.79698        0.543882 
        5.46639         6.74446        0.540005 
        5.48212         6.70837        0.536158 
        5.49786           6.659        0.532343 
        5.51353         6.62421        0.528585 
        5.52921         6.56004         0.52486 
        5.54495         6.51775         0.52116 
        5.56066         6.47949        0.517499 
        5.57637         6.43256        0.513875 
        5.59207         6.38074        0.510289 
        5.60778         6.35085        0.506736 
        5.62346         6.30181        0.503222 
        5.63916         6.26168        0.499739 
        5.65487         6.22257        0.496286 
         5.6706         6.17419        0.492863 
        5.68633         6.13772        0.489471 
        5.70203         6.09103        0.486117 
        5.71773         6.06538        0.482797 
        5.73344          6.0201        0.479505 
        5.74916         5.97802        0.476242 
        5.76486         5.93887        0.473013 
        5.78054         5.89505         0.46982 
        5.79626         5.85527        0.466647 
          5.812         5.81695        0.463501 
         5.8277         5.77746        0.460393 
        5.84339          5.7384        0.457314 
        5.85911         5.70727        0.454257 
        5.87484         5.66955        0.451229 
        5.89053         5.62657        0.448235 
        5.90623         5.59518        0.445267 
        5.92195         5.56282         0.44232 
        5.93767         5.52677        0.439403 
        5.95336         5.47812        0.436516 
        5.96905         5.44839        0.433657 
        5.98476         5.41516        0.430819 
        6.00048         5.38168        0.428006 
        6.01617         5.34333        0.425222 
        6.03185         5.32424        0.422467 
        6.04756         5.29038        0.419729 
        6.06331         5.23604         0.41701 
        6.07903         5.20673        0.414322 
        6.09473         5.17241        0.411659 
        6.11044         5.13168        0.409017 
        6.12616         5.11017          0.4064 
        6.14186         5.08256        0.403808 
        6.15755         5.04662        0.401239 
        6.17326         5.01205         0.39869 
        6.18898         4.98832        0.396163 
        6.20467         4.94982        0.393662 
        6.22036         4.92604        0.391183 
         6.2361         4.88818        0.388719 
         6.2518         4.85995         0.38628 
        6.26748         4.83206        0.383868 
        6.28319         4.80358         0.38147 
        6.29893         4.76905         0.37909 
        6.31463         4.74471        0.376735 
        6.33033         4.71359        0.374401 
        6.34604         4.68604        0.372085 
        6.36177         4.65677        0.369786 
        6.37747         4.62683        0.367512 
