# k  (h/Mpc)    Pcb(k)  (Mpc/h)^3    Pcb_linear(k) (Mpc/h)^3   ShotnoiseSubtracted = true
      0.0200456         13794.5         14008.2 
      0.0350414           10295           10007 
      0.0492313          7166.2         7250.58 
      0.0637834         5799.22         6038.63 
      0.0800726          4519.1         4736.55 
       0.096163         3537.39         3406.38 
       0.111083         2893.39         2741.22 
       0.126058         2412.08         2438.87 
       0.142273         2066.57         2036.89 
       0.158546         1690.23         1599.27 
        0.17375         1491.82         1362.95 
       0.188953         1390.08         1238.13 
       0.204907         1182.37         1082.82 
       0.220756         1058.49          911.03 
        0.23588         943.668         799.226 
         0.2514         845.777         729.279 
       0.267535         818.459         654.792 
       0.283568         715.947         574.524 
       0.299022         683.087         514.376 
       0.314451         694.913         471.859 
       0.330372         596.992         431.174 
       0.346141         551.514         389.831 
       0.361624         527.132         354.955 
       0.377134          495.69         327.478 
       0.392932         478.373         302.604 
       0.408854         455.119         278.226 
       0.424564         440.057         256.508 
       0.440253         398.988          238.17 
       0.455999         381.638         221.834 
       0.471626          384.41          206.58 
        0.48727         363.242         192.542 
       0.502856         334.827         180.114 
       0.518488         334.541         168.918 
       0.534347          311.26         158.409 
       0.550082         300.458         148.748 
       0.565732         298.437         139.999 
       0.581496         284.955         131.964 
       0.597222          276.43          124.56 
       0.612804         268.725         117.746 
       0.628434         258.014         111.422 
       0.644267         246.814         105.519 
       0.660051         242.787         100.067 
       0.675724         239.019          95.031 
       0.691403         232.262         90.3369 
       0.707174         223.438         85.9334 
       0.722871         219.623         81.8409 
        0.73838          217.16         78.0588 
       0.754018         206.184         74.4873 
       0.769845          205.43         71.1006 
        0.78569         199.837         67.9219 
       0.801365         193.737         64.9694 
       0.817031         189.791         62.1954 
       0.832809         185.965         59.5666 
       0.848511         181.081         57.1024 
       0.864097         176.446         54.7952 
       0.879701          174.99         52.6139 
       0.895507         170.607         50.5262 
       0.911279         165.342         48.5567 
        0.92691         162.754          46.709 
       0.942635         160.572         44.9476 
       0.958396         156.897         43.2737 
       0.974128          153.46         41.6885 
       0.989692         148.604         40.1987 
        1.00528         147.496         38.7797 
        1.02113          144.12         37.4073 
        1.03692         141.449         36.1066 
        1.05264         139.061         34.8741 
        1.06832          137.27         33.7012 
        1.08405         133.814         32.5793 
        1.09979         132.835         31.5081 
        1.11537         129.668         30.4958 
        1.13105         127.553         29.5222 
        1.14679         125.396         28.5874 
        1.16256         123.151         27.6915 
        1.17828         121.387         26.8371 
        1.19395         118.266         26.0217 
         1.2097         117.168         25.2362 
        1.22537         115.234         24.4871 
          1.241         113.167         23.7707 
        1.25666          110.79         23.0813 
        1.27241         108.274         22.4161 
        1.28819         107.252         21.7761 
        1.30392         105.265         21.1631 
        1.31957         103.201         20.5764 
        1.33529         101.899         20.0099 
        1.35108         100.456         19.4626 
        1.36674         98.4304         18.9397 
         1.3824          97.881         18.4365 
        1.39811         95.2138           17.95 
        1.41389         94.2645         17.4793 
        1.42964         92.1223         17.0263 
        1.44531          91.224         16.5916 
        1.46101         89.4411         16.1712 
        1.47667         88.8568         15.7667 
        1.49229         87.6704         15.3771 
        1.50793         85.7494         15.0003 
        1.52367         84.6717         14.6337 
        1.53953         83.4736         14.2769 
        1.55526         82.1122         13.9349 
        1.57092         81.4256         13.6056 
        1.58662         79.9943         13.2861 
        1.60235         78.5561         12.9763 
        1.61809          77.812         12.6763 
        1.63369         76.1963         12.3884 
        1.64941         76.0994         12.1074 
        1.66519         74.3839         11.8341 
        1.68085         73.1165         11.5713 
        1.69652         71.9069         11.3163 
        1.71228         71.1263         11.0677 
        1.72806         70.3237         10.8263 
        1.74368         69.0456         10.5945 
        1.75933         68.4126         10.3691 
        1.77505         67.5703         10.1492 
        1.79081         66.1552         9.93529 
         1.8065         65.5532         9.72848 
        1.82218         64.3571         9.52776 
        1.83797          64.026         9.33133 
        1.85367         62.6321         9.14153 
        1.86928         61.9928         8.95817 
        1.88497         61.2541         8.77884 
        1.90073         60.3687         8.60377 
        1.91647         59.3784         8.43364 
        1.93218         58.6149         8.26848 
        1.94787         57.7717         8.10799 
        1.96363         57.0253         7.95113 
        1.97935          56.532         7.79875 
        1.99499         55.7181         7.65124 
        2.01064         54.8209         7.50733 
         2.0264         53.9552         7.36622 
        2.04216          53.309         7.22882 
        2.05781         52.6641         7.09579 
        2.07353         51.9546         6.96564 
        2.08928          51.208         6.83847 
        2.10499         50.6047         6.71483 
        2.12065         50.0781         6.59462 
        2.13633         49.5103         6.47725 
        2.15211         48.6834         6.36198 
        2.16785         47.8215         6.24985 
        2.18349         47.3282         6.14112 
        2.19916         46.7638         6.03475 
        2.21489         46.1163         5.93056 
        2.23063         45.4611         5.82875 
         2.2463         45.0168          5.7298 
        2.26194         44.6365          5.6334 
        2.27765         43.8586         5.53871 
        2.29341          43.271         5.44597 
        2.30914         42.6496         5.35554 
        2.32486         42.0748         5.26721 
        2.34061         41.7593         5.18073 
        2.35635         41.0447         5.09627 
        2.37203         40.6008         5.01399 
        2.38768         40.1936          4.9337 
        2.40339          39.696         4.85488 
        2.41914         39.1035         4.77759 
        2.43483         38.6091         4.70227 
         2.4505         38.3175         4.62869 
        2.46622         37.8182         4.55644 
        2.48195         37.2795         4.48573 
        2.49759         36.7551         4.41689 
        2.51328         36.4868         4.34933 
        2.52906         35.9267         4.28275 
        2.54479         35.6023         4.21781 
        2.56049         34.8509         4.15434 
        2.57618         34.6097         4.09224 
        2.59189         34.3014         4.03132 
        2.60758         33.6887         3.97173 
        2.62325         33.4118         3.91342 
        2.63898         33.0761         3.85607 
        2.65468         32.7464             3.8 
        2.67044         32.3911          3.7448 
        2.68618         32.0449         3.69083 
        2.70184          31.449         3.63814 
        2.71755         31.1918         3.58634 
        2.73329         30.7666         3.53548 
        2.74897         30.5724         3.48576 
        2.76462         30.0427         3.43712 
        2.78034          29.781          3.3892 
        2.79607         29.3418         3.34215 
        2.81179          29.081         3.29604 
        2.82749          28.753         3.25085 
        2.84321         28.4351         3.20646 
        2.85893         28.0492         3.16292 
        2.87462          27.695         3.12026 
        2.89033         27.4487         3.07834 
        2.90605         27.1084         3.03716 
        2.92176         26.8692         2.99676 
        2.93747         26.6255         2.95711 
        2.95318         26.2972         2.91817 
        2.96891         25.9286         2.87991 
        2.98456         25.7462         2.84251 
        3.00023          25.458         2.80572 
        3.01596         25.1726         2.76946 
        3.03164         24.8493         2.73395 
        3.04738         24.5769         2.69896 
         3.0631         24.4346          2.6646 
        3.07883         24.0859         2.63083 
        3.09456         23.7231         2.59765 
        3.11026         23.4764         2.56509 
        3.12596         23.2464          2.5331 
        3.14163         23.0046         2.50172 
        3.15734         22.7829         2.47081 
        3.17308         22.5428         2.44034 
        3.18879         22.2768         2.41047 
        3.20447         22.0326         2.38114 
         3.2202          21.832         2.35221 
         3.2359         21.5886         2.32381 
        3.25157         21.4084         2.29595 
        3.26729         21.1215         2.26846 
        3.28304         20.8776         2.24137 
        3.29877         20.6128         2.21476 
        3.31446         20.4591         2.18863 
        3.33014         20.2495         2.16295 
        3.34585         20.0319         2.13764 
        3.36158         19.8476          2.1127 
        3.37727         19.6164         2.08824 
        3.39294         19.3994         2.06418 
        3.40867         19.2011         2.04042 
        3.42439         19.0526         2.01705 
        3.44008         18.8366         1.99408 
        3.45578         18.7053         1.97146 
        3.47153         18.4534         1.94914 
        3.48724          18.261          1.9272 
        3.50292         18.0915         1.90565 
        3.51859         17.8922         1.88444 
        3.53431         17.7039         1.86349 
        3.55007         17.4999         1.84281 
        3.56577         17.3345         1.82252 
        3.58146         17.2107         1.80254 
        3.59719         17.0088         1.78282 
        3.61292         16.8367          1.7634 
        3.62859         16.6765         1.74435 
        3.64429         16.4668         1.72553 
        3.66003         16.3529         1.70694 
        3.67578         16.1798         1.68863 
        3.69146         16.0198         1.67066 
        3.70712         15.8849         1.65298 
        3.72284         15.7511         1.63549 
        3.73853         15.6149         1.61828 
        3.75422         15.3828         1.60131 
        3.76993         15.2408         1.58458 
        3.78564         15.1159         1.56809 
        3.80137         14.9569         1.55181 
        3.81707         14.8118         1.53579 
        3.83279          14.694         1.51998 
        3.84853         14.5352         1.50438 
        3.86424         14.4097         1.48902 
        3.87992         14.2434          1.4739 
        3.89561         14.1596         1.45899 
        3.91134         13.9308         1.44425 
        3.92704         13.8714         1.42973 
        3.94273         13.6968         1.41543 
        3.95845         13.5915          1.4013 
        3.97418         13.4371         1.38736 
        3.98988         13.3281         1.37362 
        4.00554         13.2473         1.36011 
        4.02125         13.0515         1.34675 
        4.03698          12.942         1.33354 
        4.05268         12.8319         1.32054 
        4.06839         12.7267          1.3077 
         4.0841         12.5803         1.29504 
        4.09983         12.4568         1.28252 
        4.11555         12.3263         1.27018 
        4.13124         12.2651         1.25803 
        4.14693          12.147         1.24603 
        4.16266          12.059         1.23417 
        4.17839         11.9097         1.22246 
        4.19408         11.8153         1.21093 
        4.20977         11.7175         1.19954 
        4.22551         11.6006         1.18828 
        4.24123         11.4709         1.17716 
        4.25691         11.3448         1.16623 
        4.27259         11.2867         1.15542 
        4.28831         11.2034         1.14474 
        4.30404         11.0853         1.13417 
        4.31974         10.9992         1.12377 
        4.33543          10.905          1.1135 
        4.35116         10.7798         1.10333 
        4.36688         10.7033          1.0933 
        4.38255         10.6149         1.08342 
        4.39825         10.4791         1.07365 
        4.41398         10.4284         1.06398 
         4.4297         10.3195         1.05443 
        4.44541         10.2127         1.04501 
        4.46111         10.1407         1.03571 
        4.47683         10.0523         1.02651 
        4.49251          9.9682         1.01745 
        4.50819         9.86542          1.0085 
         4.5239         9.77286        0.999639 
        4.53962         9.71097        0.990876 
        4.55535          9.6261        0.982214 
        4.57106         9.55667        0.973668 
        4.58678         9.45761        0.965222 
         4.6025         9.37911        0.956874 
        4.61821         9.30492        0.948626 
        4.63391         9.22825        0.940486 
         4.6496         9.13493        0.932444 
        4.66532         9.06011        0.924485 
        4.68103         8.97709        0.916621 
        4.69673         8.90359        0.908857 
        4.71241         8.83605         0.90119 
        4.72811         8.76836        0.893599 
        4.74384         8.69908        0.886085 
        4.75955         8.63392         0.87867 
        4.77525         8.54331        0.871343 
        4.79096         8.48147        0.864091 
        4.80669         8.42424        0.856918 
         4.8224         8.33866        0.849834 
        4.83809         8.28304        0.842838 
        4.85379         8.20731        0.835917 
         4.8695         8.14463        0.829067 
        4.88521         8.08102        0.822297 
        4.90093         8.02634        0.815602 
        4.91663         7.95858        0.808987 
        4.93234         7.88988        0.802439 
        4.94807          7.8315        0.795958 
        4.96377         7.75767        0.789562 
        4.97943         7.70257        0.783249 
        4.99514         7.62556        0.776988 
        5.01086          7.5788        0.770792 
        5.02654         7.49721        0.764678 
        5.04227         7.42871        0.758613 
          5.058         7.38913        0.752611 
        5.07371         7.34384        0.746686 
        5.08942         7.28685        0.740823 
        5.10513         7.22184        0.735023 
        5.12084         7.17344        0.729282 
        5.13656         7.10691        0.723603 
        5.15225         7.05458        0.717995 
        5.16796         7.01031        0.712437 
        5.18369         6.95493        0.706932 
         5.1994         6.87415        0.701496 
        5.21509         6.83888        0.696122 
        5.23079          6.7643        0.690798 
        5.24649         6.73142        0.685533 
        5.26217         6.67034        0.680327 
        5.27788         6.62518        0.675168 
        5.29359         6.56914        0.670061 
        5.30933         6.53738           0.665 
        5.32504         6.47138        0.659999 
        5.34073         6.43452        0.655055 
        5.35646         6.37434        0.650152 
        5.37218          6.3287        0.645299 
        5.38789         6.27704        0.640502 
        5.40357         6.23244         0.63576 
        5.41929         6.19014        0.631055 
        5.43502         6.14079        0.626397 
         5.4507           6.095        0.621798 
        5.46639         6.06083        0.617244 
        5.48212         5.99721        0.612725 
        5.49786         5.95451        0.608245 
        5.51353         5.92008        0.603833 
        5.52921         5.88164         0.59946 
        5.54495         5.84619        0.595117 
        5.56066         5.78134        0.590822 
        5.57637         5.73538         0.58657 
        5.59207         5.70279        0.582364 
        5.60778         5.66165        0.578197 
        5.62346         5.62675        0.574077 
        5.63916         5.59274        0.569993 
        5.65487         5.54415        0.565947 
         5.6706         5.50166        0.561935 
        5.68633         5.45893        0.557961 
        5.70203         5.42027        0.554033 
        5.71773         5.38715        0.550143 
        5.73344         5.35912        0.546289 
        5.74916         5.31289        0.542469 
        5.76486         5.27843        0.538689 
        5.78054         5.23391        0.534952 
        5.79626         5.18145         0.53124 
          5.812         5.16558        0.527559 
         5.8277         5.13473        0.523924 
        5.84339         5.09147        0.520323 
        5.85911         5.04388        0.516749 
        5.87484         5.02584        0.513209 
        5.89053         4.98333         0.50971 
        5.90623         4.94352        0.506241 
        5.92195         4.91446        0.502798 
        5.93767         4.87876         0.49939 
        5.95336         4.85844        0.496019 
        5.96905         4.81266         0.49268 
        5.98476         4.78478        0.489367 
        6.00048         4.75306        0.486083 
        6.01617         4.71474        0.482834 
        6.03185         4.68851        0.479618 
        6.04756         4.65115        0.476425 
        6.06331         4.62528        0.473253 
        6.07903         4.58772        0.470117 
        6.09473          4.5614        0.467012 
        6.11044         4.53918        0.463932 
        6.12616         4.50346        0.460881 
        6.14186          4.4764         0.45786 
        6.15755         4.43865        0.454867 
        6.17326         4.41895        0.451897 
        6.18898         4.38397        0.448953 
        6.20467         4.35198        0.446041 
        6.22036          4.3282        0.443154 
         6.2361          4.2936        0.440285 
         6.2518         4.26974        0.437446 
        6.26748         4.24027        0.434639 
        6.28319         4.21384        0.431848 
        6.29893         4.18916         0.42908 
        6.31463         4.15241         0.42634 
        6.33033         4.14008        0.423625 
        6.34604         4.10496        0.420932 
        6.36177         4.07351         0.41826 
        6.37747          4.0596        0.415616 
