# k  (h/Mpc)    Pcb(k)  (Mpc/h)^3    Pcb_linear(k) (Mpc/h)^3   ShotnoiseSubtracted = true
      0.0200456         9322.12         10814.7 
      0.0350414          6766.2         7725.66 
      0.0492313         4970.49         5597.64 
      0.0637834         4457.47         4661.98 
      0.0800726         3416.45         3656.74 
       0.096163         2670.23         2629.81 
       0.111083         2140.81         2116.29 
       0.126058         1793.24         1882.87 
       0.142273         1485.75         1572.53 
       0.158546            1238         1234.68 
        0.17375         1064.66         1052.24 
       0.188953         1060.06         955.871 
       0.204907         884.952         835.961 
       0.220756         754.147         703.338 
        0.23588         694.737         617.023 
         0.2514         639.862         563.022 
       0.267535         597.426         505.516 
       0.283568         536.598         443.548 
       0.299022         483.005         397.111 
       0.314451          479.85         364.287 
       0.330372         432.484         332.877 
       0.346141         378.739          300.96 
       0.361624         368.923         274.034 
       0.377134         355.026         252.822 
       0.392932         324.282         233.618 
       0.408854         316.479         214.798 
       0.424564         291.755         198.031 
       0.440253         282.391         183.873 
       0.455999         269.292         171.261 
       0.471626         252.244         159.485 
        0.48727         245.913         148.647 
       0.502856         230.688         139.053 
       0.518488           220.7         130.409 
       0.534347         209.142         122.296 
       0.550082         208.732         114.837 
       0.565732         198.221         108.083 
       0.581496         190.601          101.88 
       0.597222         181.572         96.1631 
       0.612804         178.003         90.9027 
       0.628434         173.913         86.0208 
       0.644267         164.661         81.4636 
       0.660051          158.76         77.2545 
       0.675724         157.181         73.3663 
       0.691403         152.561         69.7424 
       0.707174           146.1         66.3428 
       0.722871         142.391         63.1833 
        0.73838         138.327         60.2634 
       0.754018          135.99         57.5061 
       0.769845         133.734         54.8915 
        0.78569          127.89         52.4374 
       0.801365         125.804         50.1581 
       0.817031         122.116         48.0164 
       0.832809         118.063          45.987 
       0.848511         115.119         44.0845 
       0.864097         116.155         42.3033 
       0.879701         112.126         40.6193 
       0.895507         107.644         39.0076 
       0.911279         106.092          37.487 
        0.92691          105.48         36.0605 
       0.942635         102.044         34.7007 
       0.958396         99.5787         33.4084 
       0.974128         98.4443         32.1846 
       0.989692         96.9309         31.0344 
        1.00528         94.9305         29.9389 
        1.02113         91.6446         28.8794 
        1.03692         90.7675         27.8753 
        1.05264         87.8713         26.9237 
        1.06832         86.9552         26.0182 
        1.08405         86.1521         25.1521 
        1.09979         83.3854          24.325 
        1.11537         81.5311         23.5436 
        1.13105         81.4283         22.7919 
        1.14679         80.0052         22.0702 
        1.16256         77.7638         21.3786 
        1.17828         76.9237         20.7189 
        1.19395          75.901         20.0894 
         1.2097         74.9061          19.483 
        1.22537         72.6345         18.9046 
          1.241         71.8619         18.3516 
        1.25666         70.8994         17.8194 
        1.27241         69.5825         17.3058 
        1.28819         68.3233         16.8117 
        1.30392         67.6518         16.3384 
        1.31957         66.2553         15.8855 
        1.33529         65.4726         15.4482 
        1.35108         63.9344         15.0256 
        1.36674         63.4315         14.6219 
         1.3824         62.0755         14.2335 
        1.39811         61.4149         13.8579 
        1.41389         60.3602         13.4945 
        1.42964         59.9249         13.1447 
        1.44531           58.76         12.8092 
        1.46101         57.5402         12.4846 
        1.47667         57.6425         12.1723 
        1.49229         56.0991         11.8715 
        1.50793         55.5548         11.5806 
        1.52367          54.446         11.2976 
        1.53953         53.4798         11.0221 
        1.55526         52.9876         10.7581 
        1.57092         52.0824         10.5038 
        1.58662         51.5557         10.2572 
        1.60235         50.8201          10.018 
        1.61809         50.0628         9.78639 
        1.63369         49.3094         9.56414 
        1.64941         48.8377         9.34722 
        1.66519         47.9275         9.13626 
        1.68085          47.516         8.93333 
        1.69652         46.6836         8.73651 
        1.71228         46.2778         8.54452 
        1.72806         45.5325         8.35816 
        1.74368         44.9088         8.17924 
        1.75933           44.38         8.00521 
        1.77505          43.766         7.83544 
        1.79081         42.9979          7.6703 
         1.8065         42.4847         7.51064 
        1.82218         42.0684         7.35567 
        1.83797         41.2934         7.20403 
        1.85367         40.9784          7.0575 
        1.86928         40.5271         6.91594 
        1.88497         39.9657         6.77749 
        1.90073         39.3689         6.64233 
        1.91647          38.765         6.51099 
        1.93218         38.3805         6.38348 
        1.94787         38.1306         6.25958 
        1.96363         37.4159         6.13848 
        1.97935         36.9555         6.02084 
        1.99499         36.4145         5.90695 
        2.01064         35.9216         5.79585 
         2.0264          35.607         5.68691 
        2.04216         35.0627         5.58083 
        2.05781          34.516         5.47813 
        2.07353         34.1026         5.37765 
        2.08928         34.0245         5.27948 
        2.10499         33.2503         5.18402 
        2.12065         33.1143         5.09121 
        2.13633         32.4909          5.0006 
        2.15211          32.133         4.91161 
        2.16785         31.8541         4.82504 
        2.18349          31.485          4.7411 
        2.19916         30.9682         4.65898 
        2.21489         30.7546         4.57854 
        2.23063         30.1878         4.49995 
         2.2463         29.8607         4.42355 
        2.26194         29.5997         4.34913 
        2.27765         29.3401         4.27603 
        2.29341         28.7879         4.20443 
        2.30914         28.6333         4.13461 
        2.32486         28.1867         4.06642 
        2.34061         27.9711         3.99966 
        2.35635         27.4917         3.93445 
        2.37203         27.2212         3.87093 
        2.38768         27.0113         3.80894 
        2.40339         26.5954         3.74809 
        2.41914         26.3314         3.68843 
        2.43483         26.0474         3.63027 
         2.4505         25.7162         3.57347 
        2.46622         25.3841         3.51769 
        2.48195         25.1115          3.4631 
        2.49759         24.7522         3.40996 
        2.51328         24.5657         3.35779 
        2.52906         24.2053         3.30639 
        2.54479         24.0014         3.25626 
        2.56049         23.7094         3.20726 
        2.57618         23.3686         3.15932 
        2.59189         23.2107         3.11228 
        2.60758         22.8723         3.06628 
        2.62325         22.6587         3.02126 
        2.63898         22.3472         2.97699 
        2.65468         22.1203          2.9337 
        2.67044         21.8522         2.89108 
        2.68618         21.5882         2.84942 
        2.70184         21.3867         2.80874 
        2.71755         21.1281         2.76875 
        2.73329         20.9936         2.72948 
        2.74897         20.6428          2.6911 
        2.76462         20.4907         2.65354 
        2.78034         20.2515         2.61655 
        2.79607         20.0622         2.58022 
        2.81179         19.8047         2.54463 
        2.82749          19.629         2.50974 
        2.84321         19.3927         2.47547 
        2.85893         19.0749         2.44185 
        2.87462         18.9115         2.40892 
        2.89033         18.7577         2.37656 
        2.90605         18.5312         2.34477 
        2.92176         18.2911         2.31357 
        2.93747         18.1761         2.28296 
        2.95318         17.9904          2.2529 
        2.96891         17.8422         2.22337 
        2.98456         17.6102         2.19449 
        3.00023          17.423         2.16609 
        3.01596         17.2707          2.1381 
        3.03164         17.0438         2.11068 
        3.04738         16.8801         2.08367 
         3.0631         16.7559         2.05714 
        3.07883         16.5567         2.03107 
        3.09456         16.3182         2.00545 
        3.11026         16.2762         1.98032 
        3.12596         16.0215         1.95562 
        3.14163         15.9497          1.9314 
        3.15734         15.7441         1.90753 
        3.17308         15.5339         1.88401 
        3.18879         15.3082         1.86094 
        3.20447         15.3085          1.8383 
         3.2202         15.1063         1.81597 
         3.2359         14.9605         1.79404 
        3.25157         14.7916         1.77253 
        3.26729         14.6174         1.75131 
        3.28304          14.504          1.7304 
        3.29877         14.3379         1.70985 
        3.31446         14.1993         1.68968 
        3.33014         14.0926         1.66985 
        3.34585         13.9209         1.65032 
        3.36158         13.8068         1.63106 
        3.37727         13.6102         1.61217 
        3.39294         13.4896          1.5936 
        3.40867         13.3676         1.57526 
        3.42439         13.2101         1.55721 
        3.44008         13.1191         1.53948 
        3.45578         12.9384         1.52202 
        3.47153         12.8041         1.50479 
        3.48724         12.7366         1.48785 
        3.50292         12.5643         1.47121 
        3.51859         12.4512         1.45484 
        3.53431         12.3452         1.43866 
        3.55007         12.2494          1.4227 
        3.56577         12.1282         1.40703 
        3.58146         11.9837         1.39161 
        3.59719         11.9042         1.37639 
        3.61292         11.7635         1.36139 
        3.62859         11.6297         1.34668 
        3.64429         11.5783         1.33216 
        3.66003         11.4332          1.3178 
        3.67578         11.3079         1.30367 
        3.69146         11.2159         1.28979 
        3.70712         11.1323         1.27614 
        3.72284         11.0008         1.26264 
        3.73853         10.9056         1.24935 
        3.75422         10.8145         1.23626 
        3.76993         10.7283         1.22334 
        3.78564         10.6152          1.2106 
        3.80137         10.4936         1.19803 
        3.81707         10.3698         1.18567 
        3.83279         10.3132         1.17347 
        3.84853         10.1934         1.16142 
        3.86424         10.1141         1.14956 
        3.87992         10.0304         1.13789 
        3.89561         9.95567         1.12637 
        3.91134         9.86598           1.115 
        3.92704         9.75154         1.10379 
        3.94273         9.67402         1.09275 
        3.95845         9.57813         1.08184 
        3.97418         9.50415         1.07108 
        3.98988         9.42975         1.06047 
        4.00554         9.31588         1.05004 
        4.02125         9.24177         1.03972 
        4.03698         9.15766         1.02953 
        4.05268         9.07143         1.01949 
        4.06839         8.98635         1.00958 
         4.0841         8.91564        0.999801 
        4.09983         8.85212         0.99014 
        4.11555          8.7641        0.980611 
        4.13124         8.67922        0.971234 
        4.14693         8.60438        0.961971 
        4.16266         8.54717        0.952807 
        4.17839         8.46432        0.943768 
        4.19408         8.37401        0.934867 
        4.20977         8.29734        0.926077 
        4.22551         8.24326        0.917379 
        4.24123         8.16407        0.908801 
        4.25691         8.10685        0.900357 
        4.27259         8.02554        0.892017 
        4.28831         7.94753        0.883766 
        4.30404         7.87138        0.875611 
        4.31974         7.80327        0.867577 
        4.33543         7.74157        0.859649 
        4.35116         7.67442          0.8518 
        4.36688         7.62459        0.844052 
        4.38255         7.54372         0.83643 
        4.39825         7.48482        0.828885 
        4.41398         7.42418        0.821418 
         4.4297         7.37999        0.814051 
        4.44541         7.29796        0.806775 
        4.46111         7.24331        0.799594 
        4.47683         7.16858        0.792496 
        4.49251         7.11303        0.785497 
        4.50819         7.05638        0.778585 
         4.5239         6.99059        0.771747 
        4.53962         6.93642        0.764982 
        4.55535         6.87638        0.758295 
        4.57106         6.81968        0.751697 
        4.58678         6.76098        0.745176 
         4.6025         6.71689        0.738731 
        4.61821         6.66935        0.732363 
        4.63391         6.60337        0.726079 
         4.6496         6.53265        0.719871 
        4.66532          6.5019        0.713726 
        4.68103         6.43774        0.707655 
        4.69673         6.37722        0.701661 
        4.71241         6.33016        0.695742 
        4.72811         6.27508        0.689881 
        4.74384         6.23238        0.684081 
        4.75955         6.17462        0.678356 
        4.77525         6.13257        0.672699 
        4.79096         6.09428          0.6671 
        4.80669         6.02654        0.661563 
         4.8224         5.99433        0.656094 
        4.83809         5.94207        0.650693 
        4.85379         5.89048        0.645349 
         4.8695         5.83963        0.640061 
        4.88521         5.79598        0.634835 
        4.90093         5.75457        0.629666 
        4.91663         5.71567        0.624559 
        4.93234         5.65677        0.619503 
        4.94807         5.61313          0.6145 
        4.96377         5.58415        0.609562 
        4.97943         5.53597        0.604688 
        4.99514         5.48508        0.599855 
        5.01086         5.45431        0.595071 
        5.02654         5.39779        0.590351 
        5.04227         5.36253        0.585669 
          5.058         5.32561        0.581035 
        5.07371         5.27548        0.576461 
        5.08942         5.23514        0.571934 
        5.10513         5.20844        0.567457 
        5.12084         5.16701        0.563024 
        5.13656         5.13259         0.55864 
        5.15225         5.08483         0.55431 
        5.16796         5.04814        0.550019 
        5.18369         5.00768         0.54577 
         5.1994         4.97693        0.541573 
        5.21509         4.92868        0.537424 
        5.23079         4.89626        0.533313 
        5.24649         4.86415        0.529249 
        5.26217         4.81659         0.52523 
        5.27788         4.80013        0.521247 
        5.29359         4.75193        0.517304 
        5.30933         4.73293        0.513397 
        5.32504         4.68379        0.509536 
        5.34073         4.65405         0.50572 
        5.35646         4.62536        0.501934 
        5.37218         4.58935        0.498187 
        5.38789         4.54967        0.494484 
        5.40357         4.52175        0.490823 
        5.41929         4.48207        0.487191 
        5.43502         4.45012        0.483595 
         5.4507         4.42644        0.480044 
        5.46639         4.39853        0.476528 
        5.48212         4.36777        0.473039 
        5.49786         4.33411        0.469581 
        5.51353         4.30538        0.466174 
        5.52921         4.27404        0.462798 
        5.54495         4.23467        0.459446 
        5.56066         4.21353         0.45613 
        5.57637         4.18796        0.452847 
        5.59207         4.15116          0.4496 
        5.60778          4.1207        0.446383 
        5.62346         4.09935        0.443202 
        5.63916         4.07288        0.440049 
        5.65487          4.0349        0.436926 
         5.6706         4.01189        0.433828 
        5.68633         3.97761         0.43076 
        5.70203         3.96072        0.427728 
        5.71773         3.92678        0.424725 
        5.73344         3.89959        0.421749 
        5.74916          3.8748          0.4188 
        5.76486         3.84737        0.415882 
        5.78054         3.82743        0.412997 
        5.79626         3.79541        0.410131 
          5.812           3.774        0.407289 
         5.8277         3.74417        0.404483 
        5.84339         3.72319        0.401703 
        5.85911          3.6935        0.398944 
        5.87484          3.6727        0.396211 
        5.89053         3.65449        0.393509 
        5.90623          3.6284        0.390831 
        5.92195          3.5971        0.388173 
        5.93767         3.58642        0.385542 
        5.95336         3.55281        0.382939 
        5.96905         3.52832        0.380361 
        5.98476         3.50855        0.377804 
        6.00048         3.48829        0.375269 
        6.01617         3.46091         0.37276 
        6.03185         3.44195        0.370278 
        6.04756         3.41555        0.367812 
        6.06331         3.39147        0.365363 
        6.07903         3.37379        0.362942 
        6.09473         3.34864        0.360545 
        6.11044         3.33467        0.358168 
        6.12616         3.31506        0.355812 
        6.14186         3.28899         0.35348 
        6.15755         3.27063        0.351169 
        6.17326         3.25127        0.348876 
        6.18898          3.2248        0.346603 
        6.20467         3.20915        0.344355 
        6.22036         3.18723        0.342126 
         6.2361         3.16505        0.339911 
         6.2518         3.14951         0.33772 
        6.26748         3.13561        0.335552 
        6.28319         3.10805        0.333398 
        6.29893         3.09063        0.331261 
        6.31463         3.06626        0.329145 
        6.33033         3.04839         0.32705 
        6.34604         3.03147         0.32497 
        6.36177         3.01249        0.322907 
        6.37747         2.99663        0.320866 
