# k  (h/Mpc)    Pcb(k)  (Mpc/h)^3    Pcb_linear(k) (Mpc/h)^3   ShotnoiseSubtracted = true
      0.0200456         2959.92         3772.08 
      0.0350414         2598.51         2694.65 
      0.0492313          2225.1         1952.41 
      0.0637834         1423.83         1626.06 
      0.0800726         1045.97         1275.44 
       0.096163         898.499          917.26 
       0.111083         741.934         738.146 
       0.126058         649.882         656.731 
       0.142273         509.516         548.487 
       0.158546         451.658         430.647 
        0.17375         387.416         367.012 
       0.188953         337.654         333.401 
       0.204907         285.224         291.577 
       0.220756         262.304         245.319 
        0.23588         228.875         215.213 
         0.2514         202.052         196.378 
       0.267535          187.58          176.32 
       0.283568         170.425         154.706 
       0.299022         155.703          138.51 
       0.314451         138.593         127.061 
       0.330372         127.631         116.105 
       0.346141         118.012         104.973 
       0.361624         108.349         95.5811 
       0.377134         101.386         88.1823 
       0.392932         95.2803         81.4842 
       0.408854          87.623         74.9199 
       0.424564         83.3528         69.0718 
       0.440253         79.7712         64.1336 
       0.455999         74.1144         59.7347 
       0.471626         68.2351         55.6273 
        0.48727         65.6032          51.847 
       0.502856         61.0401         48.5006 
       0.518488         60.4252         45.4856 
       0.534347         55.4285         42.6558 
       0.550082         52.3788         40.0544 
       0.565732         50.0907         37.6984 
       0.581496         48.3481         35.5349 
       0.597222         45.3654          33.541 
       0.612804         42.9787         31.7062 
       0.628434         41.8219         30.0034 
       0.644267         40.4693         28.4139 
       0.660051         38.9314         26.9458 
       0.675724         37.9166         25.5896 
       0.691403         35.9771         24.3256 
       0.707174         34.6386         23.1399 
       0.722871         33.0792         22.0379 
        0.73838         31.6914         21.0194 
       0.754018         30.9478         20.0577 
       0.769845         29.8391         19.1457 
        0.78569         28.6939         18.2898 
       0.801365         27.8029         17.4948 
       0.817031         26.8822         16.7478 
       0.832809         26.6305         16.0399 
       0.848511          25.232         15.3763 
       0.864097         24.5086         14.7551 
       0.879701         24.0895         14.1677 
       0.895507          23.104         13.6055 
       0.911279          22.518         13.0752 
        0.92691         21.9321         12.5776 
       0.942635         21.0412         12.1034 
       0.958396         20.5882         11.6526 
       0.974128          20.295         11.2258 
       0.989692         19.7877         10.8246 
        1.00528         19.1112         10.4425 
        1.02113         18.4539         10.0729 
        1.03692         18.1276         9.72268 
        1.05264         17.7744         9.39078 
        1.06832         17.3716         9.07494 
        1.08405         16.9514         8.77286 
        1.09979         16.6035          8.4844 
        1.11537         16.1892         8.21182 
        1.13105         15.8516         7.94963 
        1.14679         15.6128         7.69793 
        1.16256         15.3042         7.45668 
        1.17828         14.8663          7.2266 
        1.19395         14.5313         7.00705 
         1.2097         14.2049         6.79553 
        1.22537         14.0111          6.5938 
          1.241         13.7081          6.4009 
        1.25666         13.3746         6.21526 
        1.27241         13.1039         6.03614 
        1.28819         12.7575          5.8638 
        1.30392         12.6172         5.69872 
        1.31957         12.4872         5.54075 
        1.33529          12.032          5.3882 
        1.35108         11.9659         5.24082 
        1.36674         11.6796         5.10001 
         1.3824         11.4328         4.96453 
        1.39811         11.2963         4.83353 
        1.41389         11.1318         4.70677 
        1.42964          10.891         4.58479 
        1.44531         10.6997         4.46774 
        1.46101         10.5348         4.35453 
        1.47667         10.4424          4.2456 
        1.49229         10.2839         4.14069 
        1.50793         10.1206         4.03922 
        1.52367         9.95126         3.94051 
        1.53953         9.69801         3.84444 
        1.55526         9.54011         3.75235 
        1.57092         9.40067         3.66366 
        1.58662         9.25925         3.57764 
        1.60235         9.15879         3.49422 
        1.61809         8.97034         3.41342 
        1.63369         8.85465          3.3359 
        1.64941         8.63912         3.26024 
        1.66519         8.57402         3.18666 
        1.68085         8.41839         3.11588 
        1.69652         8.35702         3.04723 
        1.71228         8.27207         2.98026 
        1.72806         8.02736         2.91526 
        1.74368         7.97842         2.85286 
        1.75933         7.86726         2.79216 
        1.77505         7.76223         2.73294 
        1.79081         7.65326         2.67534 
         1.8065         7.60181         2.61966 
        1.82218         7.43432          2.5656 
        1.83797         7.37444         2.51271 
        1.85367          7.2826          2.4616 
        1.86928         7.13254         2.41223 
        1.88497         7.05533         2.36394 
        1.90073         6.96168          2.3168 
        1.91647         6.88749         2.27098 
        1.93218         6.77791         2.22651 
        1.94787         6.74092         2.18329 
        1.96363          6.6599         2.14106 
        1.97935         6.53856         2.10002 
        1.99499         6.43811          2.0603 
        2.01064         6.40437         2.02155 
         2.0264         6.30424         1.98355 
        2.04216          6.2172         1.94655 
        2.05781         6.16115         1.91073 
        2.07353          6.0498         1.87569 
        2.08928         6.01568         1.84144 
        2.10499         5.95092         1.80815 
        2.12065         5.84677         1.77578 
        2.13633         5.80167         1.74417 
        2.15211         5.71259         1.71313 
        2.16785          5.6474         1.68294 
        2.18349         5.58552         1.65366 
        2.19916         5.53888         1.62502 
        2.21489         5.48928         1.59696 
        2.23063         5.42026         1.56955 
         2.2463         5.34947          1.5429 
        2.26194         5.28044         1.51694 
        2.27765         5.23025         1.49145 
        2.29341         5.15905         1.46647 
        2.30914         5.11177         1.44212 
        2.32486         5.05385         1.41834 
        2.34061         4.99423         1.39505 
        2.35635         4.93775         1.37231 
        2.37203         4.87887         1.35015 
        2.38768         4.84745         1.32853 
        2.40339         4.79646         1.30731 
        2.41914          4.7386          1.2865 
        2.43483         4.70811         1.26621 
         2.4505         4.64241          1.2464 
        2.46622         4.61838         1.22694 
        2.48195         4.55342          1.2079 
        2.49759         4.50611         1.18937 
        2.51328         4.45623         1.17117 
        2.52906         4.40916         1.15324 
        2.54479          4.3482         1.13576 
        2.56049         4.33383         1.11867 
        2.57618          4.2863         1.10195 
        2.59189         4.25222         1.08554 
        2.60758         4.20004         1.06949 
        2.62325         4.15103         1.05379 
        2.63898          4.1148         1.03835 
        2.65468         4.08205         1.02325 
        2.67044         4.03443         1.00839 
        2.68618         3.98991        0.993855 
        2.70184         3.96189        0.979666 
        2.71755         3.91624        0.965719 
        2.73329         3.88168        0.952022 
        2.74897         3.85171        0.938635 
        2.76462          3.8066        0.925536 
        2.78034         3.77613        0.912633 
        2.79607         3.72261        0.899962 
        2.81179         3.71477        0.887547 
        2.82749         3.66631        0.875379 
        2.84321         3.64543        0.863427 
        2.85893         3.59534        0.851701 
        2.87462         3.56045        0.840213 
        2.89033         3.53557        0.828926 
        2.90605         3.50903        0.817838 
        2.92176         3.47702        0.806957 
        2.93747         3.45019        0.796281 
        2.95318         3.40998        0.785795 
        2.96891         3.36944        0.775493 
        2.98456         3.35117        0.765422 
        3.00023         3.31995        0.755515 
        3.01596         3.29405        0.745753 
        3.03164         3.25801         0.73619 
        3.04738         3.24761        0.726768 
         3.0631         3.20285        0.717514 
        3.07883         3.19462        0.708421 
        3.09456         3.15365        0.699486 
        3.11026         3.12182         0.69072 
        3.12596         3.10282        0.682105 
        3.14163          3.0779        0.673656 
        3.15734         3.05649        0.665331 
        3.17308         3.02658        0.657127 
        3.18879         3.00091        0.649084 
        3.20447         2.97769        0.641186 
         3.2202          2.9403        0.633396 
         3.2359         2.93254        0.625749 
        3.25157         2.90483        0.618247 
        3.26729         2.87716        0.610845 
        3.28304         2.86446        0.603549 
        3.29877         2.82907        0.596382 
        3.31446         2.82172        0.589348 
        3.33014         2.78952        0.582433 
        3.34585         2.76756        0.575618 
        3.36158         2.74223        0.568902 
        3.37727         2.72241        0.562314 
        3.39294         2.69621        0.555837 
        3.40867         2.68289        0.549438 
        3.42439         2.65314        0.543144 
        3.44008         2.63743         0.53696 
        3.45578         2.61362        0.530869 
        3.47153          2.6054        0.524858 
        3.48724         2.57643        0.518951 
        3.50292         2.55723        0.513148 
        3.51859         2.54243        0.507437 
        3.53431         2.52087        0.501795 
        3.55007         2.50499        0.496226 
        3.56577         2.48109        0.490762 
        3.58146          2.4583        0.485383 
        3.59719         2.44008        0.480073 
        3.61292         2.42782        0.474844 
        3.62859          2.4119        0.469712 
        3.64429          2.3955        0.464646 
        3.66003           2.382         0.45964 
        3.67578          2.3594        0.454709 
        3.69146         2.33763        0.449869 
        3.70712         2.31652        0.445108 
        3.72284         2.30447        0.440399 
        3.73853         2.29159        0.435765 
        3.75422          2.2787        0.431197 
        3.76993         2.25129         0.42669 
        3.78564          2.2333         0.42225 
        3.80137         2.22713        0.417865 
        3.81707         2.20138        0.413552 
        3.83279         2.19205        0.409296 
        3.84853         2.17888        0.405094 
        3.86424         2.16245        0.400958 
        3.87992         2.14568        0.396886 
        3.89561         2.13294        0.392871 
        3.91134         2.11238        0.388903 
        3.92704         2.10279        0.384994 
        3.94273         2.08726        0.381143 
        3.95845         2.06962        0.377338 
        3.97418         2.05521        0.373583 
        3.98988         2.04109        0.369885 
        4.00554         2.03294        0.366247 
        4.02125          2.0095        0.362648 
        4.03698         1.99564        0.359091 
        4.05268         1.97971         0.35559 
        4.06839         1.96854        0.352133 
         4.0841         1.95439        0.348723 
        4.09983         1.93283        0.345354 
        4.11555         1.92282         0.34203 
        4.13124         1.91334        0.338759 
        4.14693         1.89712        0.335528 
        4.16266         1.88047        0.332332 
        4.17839         1.87282        0.329179 
        4.19408         1.85323        0.326075 
        4.20977          1.8438        0.323009 
        4.22551         1.83033        0.319975 
        4.24123         1.81532        0.316983 
        4.25691         1.80519        0.314038 
        4.27259         1.78971        0.311129 
        4.28831         1.78118        0.308251 
        4.30404         1.76992        0.305407 
        4.31974         1.75737        0.302605 
        4.33543         1.74437        0.299839 
        4.35116         1.73243        0.297101 
        4.36688         1.72248        0.294399 
        4.38255         1.70907         0.29174 
        4.39825         1.70401        0.289109 
        4.41398         1.68754        0.286504 
         4.4297         1.67721        0.283935 
        4.44541         1.66995        0.281397 
        4.46111         1.65731        0.278893 
        4.47683         1.64554        0.276417 
        4.49251         1.63416        0.273976 
        4.50819         1.62501        0.271565 
         4.5239         1.61565         0.26918 
        4.53962         1.60897         0.26682 
        4.55535         1.59977        0.264488 
        4.57106         1.58603        0.262186 
        4.58678         1.57282        0.259912 
         4.6025         1.56932        0.257664 
        4.61821         1.55856        0.255443 
        4.63391         1.55146        0.253251 
         4.6496         1.54224        0.251086 
        4.66532         1.53477        0.248942 
        4.68103         1.52443        0.246825 
        4.69673         1.51155        0.244734 
        4.71241         1.50834         0.24267 
        4.72811         1.49519        0.240625 
        4.74384         1.48935        0.238602 
        4.75955          1.4839        0.236605 
        4.77525         1.47097        0.234632 
        4.79096         1.46609         0.23268 
        4.80669         1.46029        0.230748 
         4.8224         1.44982        0.228841 
        4.83809         1.43973        0.226957 
        4.85379         1.43234        0.225093 
         4.8695         1.42791        0.223249 
        4.88521         1.41894        0.221426 
        4.90093         1.41015        0.219623 
        4.91663         1.40225        0.217842 
        4.93234         1.39351        0.216078 
        4.94807         1.38695        0.214333 
        4.96377         1.38342        0.212611 
        4.97943         1.37618        0.210911 
        4.99514         1.36791        0.209225 
        5.01086         1.35964        0.207556 
        5.02654         1.35642         0.20591 
        5.04227         1.34667        0.204277 
          5.058         1.33672        0.202661 
        5.07371         1.33303        0.201065 
        5.08942         1.33026        0.199487 
        5.10513         1.31881        0.197925 
        5.12084         1.31588        0.196379 
        5.13656         1.30916         0.19485 
        5.15225          1.3015        0.193339 
        5.16796         1.29635        0.191843 
        5.18369         1.29443         0.19036 
         5.1994         1.28794        0.188897 
        5.21509         1.28042        0.187449 
        5.23079         1.27684        0.186016 
        5.24649         1.27234        0.184598 
        5.26217         1.26411        0.183196 
        5.27788         1.25785        0.181807 
        5.29359          1.2514        0.180432 
        5.30933         1.24611        0.179069 
        5.32504         1.24013        0.177722 
        5.34073         1.23592        0.176391 
        5.35646         1.23176        0.175071 
        5.37218         1.22493        0.173764 
        5.38789         1.21863        0.172472 
        5.40357         1.21463        0.171195 
        5.41929         1.20815        0.169929 
        5.43502         1.20313        0.168674 
         5.4507          1.1993        0.167436 
        5.46639         1.19431        0.166209 
        5.48212         1.19083        0.164993 
        5.49786         1.18602        0.163786 
        5.51353         1.17955        0.162598 
        5.52921         1.17083        0.161421 
        5.54495          1.1695        0.160251 
        5.56066         1.16833        0.159095 
        5.57637         1.16314         0.15795 
        5.59207         1.15697        0.156817 
        5.60778         1.15269        0.155695 
        5.62346         1.14827        0.154586 
        5.63916         1.14374        0.153486 
        5.65487         1.13801        0.152396 
         5.6706         1.13367        0.151316 
        5.68633         1.12975        0.150246 
        5.70203         1.12736        0.149188 
        5.71773         1.12273        0.148141 
        5.73344         1.11954        0.147103 
        5.74916         1.11111        0.146074 
        5.76486         1.10837        0.145057 
        5.78054         1.10398         0.14405 
        5.79626         1.10097        0.143051 
          5.812         1.09417        0.142059 
         5.8277          1.0899        0.141081 
        5.84339         1.08979        0.140111 
        5.85911         1.08386        0.139149 
        5.87484         1.08082        0.138195 
        5.89053         1.07723        0.137253 
        5.90623          1.0722        0.136319 
        5.92195         1.07078        0.135392 
        5.93767         1.06718        0.134474 
        5.95336         1.06245        0.133566 
        5.96905         1.05879        0.132667 
        5.98476         1.05546        0.131775 
        6.00048         1.05239        0.130891 
        6.01617          1.0494        0.130016 
        6.03185         1.04435         0.12915 
        6.04756         1.04077         0.12829 
        6.06331         1.03882        0.127436 
        6.07903         1.03392        0.126592 
        6.09473         1.03125        0.125755 
        6.11044          1.0265        0.124926 
        6.12616         1.02374        0.124105 
        6.14186         1.02087        0.123291 
        6.15755         1.01763        0.122485 
        6.17326         1.01608        0.121685 
        6.18898         1.00994        0.120893 
        6.20467         1.00719        0.120108 
        6.22036         1.00355        0.119331 
         6.2361          1.0008        0.118559 
         6.2518        0.998254        0.117794 
        6.26748        0.995073        0.117038 
        6.28319        0.993551        0.116287 
        6.29893        0.990132        0.115541 
        6.31463        0.986273        0.114804 
        6.33033         0.97953        0.114072 
        6.34604        0.979781        0.113347 
        6.36177        0.977993        0.112628 
        6.37747        0.975147        0.111916 
