# k  (h/Mpc)    Pcb(k)  (Mpc/h)^3    Pcb_linear(k) (Mpc/h)^3   ShotnoiseSubtracted = true
      0.0200456         26277.1         22861.4 
      0.0350414         17889.5         16331.5 
      0.0492313         12267.8           11833 
      0.0637834         9621.04         9855.07 
      0.0800726         7180.64         7730.08 
       0.096163         5395.72         5559.23 
       0.111083         4788.89         4473.68 
       0.126058         4149.52         3980.24 
       0.142273         3517.85         3324.21 
       0.158546         2994.28         2610.02 
        0.17375         2532.12         2224.35 
       0.188953         2297.37         2020.64 
       0.204907         2001.77         1767.16 
       0.220756         1882.63          1486.8 
        0.23588         1682.28         1304.34 
         0.2514         1537.06         1190.19 
       0.267535         1452.75         1068.62 
       0.283568         1354.79         937.626 
       0.299022         1232.85         839.464 
       0.314451         1187.37         770.075 
       0.330372         1087.54         703.677 
       0.346141         1054.43         636.206 
       0.361624         999.671         579.288 
       0.377134         952.888         534.446 
       0.392932          873.27         493.851 
       0.408854         861.961         454.066 
       0.424564         798.619         418.623 
       0.440253          803.56         388.694 
       0.455999         762.551         362.034 
       0.471626         745.006          337.14 
        0.48727         707.811         314.229 
       0.502856         685.185         293.947 
       0.518488         662.106         275.674 
       0.534347         637.864         258.524 
       0.550082         625.473         242.757 
       0.565732         605.794         228.479 
       0.581496          585.25         215.366 
       0.597222         570.959         203.282 
       0.612804         558.551         192.161 
       0.628434         549.141         181.841 
       0.644267           523.6         172.208 
       0.660051         513.749          163.31 
       0.675724         504.282         155.091 
       0.691403         488.508          147.43 
       0.707174         479.336         140.244 
       0.722871         472.906         133.565 
        0.73838         456.093         127.392 
       0.754018         452.213         121.564 
       0.769845         441.523         116.036 
        0.78569         428.228         110.849 
       0.801365         417.189          106.03 
       0.817031         410.172         101.503 
       0.832809         402.964          97.213 
       0.848511         394.254         93.1913 
       0.864097         388.659          89.426 
       0.879701          383.11         85.8661 
       0.895507         373.997          82.459 
       0.911279         360.221         79.2448 
        0.92691         359.259         76.2292 
       0.942635         349.779         73.3547 
       0.958396         345.202         70.6229 
       0.974128         338.781         68.0358 
       0.989692         330.351         65.6044 
        1.00528         324.719         63.2887 
        1.02113         321.535         61.0489 
        1.03692         310.693         58.9262 
        1.05264         307.299         56.9146 
        1.06832         300.348         55.0004 
        1.08405         297.153         53.1696 
        1.09979         291.308         51.4213 
        1.11537         284.859         49.7693 
        1.13105         283.947         48.1803 
        1.14679         275.214         46.6548 
        1.16256         273.722         45.1927 
        1.17828         267.105         43.7982 
        1.19395         263.478         42.4676 
         1.2097         261.808         41.1856 
        1.22537         256.118          39.963 
          1.241         248.917         38.7939 
        1.25666         247.534         37.6688 
        1.27241         244.851         36.5832 
        1.28819         240.836         35.5387 
        1.30392         236.933         34.5382 
        1.31957          233.73         33.5808 
        1.33529         227.007         32.6562 
        1.35108         227.279          31.763 
        1.36674         223.209         30.9096 
         1.3824         220.736         30.0885 
        1.39811         214.193         29.2946 
        1.41389         212.351         28.5263 
        1.42964         207.704          27.787 
        1.44531         204.318         27.0776 
        1.46101         202.576         26.3915 
        1.47667         198.977         25.7313 
        1.49229          195.45         25.0955 
        1.50793         194.828         24.4805 
        1.52367         190.123         23.8822 
        1.53953         187.345            23.3 
        1.55526          184.31         22.7418 
        1.57092         182.796         22.2043 
        1.58662         179.332          21.683 
        1.60235         176.669         21.1774 
        1.61809         174.682         20.6877 
        1.63369         171.649         20.2179 
        1.64941         169.022         19.7593 
        1.66519          166.35         19.3134 
        1.68085         164.743         18.8844 
        1.69652         161.718         18.4683 
        1.71228         159.293         18.0625 
        1.72806         158.661         17.6685 
        1.74368         155.017         17.2903 
        1.75933         151.826         16.9224 
        1.77505         150.345         16.5635 
        1.79081         148.494         16.2144 
         1.8065          147.18         15.8769 
        1.82218         144.686         15.5493 
        1.83797         142.195         15.2288 
        1.85367         140.282          14.919 
        1.86928         138.709         14.6198 
        1.88497         136.973         14.3271 
        1.90073         135.339         14.0414 
        1.91647         132.209         13.7637 
        1.93218         130.983         13.4942 
        1.94787         129.511         13.2323 
        1.96363         127.788         12.9763 
        1.97935         125.581         12.7276 
        1.99499          124.51         12.4868 
        2.01064         122.158          12.252 
         2.0264         120.946         12.0217 
        2.04216         119.457         11.7975 
        2.05781         117.036         11.5804 
        2.07353         115.762          11.368 
        2.08928         115.376         11.1604 
        2.10499          113.32         10.9586 
        2.12065         111.566         10.7624 
        2.13633         109.994         10.5709 
        2.15211          108.71         10.3828 
        2.16785         106.582         10.1998 
        2.18349         105.552         10.0223 
        2.19916         104.768         9.84874 
        2.21489         103.143          9.6787 
        2.23063         101.194         9.51255 
         2.2463         99.9542         9.35106 
        2.26194         99.2907         9.19372 
        2.27765         97.7065         9.03921 
        2.29341         95.9543         8.88784 
        2.30914         94.7844         8.74026 
        2.32486         93.8404         8.59611 
        2.34061         93.2845         8.45498 
        2.35635         91.4284         8.31714 
        2.37203         90.4866         8.18286 
        2.38768         89.2949         8.05182 
        2.40339         88.1613         7.92318 
        2.41914         87.3503         7.79705 
        2.43483         86.0608         7.67412 
         2.4505         84.7424         7.55405 
        2.46622         84.1688         7.43613 
        2.48195         82.6281         7.32073 
        2.49759         81.7848         7.20839 
        2.51328         80.5888         7.09812 
        2.52906         79.8678         6.98946 
        2.54479         78.8831         6.88348 
        2.56049           78.07         6.77991 
        2.57618          77.121         6.67856 
        2.59189         75.9388         6.57912 
        2.60758         75.2629         6.48188 
        2.62325         74.3181         6.38671 
        2.63898         72.9019         6.29313 
        2.65468         72.2694         6.20162 
        2.67044         71.3747         6.11153 
        2.68618         70.5991         6.02345 
        2.70184         69.8989         5.93746 
        2.71755         68.8613         5.85293 
        2.73329         68.2822         5.76991 
        2.74897         67.6956         5.68878 
        2.76462         66.4212         5.60939 
        2.78034         65.6872         5.53119 
        2.79607         64.8455         5.45439 
        2.81179         64.4059         5.37915 
        2.82749         63.4144         5.30541 
        2.84321         62.9691         5.23296 
        2.85893         62.0374          5.1619 
        2.87462         61.2818         5.09227 
        2.89033         60.7885         5.02387 
        2.90605         59.9644         4.95666 
        2.92176         59.3606         4.89072 
        2.93747          58.559         4.82601 
        2.95318         57.9492         4.76246 
        2.96891         57.3491         4.70003 
        2.98456         56.5807         4.63899 
        3.00023         55.9674         4.57894 
        3.01596         55.1997         4.51978 
        3.03164         54.8214         4.46182 
        3.04738         54.1839         4.40472 
         3.0631          53.365         4.34863 
        3.07883         53.0292         4.29352 
        3.09456         52.5479         4.23937 
        3.11026          51.714         4.18624 
        3.12596         51.0286         4.13403 
        3.14163         50.7088         4.08282 
        3.15734          50.167         4.03237 
        3.17308            49.7         3.98265 
        3.18879         48.9981          3.9339 
        3.20447         48.3646         3.88603 
         3.2202         47.8808         3.83882 
         3.2359         47.3849         3.79247 
        3.25157         46.7734           3.747 
        3.26729         46.2654         3.70214 
        3.28304         45.9052         3.65793 
        3.29877         45.2891         3.61449 
        3.31446         44.7887         3.57185 
        3.33014         44.2923         3.52994 
        3.34585          43.728         3.48864 
        3.36158         43.4837         3.44794 
        3.37727         43.1218         3.40801 
        3.39294          42.446         3.36876 
        3.40867         42.0845         3.32998 
        3.42439         41.6996         3.29183 
        3.44008         41.3273         3.25435 
        3.45578         40.8791         3.21743 
        3.47153         40.5032           3.181 
        3.48724         40.0157          3.1452 
        3.50292         39.5865         3.11003 
        3.51859         39.1391         3.07542 
        3.53431         38.8327         3.04123 
        3.55007         38.3297         3.00747 
        3.56577         37.9134         2.97436 
        3.58146         37.6719         2.94176 
        3.59719         37.2044         2.90957 
        3.61292         36.7594         2.87788 
        3.62859         36.5533         2.84678 
        3.64429         36.0475         2.81608 
        3.66003         35.8162         2.78574 
        3.67578         35.3706         2.75585 
        3.69146         35.0467         2.72652 
        3.70712         34.7974         2.69766 
        3.72284           34.38         2.66912 
        3.73853         34.0436         2.64104 
        3.75422         33.6588         2.61335 
        3.76993         33.1724         2.58604 
        3.78564         33.0073         2.55913 
        3.80137          32.753         2.53255 
        3.81707         32.3984         2.50641 
        3.83279         32.1039         2.48062 
        3.84853         31.7749         2.45515 
        3.86424         31.4579         2.43008 
        3.87992         31.2198         2.40541 
        3.89561         30.8326         2.38107 
        3.91134         30.5246         2.35702 
        3.92704         30.2685         2.33333 
        3.94273         30.0581         2.30999 
        3.95845         29.6567         2.28693 
        3.97418         29.4462         2.26417 
        3.98988         29.1912         2.24176 
        4.00554          28.815         2.21971 
        4.02125         28.5751          2.1979 
        4.03698         28.2455         2.17634 
        4.05268         28.0905         2.15512 
        4.06839         27.8058         2.13417 
         4.0841         27.4994          2.1135 
        4.09983         27.2807         2.09308 
        4.11555         27.0116         2.07294 
        4.13124         26.7918         2.05311 
        4.14693         26.4203         2.03353 
        4.16266         26.2439         2.01416 
        4.17839         26.0219         1.99506 
        4.19408          25.821         1.97624 
        4.20977         25.5704         1.95766 
        4.22551         25.3521         1.93927 
        4.24123          25.104         1.92114 
        4.25691         24.7636         1.90329 
        4.27259         24.5564         1.88566 
        4.28831         24.3615         1.86821 
        4.30404         24.1574         1.85098 
        4.31974         23.9537         1.83399 
        4.33543         23.7416         1.81723 
        4.35116         23.5383         1.80064 
        4.36688          23.332         1.78426 
        4.38255         23.0658         1.76815 
        4.39825         22.9464          1.7522 
        4.41398         22.6903         1.73642 
         4.4297         22.4929         1.72084 
        4.44541         22.3206         1.70546 
        4.46111         22.0576         1.69028 
        4.47683         21.9848         1.67528 
        4.49251         21.7009         1.66048 
        4.50819         21.5666         1.64587 
         4.5239         21.3558         1.63142 
        4.53962         21.1687         1.61711 
        4.55535         21.0016         1.60298 
        4.57106         20.7838         1.58903 
        4.58678         20.6183         1.57525 
         4.6025         20.4768         1.56162 
        4.61821         20.2233         1.54816 
        4.63391         20.0731         1.53488 
         4.6496         19.9242         1.52175 
        4.66532         19.7463         1.50876 
        4.68103         19.5252         1.49593 
        4.69673         19.4142         1.48326 
        4.71241         19.2844         1.47075 
        4.72811         19.0768         1.45836 
        4.74384         18.9511          1.4461 
        4.75955         18.7698         1.43399 
        4.77525         18.5957         1.42204 
        4.79096         18.4308          1.4102 
        4.80669         18.3134         1.39849 
         4.8224         18.1247         1.38693 
        4.83809         18.0125         1.37552 
        4.85379         17.8297         1.36422 
         4.8695         17.7591         1.35304 
        4.88521         17.5573         1.34199 
        4.90093         17.3928         1.33107 
        4.91663          17.287         1.32027 
        4.93234         17.1528         1.30958 
        4.94807         16.9607         1.29901 
        4.96377          16.808         1.28857 
        4.97943         16.7013         1.27827 
        4.99514          16.571         1.26805 
        5.01086         16.4659         1.25794 
        5.02654         16.3288         1.24796 
        5.04227         16.1843         1.23806 
          5.058         16.0144         1.22826 
        5.07371          15.906         1.21859 
        5.08942         15.7771         1.20903 
        5.10513         15.6688         1.19956 
        5.12084         15.5236         1.19019 
        5.13656         15.3955         1.18092 
        5.15225         15.2934         1.17177 
        5.16796         15.1693          1.1627 
        5.18369         15.0055         1.15372 
         5.1994         14.8726         1.14484 
        5.21509         14.8114         1.13607 
        5.23079         14.6832         1.12738 
        5.24649         14.5454         1.11879 
        5.26217         14.4735          1.1103 
        5.27788         14.3361         1.10188 
        5.29359         14.2234         1.09354 
        5.30933         14.1473         1.08528 
        5.32504         14.0091         1.07712 
        5.34073         13.8781         1.06905 
        5.35646         13.8136         1.06105 
        5.37218         13.6845         1.05313 
        5.38789          13.569          1.0453 
        5.40357         13.4397         1.03756 
        5.41929         13.3814         1.02988 
        5.43502         13.2598         1.02228 
         5.4507         13.1707         1.01478 
        5.46639         13.0656         1.00734 
        5.48212         12.9516        0.999969 
        5.49786         12.8759        0.992659 
        5.51353         12.7467        0.985458 
        5.52921         12.6572        0.978321 
        5.54495         12.5584        0.971234 
        5.56066         12.4664        0.964225 
        5.57637         12.3729        0.957285 
        5.59207         12.3014        0.950421 
        5.60778         12.2033        0.943621 
        5.62346         12.1313        0.936896 
        5.63916         12.0143        0.930231 
        5.65487         11.9376        0.923628 
         5.6706         11.8386         0.91708 
        5.68633         11.7539        0.910594 
        5.70203         11.6733        0.904184 
        5.71773         11.6036        0.897836 
        5.73344         11.5004        0.891547 
        5.74916         11.4009        0.885311 
        5.76486         11.3257        0.879143 
        5.78054          11.234        0.873044 
        5.79626         11.1722        0.866986 
          5.812         11.0848        0.860979 
         5.8277         11.0038        0.855046 
        5.84339         10.9261         0.84917 
        5.85911         10.8296        0.843337 
        5.87484         10.7717         0.83756 
        5.89053          10.687        0.831848 
        5.90623         10.6027        0.826187 
        5.92195         10.5327        0.820569 
        5.93767         10.4589        0.815006 
        5.95336         10.3766        0.809504 
        5.96905         10.3082        0.804055 
        5.98476         10.2442        0.798648 
        6.00048         10.1722         0.79329 
        6.01617         10.0933        0.787987 
        6.03185         10.0013        0.782739 
        6.04756         9.94116        0.777527 
        6.06331         9.87728        0.772351 
        6.07903          9.8281        0.767233 
        6.09473         9.74637        0.762165 
        6.11044         9.67314         0.75714 
        6.12616         9.59285         0.75216 
        6.14186         9.53346         0.74723 
        6.15755         9.48039        0.742344 
        6.17326         9.41756        0.737498 
        6.18898         9.34523        0.732694 
        6.20467         9.27106         0.72794 
        6.22036         9.21445        0.723229 
         6.2361         9.14258        0.718547 
         6.2518         9.09073        0.713914 
        6.26748         9.04143        0.709333 
        6.28319         8.96105        0.704778 
        6.29893         8.88674         0.70026 
        6.31463         8.82356        0.695789 
        6.33033         8.77305        0.691358 
        6.34604         8.70203        0.686963 
        6.36177         8.66164        0.682602 
        6.37747         8.57765        0.678287 
