# k  (h/Mpc)    Pcb(k)  (Mpc/h)^3    Pcb_linear(k) (Mpc/h)^3   ShotnoiseSubtracted = true
      0.0200456         16003.4         18665.2 
      0.0350414         11538.6         13333.8 
      0.0492313         8525.68         9661.05 
      0.0637834         7532.12         8046.18 
      0.0800726         5826.69         6311.23 
       0.096163         4645.92         4538.84 
       0.111083         3715.58         3652.54 
       0.126058          3054.9         3249.68 
       0.142273          2569.8         2714.06 
       0.158546         2189.23         2130.95 
        0.17375         1880.13         1816.07 
       0.188953         1839.07         1649.75 
       0.204907         1563.01          1442.8 
       0.220756         1379.23          1213.9 
        0.23588         1277.84         1064.93 
         0.2514         1165.57         971.729 
       0.267535         1106.88         872.479 
       0.283568          996.29         765.526 
       0.299022         905.347         685.381 
       0.314451          902.02         628.729 
       0.330372          843.58         574.518 
       0.346141         737.143         519.432 
       0.361624         726.603          472.96 
       0.377134         709.165         436.349 
       0.392932         633.985         403.205 
       0.408854         635.373         370.723 
       0.424564         590.438         341.785 
       0.440253         578.381          317.35 
       0.455999         551.769         295.583 
       0.471626         528.123         275.258 
        0.48727         516.343         256.553 
       0.502856         490.066         239.994 
       0.518488         470.996         225.075 
       0.534347          453.35         211.072 
       0.550082         441.047         198.199 
       0.565732         425.804         186.542 
       0.581496          413.04         175.836 
       0.597222         405.814          165.97 
       0.612804          389.96          156.89 
       0.628434         382.333         148.465 
       0.644267         364.009         140.599 
       0.660051         356.246         133.335 
       0.675724         352.742         126.624 
       0.691403         339.419          120.37 
       0.707174          331.64         114.502 
       0.722871         319.651         109.049 
        0.73838         320.437          104.01 
       0.754018         307.247         99.2507 
       0.769845         304.636         94.7381 
        0.78569         294.743         90.5026 
       0.801365         289.968         86.5686 
       0.817031         283.795         82.8724 
       0.832809         278.658         79.3697 
       0.848511         271.285         76.0862 
       0.864097         267.558          73.012 
       0.879701         259.498         70.1055 
       0.895507         255.348         67.3238 
       0.911279         249.382         64.6995 
        0.92691          244.75         62.2375 
       0.942635         243.453         59.8905 
       0.958396         238.009         57.6602 
       0.974128         232.668          55.548 
       0.989692         229.049         53.5628 
        1.00528         225.497         51.6721 
        1.02113         220.511         49.8434 
        1.03692         215.521         48.1104 
        1.05264         212.999          46.468 
        1.06832         206.783         44.9052 
        1.08405         204.216         43.4104 
        1.09979          199.88          41.983 
        1.11537          197.55         40.6342 
        1.13105         196.007         39.3369 
        1.14679         193.154         38.0914 
        1.16256         188.047         36.8976 
        1.17828         185.792         35.7591 
        1.19395         182.842         34.6727 
         1.2097         179.593         33.6261 
        1.22537         178.291         32.6278 
          1.241         173.826         31.6733 
        1.25666         172.108         30.7547 
        1.27241         167.278         29.8684 
        1.28819         165.864         29.0156 
        1.30392         163.067         28.1988 
        1.31957         159.568         27.4171 
        1.33529         157.846         26.6622 
        1.35108         155.825         25.9329 
        1.36674         152.916         25.2362 
         1.3824         151.236         24.5658 
        1.39811         148.381         23.9176 
        1.41389         145.264         23.2903 
        1.42964         144.457         22.6867 
        1.44531         142.615         22.1075 
        1.46101         141.267         21.5474 
        1.47667         138.991         21.0083 
        1.49229         136.449         20.4892 
        1.50793         133.869         19.9871 
        1.52367         132.751         19.4987 
        1.53953         129.852         19.0233 
        1.55526         128.173         18.5676 
        1.57092         125.542         18.1288 
        1.58662         124.688         17.7031 
        1.60235         122.315         17.2903 
        1.61809         121.329         16.8905 
        1.63369         119.616         16.5069 
        1.64941         117.781         16.1325 
        1.66519         115.901         15.7684 
        1.68085         114.968         15.4182 
        1.69652         112.313         15.0785 
        1.71228         110.869         14.7471 
        1.72806         109.351         14.4255 
        1.74368         108.153         14.1167 
        1.75933         105.983         13.8163 
        1.77505         104.725         13.5233 
        1.79081         103.776         13.2383 
         1.8065         102.029         12.9627 
        1.82218         101.086         12.6953 
        1.83797         99.2654         12.4335 
        1.85367         97.3287         12.1807 
        1.86928         96.6829         11.9363 
        1.88497         95.6445         11.6974 
        1.90073         93.9244         11.4641 
        1.91647         92.5623         11.2374 
        1.93218         91.8101         11.0173 
        1.94787         90.0769         10.8035 
        1.96363         89.2239         10.5945 
        1.97935          87.818         10.3915 
        1.99499         87.1202         10.1949 
        2.01064         85.6305         10.0032 
         2.0264         84.2732         9.81513 
        2.04216         83.1187         9.63205 
        2.05781         82.1067          9.4548 
        2.07353         81.2554         9.28138 
        2.08928         80.2352         9.11194 
        2.10499         79.0327         8.94719 
        2.12065         78.1274         8.78701 
        2.13633         76.7525         8.63062 
        2.15211         76.2076         8.47704 
        2.16785         74.8969         8.32762 
        2.18349         73.4412         8.18275 
        2.19916         72.8331         8.04102 
        2.21489         72.3407         7.90218 
        2.23063           70.94         7.76654 
         2.2463         69.9547         7.63469 
        2.26194         69.2688         7.50623 
        2.27765          68.419         7.38007 
        2.29341         67.4095         7.25649 
        2.30914         66.6579         7.13599 
        2.32486         65.9903          7.0183 
        2.34061         65.3038         6.90308 
        2.35635          64.466         6.79054 
        2.37203         63.5102         6.68091 
        2.38768         62.5534         6.57392 
        2.40339          62.045         6.46889 
        2.41914         61.3619         6.36592 
        2.43483         60.3011         6.26555 
         2.4505         59.6044         6.16751 
        2.46622         58.8199         6.07124 
        2.48195         57.8037         5.97702 
        2.49759         57.3902          5.8853 
        2.51328         56.9224         5.79527 
        2.52906         55.9053         5.70655 
        2.54479         55.2662         5.62003 
        2.56049         54.7407         5.53546 
        2.57618         53.8094         5.45272 
        2.59189         53.3607         5.37154 
        2.60758         52.7857         5.29214 
        2.62325         52.0351         5.21444 
        2.63898         51.5611         5.13803 
        2.65468         50.9742         5.06332 
        2.67044         50.0961         4.98977 
        2.68618         49.5714         4.91785 
        2.70184         49.0776         4.84764 
        2.71755         48.8648         4.77863 
        2.73329         47.8679         4.71085 
        2.74897         47.4575         4.64461 
        2.76462         46.9053         4.57979 
        2.78034         46.2211         4.51595 
        2.79607         45.8881         4.45325 
        2.81179         45.1061         4.39181 
        2.82749         44.6221         4.33161 
        2.84321         44.2693         4.27246 
        2.85893         43.6751         4.21444 
        2.87462          42.933         4.15759 
        2.89033         42.5038         4.10174 
        2.90605         42.0105         4.04687 
        2.92176         41.7521         3.99304 
        2.93747         41.2058          3.9402 
        2.95318         40.6905         3.88832 
        2.96891         40.3187         3.83734 
        2.98456         39.6012         3.78751 
        3.00023         39.4361         3.73849 
        3.01596         38.7162         3.69018 
        3.03164          38.584         3.64286 
        3.04738         38.1842         3.59624 
         3.0631         37.5939         3.55045 
        3.07883         37.3094         3.50545 
        3.09456         36.6827         3.46124 
        3.11026         36.3584         3.41786 
        3.12596         35.9912         3.37523 
        3.14163         35.6211         3.33343 
        3.15734         35.2285         3.29223 
        3.17308         34.8963         3.25164 
        3.18879         34.5778         3.21183 
        3.20447         34.1504         3.17276 
         3.2202         33.7128         3.13421 
         3.2359         33.3116         3.09637 
        3.25157          32.929         3.05925 
        3.26729         32.6705         3.02262 
        3.28304         32.3648         2.98652 
        3.29877         32.0086         2.95106 
        3.31446         31.5895         2.91625 
        3.33014         31.3335         2.88203 
        3.34585          31.009         2.84831 
        3.36158         30.5679         2.81508 
        3.37727         30.2808         2.78248 
        3.39294          29.886         2.75043 
        3.40867         29.6397         2.71876 
        3.42439         29.2846         2.68762 
        3.44008         29.0753         2.65702 
        3.45578         28.8276         2.62688 
        3.47153         28.5353         2.59713 
        3.48724         28.2352          2.5679 
        3.50292         27.8589         2.53919 
        3.51859          27.675         2.51093 
        3.53431         27.3319         2.48301 
        3.55007         27.0358         2.45545 
        3.56577         26.7341         2.42842 
        3.58146            26.5          2.4018 
        3.59719         26.2328         2.37553 
        3.61292         26.0088         2.34965 
        3.62859         25.7676         2.32426 
        3.64429         25.4342         2.29919 
        3.66003         25.1834         2.27442 
        3.67578         24.8871         2.25002 
        3.69146         24.7515         2.22607 
        3.70712         24.4331         2.20251 
        3.72284          24.198         2.17921 
        3.73853         23.9297         2.15628 
        3.75422         23.7542         2.13368 
        3.76993         23.5331         2.11138 
        3.78564         23.2748          2.0894 
        3.80137         23.0021         2.06771 
        3.81707         22.8407         2.04636 
        3.83279         22.6194          2.0253 
        3.84853         22.3107         2.00451 
        3.86424         22.1667         1.98405 
        3.87992         22.0165          1.9639 
        3.89561         21.6562         1.94403 
        3.91134         21.5223         1.92439 
        3.92704         21.3105         1.90505 
        3.94273         21.1123           1.886 
        3.95845         20.9409         1.86717 
        3.97418         20.6346         1.84859 
        3.98988         20.4865         1.83029 
        4.00554         20.2987         1.81229 
        4.02125         20.1226         1.79448 
        4.03698         19.9372         1.77688 
        4.05268         19.7063         1.75955 
        4.06839         19.5628         1.74245 
         4.0841         19.4207         1.72557 
        4.09983         19.1908          1.7089 
        4.11555         19.0331         1.69245 
        4.13124         18.8261         1.67627 
        4.14693         18.6473         1.66028 
        4.16266         18.4997         1.64447 
        4.17839         18.3681         1.62887 
        4.19408         18.1435          1.6135 
        4.20977         17.9863         1.59833 
        4.22551         17.8346         1.58332 
        4.24123         17.6614         1.56852 
        4.25691         17.4965         1.55394 
        4.27259         17.2884         1.53955 
        4.28831          17.146         1.52531 
        4.30404         17.0319         1.51123 
        4.31974         16.8797         1.49737 
        4.33543         16.7029         1.48368 
        4.35116         16.5349         1.47014 
        4.36688          16.391         1.45676 
        4.38255         16.2535         1.44361 
        4.39825          16.129         1.43059 
        4.41398         15.9609          1.4177 
         4.4297         15.8527         1.40498 
        4.44541         15.6913         1.39243 
        4.46111         15.5452         1.38003 
        4.47683         15.4398         1.36778 
        4.49251         15.3034          1.3557 
        4.50819         15.1694         1.34377 
         4.5239         15.0183         1.33197 
        4.53962         14.8743         1.32029 
        4.55535         14.7722         1.30875 
        4.57106         14.6087         1.29737 
        4.58678         14.4897         1.28611 
         4.6025         14.3963         1.27499 
        4.61821         14.2508           1.264 
        4.63391         14.1517         1.25315 
         4.6496         14.0147         1.24244 
        4.66532         13.8816         1.23183 
        4.68103         13.7212         1.22135 
        4.69673         13.6294         1.21101 
        4.71241         13.5255         1.20079 
        4.72811          13.439         1.19068 
        4.74384         13.2821         1.18067 
        4.75955         13.1834         1.17079 
        4.77525         13.0838         1.16102 
        4.79096         12.9804         1.15136 
        4.80669         12.8635          1.1418 
         4.8224         12.7726         1.13236 
        4.83809         12.6575         1.12304 
        4.85379          12.519         1.11382 
         4.8695         12.4235         1.10469 
        4.88521         12.3522         1.09567 
        4.90093         12.2412         1.08675 
        4.91663          12.128         1.07794 
        4.93234         12.0493         1.06921 
        4.94807          11.961         1.06058 
        4.96377         11.8274         1.05205 
        4.97943         11.7361         1.04364 
        4.99514         11.6382          1.0353 
        5.01086         11.5596         1.02704 
        5.02654         11.4583          1.0189 
        5.04227           11.36         1.01082 
          5.058         11.2763         1.00282 
        5.07371         11.1584        0.994923 
        5.08942         11.0428        0.987111 
        5.10513         11.0039        0.979383 
        5.12084         10.9256        0.971733 
        5.13656         10.8397        0.964167 
        5.15225         10.7331        0.956694 
        5.16796         10.6645        0.949288 
        5.18369         10.5724        0.941953 
         5.1994         10.4902         0.93471 
        5.21509         10.4222        0.927549 
        5.23079         10.3423        0.920455 
        5.24649         10.2434         0.91344 
        5.26217         10.1961        0.906503 
        5.27788         10.0782        0.899629 
        5.29359         9.99568        0.892824 
        5.30933         9.93607         0.88608 
        5.32504         9.86739        0.879417 
        5.34073         9.76807         0.87283 
        5.35646         9.70614        0.866297 
        5.37218          9.6219        0.859829 
        5.38789         9.55925        0.853438 
        5.40357         9.49382        0.847119 
        5.41929         9.41883        0.840851 
        5.43502         9.33657        0.834644 
         5.4507         9.26615        0.828516 
        5.46639         9.20189        0.822448 
        5.48212         9.11402        0.816426 
        5.49786         9.07021        0.810458 
        5.51353         8.99392        0.804578 
        5.52921         8.92206        0.798751 
        5.54495         8.86779        0.792965 
        5.56066         8.77613        0.787242 
        5.57637         8.72109        0.781577 
        5.59207         8.66424        0.775972 
        5.60778         8.60484         0.77042 
        5.62346         8.53125         0.76493 
        5.63916         8.48185        0.759489 
        5.65487         8.39464        0.754097 
         5.6706         8.34124        0.748752 
        5.68633         8.26582        0.743456 
        5.70203         8.22277        0.738222 
        5.71773         8.15886         0.73304 
        5.73344         8.09824        0.727904 
        5.74916         8.04256        0.722813 
        5.76486         7.96967        0.717778 
        5.78054         7.91764        0.712798 
        5.79626          7.8537        0.707852 
          5.812          7.7842        0.702947 
         5.8277         7.75974        0.698104 
        5.84339         7.71493        0.693306 
        5.85911         7.63933        0.688543 
        5.87484         7.58027        0.683827 
        5.89053         7.52815        0.679163 
        5.90623         7.46142        0.674542 
        5.92195          7.4113        0.669955 
        5.93767         7.35634        0.665413 
        5.95336         7.31935        0.660921 
        5.96905         7.26009        0.656472 
        5.98476         7.21155        0.652058 
        6.00048         7.17067        0.647682 
        6.01617         7.11723        0.643353 
        6.03185          7.0575        0.639069 
        6.04756         7.02873        0.634813 
        6.06331         6.97298        0.630587 
        6.07903         6.91163        0.626408 
        6.09473         6.86215        0.622271 
        6.11044         6.82115        0.618168 
        6.12616         6.76972        0.614102 
        6.14186         6.74491        0.610077 
        6.15755         6.67818        0.606088 
        6.17326          6.6481        0.602132 
        6.18898         6.59024        0.598209 
        6.20467         6.55781        0.594328 
        6.22036         6.51213        0.590482 
         6.2361         6.46576        0.586659 
         6.2518         6.41713        0.582876 
        6.26748         6.38019        0.579136 
        6.28319         6.32767        0.575417 
        6.29893         6.29194        0.571728 
        6.31463          6.2469        0.568078 
        6.33033         6.19919         0.56446 
        6.34604         6.16545        0.560872 
        6.36177         6.12752        0.557311 
        6.37747         6.06622        0.553788 
