# k  (h/Mpc)    Pcb(k)  (Mpc/h)^3    Pcb_linear(k) (Mpc/h)^3   ShotnoiseSubtracted = true
      0.0200456          172.53         187.411 
      0.0350414         135.647         133.881 
      0.0492313         96.2482         97.0034 
      0.0637834         79.3466          80.789 
      0.0800726         55.6827         63.3689 
       0.096163         47.2631          45.573 
       0.111083         37.5977         36.6739 
       0.126058         33.9727         32.6289 
       0.142273         28.7966         27.2509 
       0.158546         22.3977         21.3962 
        0.17375         18.1225         18.2346 
       0.188953         17.0053         16.5646 
       0.204907         14.3415         14.4867 
       0.220756         12.0716         12.1884 
        0.23588         10.2884         10.6926 
         0.2514         9.31402          9.7568 
       0.267535         8.52772         8.76027 
       0.283568          7.4378         7.68639 
       0.299022         6.73688         6.88168 
       0.314451         6.50209         6.31286 
       0.330372         5.69416         5.76854 
       0.346141         5.22573         5.21544 
       0.361624         4.74936         4.74883 
       0.377134         4.28699         4.38123 
       0.392932         4.10239         4.04845 
       0.408854         3.74628         3.72231 
       0.424564         3.40178         3.43175 
       0.440253         3.19193          3.1864 
       0.455999          2.9635         2.96785 
       0.471626         2.79072         2.76378 
        0.48727         2.56252         2.57596 
       0.502856         2.43437          2.4097 
       0.518488         2.24894          2.2599 
       0.534347         2.11235          2.1193 
       0.550082         2.00944         1.99005 
       0.565732         1.87099           1.873 
       0.581496         1.76765         1.76551 
       0.597222         1.69977         1.66644 
       0.612804         1.58193         1.57528 
       0.628434         1.50144         1.49068 
       0.644267         1.42032         1.41171 
       0.660051         1.32196         1.33877 
       0.675724         1.28779         1.27139 
       0.691403         1.21562         1.20859 
       0.707174         1.15602         1.14968 
       0.722871         1.11251         1.09492 
        0.73838         1.04969         1.04432 
       0.754018        0.987274        0.996543 
       0.769845         0.95696        0.951234 
        0.78569        0.911619        0.908707 
       0.801365        0.878317        0.869206 
       0.817031        0.837278        0.832094 
       0.832809        0.797962        0.796924 
       0.848511        0.772702        0.763956 
       0.864097        0.746053        0.733088 
       0.879701        0.711366        0.703906 
       0.895507        0.690483        0.675975 
       0.911279        0.660083        0.649626 
        0.92691        0.622509        0.624905 
       0.942635        0.601357        0.601341 
       0.958396        0.580648        0.578947 
       0.974128        0.567387        0.557738 
       0.989692        0.547502        0.537806 
        1.00528        0.520521        0.518822 
        1.02113        0.507142        0.500461 
        1.03692        0.492231         0.48306 
        1.05264        0.472613         0.46657 
        1.06832        0.453542        0.450878 
        1.08405        0.435267        0.435869 
        1.09979        0.424435        0.421537 
        1.11537        0.407827        0.407994 
        1.13105        0.398743        0.394968 
        1.14679        0.382712        0.382463 
        1.16256        0.375386        0.370477 
        1.17828        0.365392        0.359045 
        1.19395          0.3523        0.348137 
         1.2097        0.341724        0.337628 
        1.22537           0.329        0.327605 
          1.241        0.322398        0.318021 
        1.25666        0.311719        0.308798 
        1.27241        0.302577        0.299899 
        1.28819        0.293405        0.291336 
        1.30392        0.285477        0.283134 
        1.31957        0.276859        0.275285 
        1.33529        0.267337        0.267706 
        1.35108        0.262925        0.260384 
        1.36674        0.255525        0.253388 
         1.3824        0.249941        0.246657 
        1.39811        0.242532        0.240148 
        1.41389        0.235598        0.233851 
        1.42964        0.229686         0.22779 
        1.44531        0.221669        0.221974 
        1.46101        0.217714         0.21635 
        1.47667        0.213875        0.210938 
        1.49229        0.206776        0.205726 
        1.50793        0.201758        0.200684 
        1.52367        0.196827         0.19578 
        1.53953         0.19207        0.191007 
        1.55526        0.187231        0.186431 
        1.57092        0.184129        0.182025 
        1.58662        0.178435        0.177751 
        1.60235        0.173493        0.173606 
        1.61809        0.169723        0.169592 
        1.63369        0.165972         0.16574 
        1.64941        0.163083        0.161981 
        1.66519        0.158994        0.158325 
        1.68085        0.155161        0.154809 
        1.69652        0.151624        0.151398 
        1.71228        0.147779        0.148071 
        1.72806        0.144376        0.144841 
        1.74368        0.141956        0.141741 
        1.75933        0.139554        0.138725 
        1.77505        0.136023        0.135783 
        1.79081        0.132447        0.132921 
         1.8065        0.130155        0.130154 
        1.82218         0.12745        0.127469 
        1.83797        0.124961        0.124841 
        1.85367        0.122232        0.122302 
        1.86928        0.119351        0.119849 
        1.88497        0.117688         0.11745 
        1.90073        0.114103        0.115107 
        1.91647        0.111359        0.112831 
        1.93218        0.109765        0.110622 
        1.94787        0.107728        0.108474 
        1.96363        0.105865        0.106376 
        1.97935        0.103587        0.104337 
        1.99499        0.101541        0.102364 
        2.01064        0.100145        0.100438 
         2.0264       0.0980965       0.0985505 
        2.04216       0.0960968       0.0967122 
        2.05781       0.0939005       0.0949324 
        2.07353       0.0921943       0.0931912 
        2.08928       0.0902883       0.0914899 
        2.10499       0.0888616       0.0898357 
        2.12065        0.087241       0.0882274 
        2.13633       0.0857376       0.0866572 
        2.15211        0.084362       0.0851151 
        2.16785       0.0824135       0.0836148 
        2.18349       0.0812396       0.0821602 
        2.19916       0.0798867       0.0807372 
        2.21489       0.0779836       0.0793432 
        2.23063       0.0764701       0.0779812 
         2.2463       0.0752199       0.0766573 
        2.26194       0.0742032       0.0753675 
        2.27765       0.0726336       0.0741008 
        2.29341       0.0712924         0.07286 
        2.30914       0.0703043       0.0716501 
        2.32486       0.0692077       0.0704684 
        2.34061       0.0681214       0.0693115 
        2.35635       0.0668756       0.0681815 
        2.37203       0.0658552       0.0670807 
        2.38768       0.0645816       0.0660065 
        2.40339       0.0635569        0.064952 
        2.41914       0.0622129        0.063918 
        2.43483       0.0615808       0.0629102 
         2.4505       0.0605886       0.0619259 
        2.46622       0.0597983       0.0609593 
        2.48195       0.0583649       0.0600132 
        2.49759       0.0576335       0.0590923 
        2.51328       0.0567521       0.0581884 
        2.52906       0.0555897       0.0572976 
        2.54479       0.0550626       0.0564288 
        2.56049       0.0540283       0.0555797 
        2.57618       0.0534063       0.0547489 
        2.59189       0.0523892       0.0539338 
        2.60758       0.0516574       0.0531366 
        2.62325       0.0508021       0.0523564 
        2.63898        0.050051       0.0515893 
        2.65468       0.0493303       0.0508391 
        2.67044       0.0485452       0.0501006 
        2.68618       0.0482122       0.0493785 
        2.70184        0.046976       0.0486736 
        2.71755       0.0463404       0.0479806 
        2.73329        0.045639       0.0473001 
        2.74897       0.0449595        0.046635 
        2.76462       0.0445359       0.0459842 
        2.78034       0.0436316       0.0453431 
        2.79607       0.0433416       0.0447136 
        2.81179       0.0424881       0.0440967 
        2.82749       0.0419898       0.0434922 
        2.84321       0.0413638       0.0428983 
        2.85893       0.0408465       0.0423158 
        2.87462       0.0401811        0.041745 
        2.89033       0.0396489       0.0411842 
        2.90605       0.0390088       0.0406333 
        2.92176       0.0385359       0.0400927 
        2.93747       0.0381564       0.0395623 
        2.95318        0.037543       0.0390413 
        2.96891       0.0371113       0.0385295 
        2.98456       0.0364216       0.0380291 
        3.00023       0.0360938       0.0375369 
        3.01596       0.0355148       0.0370518 
        3.03164       0.0350951       0.0365768 
        3.04738       0.0345948       0.0361086 
         3.0631        0.034212       0.0356488 
        3.07883       0.0337835        0.035197 
        3.09456       0.0333482       0.0347532 
        3.11026       0.0328044       0.0343176 
        3.12596       0.0324708       0.0338896 
        3.14163       0.0319338       0.0334698 
        3.15734       0.0316695       0.0330562 
        3.17308       0.0313161       0.0326486 
        3.18879       0.0308697        0.032249 
        3.20447       0.0304424       0.0318566 
         3.2202       0.0300995       0.0314695 
         3.2359       0.0298024       0.0310896 
        3.25157       0.0294468       0.0307169 
        3.26729       0.0289237       0.0303491 
        3.28304       0.0286657       0.0299866 
        3.29877       0.0283346       0.0296306 
        3.31446       0.0281299        0.029281 
        3.33014        0.027676       0.0289375 
        3.34585       0.0274117       0.0285989 
        3.36158       0.0270557       0.0282652 
        3.37727        0.026717       0.0279379 
        3.39294       0.0264299       0.0276161 
        3.40867       0.0262387       0.0272982 
        3.42439       0.0259025       0.0269855 
        3.44008       0.0255118       0.0266782 
        3.45578       0.0253108       0.0263756 
        3.47153       0.0250779       0.0260769 
        3.48724       0.0247685       0.0257835 
        3.50292       0.0245412       0.0254952 
        3.51859       0.0242383       0.0252114 
        3.53431       0.0240538       0.0249311 
        3.55007       0.0238327       0.0246544 
        3.56577       0.0235767       0.0243829 
        3.58146       0.0233341       0.0241157 
        3.59719       0.0231687       0.0238519 
        3.61292       0.0228933       0.0235921 
        3.62859       0.0225997       0.0233371 
        3.64429       0.0224408       0.0230854 
        3.66003       0.0221649       0.0228367 
        3.67578       0.0219964       0.0225917 
        3.69146       0.0218855       0.0223512 
        3.70712       0.0215595       0.0221147 
        3.72284       0.0214372       0.0218807 
        3.73853       0.0212831       0.0216505 
        3.75422       0.0209972       0.0214235 
        3.76993       0.0208594       0.0211996 
        3.78564       0.0207199        0.020979 
        3.80137       0.0205294       0.0207611 
        3.81707       0.0203536       0.0205468 
        3.83279       0.0201782       0.0203354 
        3.84853       0.0200872       0.0201266 
        3.86424       0.0198601       0.0199211 
        3.87992       0.0196385       0.0197188 
        3.89561       0.0195803       0.0195193 
        3.91134       0.0194091       0.0193222 
        3.92704       0.0192396        0.019128 
        3.94273       0.0190844       0.0189367 
        3.95845       0.0189658       0.0187476 
        3.97418       0.0187441       0.0185611 
        3.98988       0.0185872       0.0183773 
        4.00554          0.0185       0.0181966 
        4.02125       0.0182927       0.0180177 
        4.03698       0.0180055        0.017841 
        4.05268        0.017727       0.0176671 
        4.06839       0.0174799       0.0174953 
         4.0841       0.0172395       0.0173259 
        4.09983       0.0170328       0.0171585 
        4.11555       0.0168143       0.0169934 
        4.13124        0.016593       0.0168308 
        4.14693       0.0163551       0.0166703 
        4.16266       0.0161356       0.0165115 
        4.17839       0.0159545       0.0163549 
        4.19408       0.0157381       0.0162006 
        4.20977       0.0155444       0.0160483 
        4.22551       0.0154233       0.0158976 
        4.24123       0.0152542       0.0157489 
        4.25691       0.0150494       0.0156026 
        4.27259       0.0149225       0.0154581 
        4.28831       0.0147471       0.0153151 
        4.30404       0.0146937       0.0151738 
        4.31974       0.0144824       0.0150345 
        4.33543       0.0143213       0.0148972 
        4.35116        0.014248       0.0147611 
        4.36688       0.0141174       0.0146269 
        4.38255       0.0140694       0.0144948 
        4.39825       0.0139589        0.014364 
        4.41398       0.0138956       0.0142346 
         4.4297       0.0137604        0.014107 
        4.44541       0.0137017       0.0139809 
        4.46111       0.0136651       0.0138565 
        4.47683       0.0135369       0.0137334 
        4.49251       0.0135073       0.0136122 
        4.50819       0.0134735       0.0134924 
         4.5239        0.013409       0.0133739 
        4.53962       0.0133727       0.0132566 
        4.55535       0.0133102       0.0131408 
        4.57106       0.0133098       0.0130264 
        4.58678       0.0133191       0.0129134 
         4.6025       0.0132879       0.0128017 
        4.61821        0.013297       0.0126914 
        4.63391       0.0133018       0.0125825 
         4.6496       0.0132632       0.0124749 
        4.66532       0.0132973       0.0123684 
        4.68103       0.0133297       0.0122632 
        4.69673       0.0133119       0.0121593 
        4.71241       0.0133392       0.0120568 
        4.72811        0.013379       0.0119552 
        4.74384       0.0134309       0.0118547 
        4.75955       0.0134613       0.0117555 
        4.77525        0.013599       0.0116574 
        4.79096       0.0136304       0.0115604 
        4.80669       0.0137029       0.0114645 
         4.8224       0.0137218       0.0113697 
        4.83809       0.0138216       0.0112761 
        4.85379       0.0139023       0.0111835 
         4.8695       0.0140273       0.0110918 
        4.88521        0.014076       0.0110013 
        4.90093       0.0141617       0.0109117 
        4.91663       0.0143116       0.0108232 
        4.93234       0.0144125       0.0107356 
        4.94807       0.0144927       0.0106489 
        4.96377       0.0146237       0.0105633 
        4.97943       0.0147713       0.0104788 
        4.99514       0.0149264       0.0103951 
        5.01086       0.0151035       0.0103122 
        5.02654       0.0152245       0.0102304 
        5.04227       0.0155292       0.0101493 
          5.058       0.0155715        0.010069 
        5.07371       0.0157175      0.00998969 
        5.08942       0.0160017      0.00991125 
        5.10513       0.0161596      0.00983365 
        5.12084        0.016308      0.00975685 
        5.13656       0.0165606      0.00968087 
        5.15225       0.0167589      0.00960584 
        5.16796       0.0170417      0.00953148 
        5.18369       0.0172166      0.00945784 
         5.1994       0.0174268      0.00938511 
        5.21509       0.0177272      0.00931321 
        5.23079       0.0179045      0.00924197 
        5.24649       0.0182656      0.00917154 
        5.26217       0.0184731      0.00910189 
        5.27788       0.0186924      0.00903287 
        5.29359       0.0189962      0.00896455 
        5.30933       0.0192815      0.00889683 
        5.32504        0.019737      0.00882993 
        5.34073       0.0199773      0.00876379 
        5.35646       0.0203447      0.00869819 
        5.37218       0.0205996      0.00863326 
        5.38789       0.0209823      0.00856909 
        5.40357         0.02148      0.00850564 
        5.41929       0.0217813       0.0084427 
        5.43502       0.0222445      0.00838038 
         5.4507       0.0224307      0.00831885 
        5.46639       0.0229259      0.00825792 
        5.48212       0.0233714      0.00819746 
        5.49786       0.0238177      0.00813753 
        5.51353       0.0243854       0.0080785 
        5.52921       0.0246506      0.00801999 
        5.54495        0.025181       0.0079619 
        5.56066       0.0257372      0.00790444 
        5.57637       0.0262559      0.00784755 
        5.59207       0.0266488      0.00779128 
        5.60778       0.0273283      0.00773553 
        5.62346       0.0277494      0.00768041 
        5.63916        0.028292      0.00762577 
        5.65487       0.0290256      0.00757163 
         5.6706       0.0294921      0.00751796 
        5.68633        0.029977      0.00746479 
        5.70203       0.0306067      0.00741224 
        5.71773        0.031484      0.00736021 
        5.73344       0.0320937      0.00730864 
        5.74916       0.0327126      0.00725753 
        5.76486       0.0335905      0.00720697 
        5.78054       0.0340501      0.00715697 
        5.79626       0.0348455       0.0071073 
          5.812        0.035648      0.00705806 
         5.8277       0.0362847      0.00700942 
        5.84339       0.0372733      0.00696125 
        5.85911       0.0380256      0.00691343 
        5.87484       0.0389649      0.00686607 
        5.89053       0.0401198      0.00681925 
        5.90623       0.0408298      0.00677285 
        5.92195       0.0416569      0.00672679 
        5.93767       0.0425714      0.00668119 
        5.95336       0.0436784      0.00663608 
        5.96905       0.0449057      0.00659141 
        5.98476       0.0455743      0.00654709 
        6.00048       0.0467653      0.00650316 
        6.01617       0.0478827      0.00645969 
        6.03185       0.0489793      0.00641667 
        6.04756       0.0505029      0.00637394 
        6.06331       0.0515662      0.00633151 
        6.07903        0.052812      0.00628955 
        6.09473       0.0539733      0.00624801 
        6.11044       0.0552067      0.00620681 
        6.12616       0.0569856      0.00616599 
        6.14186       0.0582484      0.00612558 
        6.15755       0.0594076      0.00608552 
        6.17326       0.0609495       0.0060458 
        6.18898        0.063044      0.00600641 
        6.20467       0.0645424      0.00596745 
        6.22036       0.0657087      0.00592883 
         6.2361       0.0675372      0.00589044 
         6.2518          0.0694      0.00585247 
        6.26748       0.0708432       0.0058149 
        6.28319       0.0728923      0.00577757 
        6.29893       0.0751952      0.00574053 
        6.31463        0.077139      0.00570388 
        6.33033       0.0787509      0.00566756 
        6.34604       0.0807904      0.00563153 
        6.36177       0.0830711      0.00559577 
        6.37747       0.0851632       0.0055604 
