# k  (h/Mpc)    Pcb(k)  (Mpc/h)^3    Pcb_linear(k) (Mpc/h)^3   ShotnoiseSubtracted = true
      0.0200456         3723.03         3772.08 
      0.0350414         2745.92         2694.65 
      0.0492313         1952.78         1952.41 
      0.0637834         1594.12         1626.06 
      0.0800726         1247.03         1275.44 
       0.096163          940.18          917.26 
       0.111083         763.707         738.146 
       0.126058         651.484         656.731 
       0.142273         546.534         548.487 
       0.158546         441.061         430.647 
        0.17375         382.356         367.012 
       0.188953         346.764         333.401 
       0.204907         293.064         291.577 
       0.220756         257.887         245.319 
        0.23588         227.341         215.213 
         0.2514         205.598         196.378 
       0.267535         191.509          176.32 
       0.283568         167.055         154.706 
       0.299022         154.575          138.51 
       0.314451         147.415         127.061 
       0.330372         130.021         116.105 
       0.346141         119.103         104.973 
       0.361624         110.424         95.5811 
       0.377134         100.948         88.1823 
       0.392932         97.8605         81.4842 
       0.408854         90.3846         74.9199 
       0.424564         86.0774         69.0718 
       0.440253         78.4011         64.1336 
       0.455999         71.9746         59.7347 
       0.471626         68.6714         55.6273 
        0.48727         66.6213          51.847 
       0.502856         61.6779         48.5006 
       0.518488         58.6345         45.4856 
       0.534347         55.2521         42.6558 
       0.550082         53.2309         40.0544 
       0.565732         51.3656         37.6984 
       0.581496         47.8436         35.5349 
       0.597222         45.6703          33.541 
       0.612804         43.8161         31.7062 
       0.628434         42.8962         30.0034 
       0.644267         40.5331         28.4139 
       0.660051         38.7204         26.9458 
       0.675724         37.1286         25.5896 
       0.691403         36.4566         24.3256 
       0.707174         35.0605         23.1399 
       0.722871         33.8914         22.0379 
        0.73838         32.2374         21.0194 
       0.754018         30.5564         20.0577 
       0.769845         30.0024         19.1457 
        0.78569         28.9362         18.2898 
       0.801365         28.0244         17.4948 
       0.817031         26.8858         16.7478 
       0.832809         26.3163         16.0399 
       0.848511         25.4316         15.3763 
       0.864097         24.7099         14.7551 
       0.879701         24.2723         14.1677 
       0.895507         23.3358         13.6055 
       0.911279         22.4866         13.0752 
        0.92691          22.078         12.5776 
       0.942635         21.5652         12.1034 
       0.958396         20.9485         11.6526 
       0.974128         20.3654         11.2258 
       0.989692          19.508         10.8246 
        1.00528         19.3463         10.4425 
        1.02113         18.7303         10.0729 
        1.03692         18.3312         9.72268 
        1.05264         17.9465         9.39078 
        1.06832         17.5706         9.07494 
        1.08405         17.0512         8.77286 
        1.09979         16.7143          8.4844 
        1.11537         16.2219         8.21182 
        1.13105          15.975         7.94963 
        1.14679         15.5569         7.69793 
        1.16256         15.2715         7.45668 
        1.17828           14.97          7.2266 
        1.19395         14.7143         7.00705 
         1.2097         14.3076         6.79553 
        1.22537         14.0495          6.5938 
          1.241          13.722          6.4009 
        1.25666         13.5673         6.21526 
        1.27241         13.2839         6.03614 
        1.28819         12.7641          5.8638 
        1.30392         12.8451         5.69872 
        1.31957         12.4574         5.54075 
        1.33529         12.2679          5.3882 
        1.35108         12.0701         5.24082 
        1.36674         11.7855         5.10001 
         1.3824         11.5892         4.96453 
        1.39811          11.372         4.83353 
        1.41389         11.1898         4.70677 
        1.42964         11.0082         4.58479 
        1.44531          10.824         4.46774 
        1.46101         10.6706         4.35453 
        1.47667         10.4691          4.2456 
        1.49229         10.2048         4.14069 
        1.50793         10.1096         4.03922 
        1.52367         9.95889         3.94051 
        1.53953         9.77471         3.84444 
        1.55526         9.59604         3.75235 
        1.57092         9.52134         3.66366 
        1.58662         9.33325         3.57764 
        1.60235         9.20861         3.49422 
        1.61809         9.07569         3.41342 
        1.63369         8.88971          3.3359 
        1.64941         8.76969         3.26024 
        1.66519         8.64332         3.18666 
        1.68085         8.47501         3.11588 
        1.69652         8.43576         3.04723 
        1.71228         8.29909         2.98026 
        1.72806         8.14297         2.91526 
        1.74368         8.05781         2.85286 
        1.75933         7.94773         2.79216 
        1.77505         7.80401         2.73294 
        1.79081         7.71462         2.67534 
         1.8065         7.66123         2.61966 
        1.82218          7.5499          2.5656 
        1.83797         7.41583         2.51271 
        1.85367         7.32672          2.4616 
        1.86928         7.22564         2.41223 
        1.88497         7.14674         2.36394 
        1.90073         7.03193          2.3168 
        1.91647         6.86161         2.27098 
        1.93218          6.8422         2.22651 
        1.94787         6.72452         2.18329 
        1.96363         6.65638         2.14106 
        1.97935          6.6129         2.10002 
        1.99499         6.50884          2.0603 
        2.01064         6.41491         2.02155 
         2.0264         6.33731         1.98355 
        2.04216         6.30674         1.94655 
        2.05781         6.20732         1.91073 
        2.07353          6.1198         1.87569 
        2.08928         6.01645         1.84144 
        2.10499         5.95919         1.80815 
        2.12065         5.93983         1.77578 
        2.13633         5.83813         1.74417 
        2.15211         5.77498         1.71313 
        2.16785         5.67256         1.68294 
        2.18349         5.65996         1.65366 
        2.19916         5.57443         1.62502 
        2.21489         5.51813         1.59696 
        2.23063         5.45191         1.56955 
         2.2463          5.3717          1.5429 
        2.26194         5.30598         1.51694 
        2.27765         5.24696         1.49145 
        2.29341          5.1647         1.46647 
        2.30914         5.16201         1.44212 
        2.32486         5.07787         1.41834 
        2.34061         5.03818         1.39505 
        2.35635         4.97176         1.37231 
        2.37203         4.92753         1.35015 
        2.38768          4.8758         1.32853 
        2.40339         4.81357         1.30731 
        2.41914         4.77751          1.2865 
        2.43483         4.72681         1.26621 
         2.4505         4.65631          1.2464 
        2.46622         4.60882         1.22694 
        2.48195          4.5975          1.2079 
        2.49759         4.50192         1.18937 
        2.51328          4.4759         1.17117 
        2.52906         4.41985         1.15324 
        2.54479         4.37856         1.13576 
        2.56049         4.33775         1.11867 
        2.57618         4.30569         1.10195 
        2.59189         4.29214         1.08554 
        2.60758         4.22379         1.06949 
        2.62325         4.15141         1.05379 
        2.63898         4.15776         1.03835 
        2.65468         4.08911         1.02325 
        2.67044         4.06094         1.00839 
        2.68618         4.01484        0.993855 
        2.70184         3.99626        0.979666 
        2.71755         3.93487        0.965719 
        2.73329         3.89523        0.952022 
        2.74897         3.86986        0.938635 
        2.76462         3.82828        0.925536 
        2.78034         3.80112        0.912633 
        2.79607         3.75826        0.899962 
        2.81179         3.72101        0.887547 
        2.82749         3.67336        0.875379 
        2.84321         3.65494        0.863427 
        2.85893         3.61942        0.851701 
        2.87462         3.59418        0.840213 
        2.89033         3.56108        0.828926 
        2.90605         3.52001        0.817838 
        2.92176         3.48122        0.806957 
        2.93747         3.45672        0.796281 
        2.95318         3.42314        0.785795 
        2.96891         3.40209        0.775493 
        2.98456         3.36473        0.765422 
        3.00023         3.34364        0.755515 
        3.01596         3.30296        0.745753 
        3.03164          3.2745         0.73619 
        3.04738         3.25524        0.726768 
         3.0631         3.23257        0.717514 
        3.07883         3.19615        0.708421 
        3.09456         3.15607        0.699486 
        3.11026         3.14169         0.69072 
        3.12596         3.11204        0.682105 
        3.14163         3.08322        0.673656 
        3.15734         3.05938        0.665331 
        3.17308         3.03911        0.657127 
        3.18879         3.01359        0.649084 
        3.20447         2.99264        0.641186 
         3.2202         2.95961        0.633396 
         3.2359         2.93465        0.625749 
        3.25157         2.91653        0.618247 
        3.26729         2.89097        0.610845 
        3.28304         2.86376        0.603549 
        3.29877         2.84381        0.596382 
        3.31446         2.82643        0.589348 
        3.33014          2.7959        0.582433 
        3.34585         2.78398        0.575618 
        3.36158         2.75043        0.568902 
        3.37727         2.73556        0.562314 
        3.39294         2.71546        0.555837 
        3.40867         2.69657        0.549438 
        3.42439         2.65875        0.543144 
        3.44008         2.65194         0.53696 
        3.45578         2.62916        0.530869 
        3.47153         2.60473        0.524858 
        3.48724           2.593        0.518951 
        3.50292         2.57207        0.513148 
        3.51859         2.54667        0.507437 
        3.53431         2.53062        0.501795 
        3.55007         2.51558        0.496226 
        3.56577         2.48888        0.490762 
        3.58146         2.47651        0.485383 
        3.59719         2.46009        0.480073 
        3.61292         2.43805        0.474844 
        3.62859         2.42496        0.469712 
        3.64429         2.39881        0.464646 
        3.66003         2.38993         0.45964 
        3.67578         2.37054        0.454709 
        3.69146         2.34685        0.449869 
        3.70712         2.33615        0.445108 
        3.72284         2.31738        0.440399 
        3.73853         2.30254        0.435765 
        3.75422         2.27766        0.431197 
        3.76993         2.26585         0.42669 
        3.78564         2.25151         0.42225 
        3.80137         2.23491        0.417865 
        3.81707         2.22101        0.413552 
        3.83279         2.19995        0.409296 
        3.84853          2.1833        0.405094 
        3.86424         2.16949        0.400958 
        3.87992         2.15594        0.396886 
        3.89561         2.13714        0.392871 
        3.91134          2.1212        0.388903 
        3.92704         2.10202        0.384994 
        3.94273         2.08887        0.381143 
        3.95845         2.07949        0.377338 
        3.97418         2.06666        0.373583 
        3.98988         2.04921        0.369885 
        4.00554         2.03496        0.366247 
        4.02125         2.01596        0.362648 
        4.03698         2.00246        0.359091 
        4.05268         1.98975         0.35559 
        4.06839         1.97461        0.352133 
         4.0841         1.95813        0.348723 
        4.09983         1.94405        0.345354 
        4.11555         1.93099         0.34203 
        4.13124         1.92012        0.338759 
        4.14693         1.90523        0.335528 
        4.16266         1.89558        0.332332 
        4.17839          1.8772        0.329179 
        4.19408         1.86307        0.326075 
        4.20977         1.85031        0.323009 
        4.22551         1.83736        0.319975 
        4.24123         1.82555        0.316983 
        4.25691         1.81729        0.314038 
        4.27259         1.80002        0.311129 
        4.28831         1.78316        0.308251 
        4.30404         1.77987        0.305407 
        4.31974         1.76761        0.302605 
        4.33543         1.74744        0.299839 
        4.35116         1.73962        0.297101 
        4.36688          1.7286        0.294399 
        4.38255         1.71757         0.29174 
        4.39825         1.70426        0.289109 
        4.41398         1.69829        0.286504 
         4.4297         1.68227        0.283935 
        4.44541         1.67076        0.281397 
        4.46111         1.66305        0.278893 
        4.47683         1.65291        0.276417 
        4.49251          1.6433        0.273976 
        4.50819         1.63075        0.271565 
         4.5239          1.6241         0.26918 
        4.53962         1.61146         0.26682 
        4.55535         1.60054        0.264488 
        4.57106         1.59133        0.262186 
        4.58678         1.57823        0.259912 
         4.6025         1.57173        0.257664 
        4.61821          1.5658        0.255443 
        4.63391         1.55442        0.253251 
         4.6496         1.54619        0.251086 
        4.66532          1.5366        0.248942 
        4.68103         1.52507        0.246825 
        4.69673         1.51893        0.244734 
        4.71241         1.51162         0.24267 
        4.72811           1.503        0.240625 
        4.74384         1.49507        0.238602 
        4.75955           1.484        0.236605 
        4.77525         1.47627        0.234632 
        4.79096         1.46731         0.23268 
        4.80669         1.46202        0.230748 
         4.8224         1.45259        0.228841 
        4.83809         1.44255        0.226957 
        4.85379         1.43842        0.225093 
         4.8695         1.43021        0.223249 
        4.88521         1.42134        0.221426 
        4.90093         1.41834        0.219623 
        4.91663         1.40763        0.217842 
        4.93234         1.40182        0.216078 
        4.94807         1.39597        0.214333 
        4.96377         1.38476        0.212611 
        4.97943         1.38123        0.210911 
        4.99514          1.3696        0.209225 
        5.01086         1.36398        0.207556 
        5.02654         1.35709         0.20591 
        5.04227         1.35163        0.204277 
          5.058         1.34525        0.202661 
        5.07371         1.34009        0.201065 
        5.08942         1.33477        0.199487 
        5.10513         1.32662        0.197925 
        5.12084         1.31625        0.196379 
        5.13656         1.31322         0.19485 
        5.15225         1.30434        0.193339 
        5.16796         1.29993        0.191843 
        5.18369         1.29464         0.19036 
         5.1994         1.28854        0.188897 
        5.21509         1.28432        0.187449 
        5.23079         1.27678        0.186016 
        5.24649         1.27492        0.184598 
        5.26217         1.26546        0.183196 
        5.27788         1.25892        0.181807 
        5.29359         1.25333        0.180432 
        5.30933          1.2502        0.179069 
        5.32504         1.24507        0.177722 
        5.34073         1.23719        0.176391 
        5.35646         1.23136        0.175071 
        5.37218         1.23005        0.173764 
        5.38789         1.22044        0.172472 
        5.40357         1.21708        0.171195 
        5.41929         1.21163        0.169929 
        5.43502         1.20814        0.168674 
         5.4507         1.19928        0.167436 
        5.46639         1.19711        0.166209 
        5.48212         1.19308        0.164993 
        5.49786         1.18598        0.163786 
        5.51353         1.18242        0.162598 
        5.52921         1.17653        0.161421 
        5.54495         1.17488        0.160251 
        5.56066         1.16582        0.159095 
        5.57637         1.15996         0.15795 
        5.59207         1.15598        0.156817 
        5.60778         1.15563        0.155695 
        5.62346         1.14661        0.154586 
        5.63916         1.14538        0.153486 
        5.65487         1.14032        0.152396 
         5.6706         1.13512        0.151316 
        5.68633         1.13056        0.150246 
        5.70203         1.12778        0.149188 
        5.71773         1.12316        0.148141 
        5.73344         1.11992        0.147103 
        5.74916         1.11495        0.146074 
        5.76486         1.10977        0.145057 
        5.78054         1.10543         0.14405 
        5.79626         1.10358        0.143051 
          5.812         1.09628        0.142059 
         5.8277         1.09376        0.141081 
        5.84339         1.09042        0.140111 
        5.85911         1.08684        0.139149 
        5.87484         1.08146        0.138195 
        5.89053         1.07693        0.137253 
        5.90623         1.07653        0.136319 
        5.92195         1.07037        0.135392 
        5.93767         1.06693        0.134474 
        5.95336         1.06585        0.133566 
        5.96905         1.05848        0.132667 
        5.98476         1.05536        0.131775 
        6.00048         1.05226        0.130891 
        6.01617         1.04776        0.130016 
        6.03185         1.04535         0.12915 
        6.04756         1.04297         0.12829 
        6.06331         1.03964        0.127436 
        6.07903         1.03484        0.126592 
        6.09473         1.03213        0.125755 
        6.11044         1.02867        0.124926 
        6.12616         1.02378        0.124105 
        6.14186         1.02147        0.123291 
        6.15755         1.01833        0.122485 
        6.17326         1.01445        0.121685 
        6.18898         1.01184        0.120893 
        6.20467          1.0103        0.120108 
        6.22036         1.00549        0.119331 
         6.2361         1.00294        0.118559 
         6.2518         1.00003        0.117794 
        6.26748        0.996171        0.117038 
        6.28319        0.992121        0.116287 
        6.29893        0.990629        0.115541 
        6.31463        0.987057        0.114804 
        6.33033        0.982917        0.114072 
        6.34604        0.980994        0.113347 
        6.36177        0.977737        0.112628 
        6.37747        0.974967        0.111916 
