# k  (h/Mpc)    Pcb(k)  (Mpc/h)^3    Pcb_linear(k) (Mpc/h)^3   ShotnoiseSubtracted = true
      0.0200456         21469.1         18665.2 
      0.0350414         14695.8         13333.8 
      0.0492313         10081.5         9661.05 
      0.0637834         7850.13         8046.18 
      0.0800726         5908.57         6311.23 
       0.096163         4408.64         4538.84 
       0.111083         3901.93         3652.54 
       0.126058         3377.42         3249.68 
       0.142273          2829.1         2714.06 
       0.158546         2408.87         2130.95 
        0.17375         2023.82         1816.07 
       0.188953         1840.62         1649.75 
       0.204907         1583.09          1442.8 
       0.220756         1497.96          1213.9 
        0.23588         1329.18         1064.93 
         0.2514         1204.64         971.729 
       0.267535         1135.14         872.479 
       0.283568         1050.85         765.526 
       0.299022         951.087         685.381 
       0.314451         919.749         628.729 
       0.330372         843.532         574.518 
       0.346141         809.308         519.432 
       0.361624         760.226          472.96 
       0.377134          722.32         436.349 
       0.392932         667.441         403.205 
       0.408854         655.528         370.723 
       0.424564          603.32         341.785 
       0.440253         607.155          317.35 
       0.455999         569.908         295.583 
       0.471626         564.436         275.258 
        0.48727         528.349         256.553 
       0.502856         512.206         239.994 
       0.518488         495.232         225.075 
       0.534347         472.465         211.072 
       0.550082         466.899         198.199 
       0.565732         447.743         186.542 
       0.581496         435.443         175.836 
       0.597222         419.001          165.97 
       0.612804         411.733          156.89 
       0.628434          404.51         148.465 
       0.644267         384.993         140.599 
       0.660051         378.148         133.335 
       0.675724         367.837         126.624 
       0.691403          360.46          120.37 
       0.707174         349.872         114.502 
       0.722871         343.958         109.049 
        0.73838         332.803          104.01 
       0.754018         326.668         99.2507 
       0.769845         318.505         94.7381 
        0.78569         310.627         90.5026 
       0.801365         301.268         86.5686 
       0.817031         297.027         82.8724 
       0.832809         291.659         79.3697 
       0.848511         284.757         76.0862 
       0.864097         279.464          73.012 
       0.879701          275.19         70.1055 
       0.895507         268.306         67.3238 
       0.911279          258.74         64.6995 
        0.92691         257.763         62.2375 
       0.942635         251.349         59.8905 
       0.958396         246.936         57.6602 
       0.974128         242.661          55.548 
       0.989692         237.859         53.5628 
        1.00528         233.254         51.6721 
        1.02113         229.857         49.8434 
        1.03692         223.993         48.1104 
        1.05264         221.311          46.468 
        1.06832         217.245         44.9052 
        1.08405         213.242         43.4104 
        1.09979         209.243          41.983 
        1.11537         205.936         40.6342 
        1.13105         203.163         39.3369 
        1.14679          199.92         38.0914 
        1.16256         196.211         36.8976 
        1.17828         194.152         35.7591 
        1.19395         189.979         34.6727 
         1.2097         187.782         33.6261 
        1.22537         184.445         32.6278 
          1.241         179.914         31.6733 
        1.25666         178.767         30.7547 
        1.27241         175.812         29.8684 
        1.28819           171.6         29.0156 
        1.30392         168.842         28.1988 
        1.31957         166.593         27.4171 
        1.33529         163.799         26.6622 
        1.35108         160.951         25.9329 
        1.36674         158.851         25.2362 
         1.3824          157.09         24.5658 
        1.39811         153.603         23.9176 
        1.41389         151.138         23.2903 
        1.42964         148.732         22.6867 
        1.44531         145.753         22.1075 
        1.46101         144.876         21.5474 
        1.47667         141.713         21.0083 
        1.49229         139.301         20.4892 
        1.50793         139.815         19.9871 
        1.52367         136.107         19.4987 
        1.53953         133.321         19.0233 
        1.55526          131.26         18.5676 
        1.57092         129.963         18.1288 
        1.58662         127.931         17.7031 
        1.60235         125.975         17.2903 
        1.61809         123.969         16.8905 
        1.63369         122.506         16.5069 
        1.64941         120.555         16.1325 
        1.66519         117.824         15.7684 
        1.68085         116.763         15.4182 
        1.69652         115.493         15.0785 
        1.71228         113.939         14.7471 
        1.72806         112.443         14.4255 
        1.74368         110.378         14.1167 
        1.75933         108.187         13.8163 
        1.77505         106.635         13.5233 
        1.79081         105.554         13.2383 
         1.8065         104.015         12.9627 
        1.82218         102.269         12.6953 
        1.83797         100.967         12.4335 
        1.85367         99.8763         12.1807 
        1.86928         98.2431         11.9363 
        1.88497         96.8356         11.6974 
        1.90073         95.6365         11.4641 
        1.91647         93.6781         11.2374 
        1.93218         92.9547         11.0173 
        1.94787          91.608         10.8035 
        1.96363         90.5628         10.5945 
        1.97935         89.2155         10.3915 
        1.99499         88.1976         10.1949 
        2.01064         86.9075         10.0032 
         2.0264          85.703         9.81513 
        2.04216         84.6211         9.63205 
        2.05781         83.0377          9.4548 
        2.07353         81.8135         9.28138 
        2.08928         81.2186         9.11194 
        2.10499         80.4945         8.94719 
        2.12065         78.8369         8.78701 
        2.13633          77.948         8.63062 
        2.15211         76.7742         8.47704 
        2.16785          75.978         8.32762 
        2.18349         74.5382         8.18275 
        2.19916         73.9038         8.04102 
        2.21489         73.0131         7.90218 
        2.23063         71.6418         7.76654 
         2.2463          71.045         7.63469 
        2.26194         70.0802         7.50623 
        2.27765         68.9256         7.38007 
        2.29341         68.3123         7.25649 
        2.30914         67.3864         7.13599 
        2.32486          66.336          7.0183 
        2.34061         65.5338         6.90308 
        2.35635         65.0712         6.79054 
        2.37203          64.109         6.68091 
        2.38768         63.3898         6.57392 
        2.40339         62.3784         6.46889 
        2.41914         61.8701         6.36592 
        2.43483           60.74         6.26555 
         2.4505         60.2607         6.16751 
        2.46622          59.454         6.07124 
        2.48195          58.837         5.97702 
        2.49759         58.0264          5.8853 
        2.51328         57.2862         5.79527 
        2.52906         56.6961         5.70655 
        2.54479         55.9528         5.62003 
        2.56049         55.3188         5.53546 
        2.57618         54.5659         5.45272 
        2.59189          53.918         5.37154 
        2.60758           53.09         5.29214 
        2.62325         52.4953         5.21444 
        2.63898         51.8319         5.13803 
        2.65468         51.3435         5.06332 
        2.67044         50.7334         4.98977 
        2.68618         50.0864         4.91785 
        2.70184         49.3996         4.84764 
        2.71755         48.9101         4.77863 
        2.73329         48.3634         4.71085 
        2.74897         47.6864         4.64461 
        2.76462         47.0882         4.57979 
        2.78034          46.656         4.51595 
        2.79607         46.0293         4.45325 
        2.81179         45.6072         4.39181 
        2.82749         44.9859         4.33161 
        2.84321         44.5482         4.27246 
        2.85893         43.8304         4.21444 
        2.87462         43.5808         4.15759 
        2.89033         42.9034         4.10174 
        2.90605         42.4374         4.04687 
        2.92176         41.9445         3.99304 
        2.93747         41.5136          3.9402 
        2.95318         41.0595         3.88832 
        2.96891         40.5417         3.83734 
        2.98456         40.1225         3.78751 
        3.00023         39.7312         3.73849 
        3.01596         39.2639         3.69018 
        3.03164         38.7802         3.64286 
        3.04738         38.3495         3.59624 
         3.0631         38.0296         3.55045 
        3.07883         37.7361         3.50545 
        3.09456         37.0891         3.46124 
        3.11026          36.666         3.41786 
        3.12596         36.3598         3.37523 
        3.14163          35.898         3.33343 
        3.15734         35.5525         3.29223 
        3.17308         35.0762         3.25164 
        3.18879         34.6922         3.21183 
        3.20447         34.3524         3.17276 
         3.2202         33.9955         3.13421 
         3.2359         33.6205         3.09637 
        3.25157         33.3384         3.05925 
        3.26729         32.9818         3.02262 
        3.28304         32.5692         2.98652 
        3.29877         32.2554         2.95106 
        3.31446         31.8028         2.91625 
        3.33014          31.497         2.88203 
        3.34585         31.1921         2.84831 
        3.36158         30.8277         2.81508 
        3.37727         30.4347         2.78248 
        3.39294         30.2478         2.75043 
        3.40867         29.8488         2.71876 
        3.42439         29.5247         2.68762 
        3.44008         29.2182         2.65702 
        3.45578         28.8195         2.62688 
        3.47153          28.583         2.59713 
        3.48724         28.2856          2.5679 
        3.50292         28.0418         2.53919 
        3.51859         27.6891         2.51093 
        3.53431         27.4543         2.48301 
        3.55007         27.1009         2.45545 
        3.56577         26.8828         2.42842 
        3.58146         26.5474          2.4018 
        3.59719         26.3862         2.37553 
        3.61292         26.0735         2.34965 
        3.62859         25.8483         2.32426 
        3.64429         25.5552         2.29919 
        3.66003         25.2486         2.27442 
        3.67578         25.1174         2.25002 
        3.69146         24.7583         2.22607 
        3.70712         24.5534         2.20251 
        3.72284         24.2934         2.17921 
        3.73853         24.0719         2.15628 
        3.75422            23.8         2.13368 
        3.76993         23.4599         2.11138 
        3.78564         23.3711          2.0894 
        3.80137         23.1424         2.06771 
        3.81707         22.8401         2.04636 
        3.83279         22.6897          2.0253 
        3.84853         22.4585         2.00451 
        3.86424         22.2215         1.98405 
        3.87992         22.0136          1.9639 
        3.89561         21.7393         1.94403 
        3.91134         21.5199         1.92439 
        3.92704         21.3886         1.90505 
        3.94273            21.1           1.886 
        3.95845         20.9555         1.86717 
        3.97418         20.7154         1.84859 
        3.98988         20.6112         1.83029 
        4.00554         20.3515         1.81229 
        4.02125         20.1655         1.79448 
        4.03698         19.9275         1.77688 
        4.05268         19.8266         1.75955 
        4.06839         19.5777         1.74245 
         4.0841         19.4423         1.72557 
        4.09983         19.2024          1.7089 
        4.11555         18.9814         1.69245 
        4.13124         18.8557         1.67627 
        4.14693         18.7676         1.66028 
        4.16266         18.5173         1.64447 
        4.17839          18.317         1.62887 
        4.19408         18.2049          1.6135 
        4.20977         17.9968         1.59833 
        4.22551         17.8505         1.58332 
        4.24123         17.7168         1.56852 
        4.25691         17.5671         1.55394 
        4.27259         17.3808         1.53955 
        4.28831         17.1666         1.52531 
        4.30404         17.0404         1.51123 
        4.31974         16.8515         1.49737 
        4.33543         16.6989         1.48368 
        4.35116         16.5265         1.47014 
        4.36688         16.4099         1.45676 
        4.38255         16.2588         1.44361 
        4.39825         16.1448         1.43059 
        4.41398          15.991          1.4177 
         4.4297          15.873         1.40498 
        4.44541         15.7224         1.39243 
        4.46111         15.5688         1.38003 
        4.47683         15.4623         1.36778 
        4.49251          15.301          1.3557 
        4.50819         15.1428         1.34377 
         4.5239         15.0345         1.33197 
        4.53962         14.9221         1.32029 
        4.55535         14.7722         1.30875 
        4.57106         14.5934         1.29737 
        4.58678         14.4738         1.28611 
         4.6025         14.3557         1.27499 
        4.61821          14.283           1.264 
        4.63391         14.0975         1.25315 
         4.6496          14.031         1.24244 
        4.66532         13.9115         1.23183 
        4.68103         13.7711         1.22135 
        4.69673          13.653         1.21101 
        4.71241         13.5252         1.20079 
        4.72811         13.3905         1.19068 
        4.74384         13.2905         1.18067 
        4.75955         13.1684         1.17079 
        4.77525         13.0801         1.16102 
        4.79096         12.9249         1.15136 
        4.80669         12.8458          1.1418 
         4.8224         12.7453         1.13236 
        4.83809          12.601         1.12304 
        4.85379         12.5153         1.11382 
         4.8695         12.4494         1.10469 
        4.88521         12.3249         1.09567 
        4.90093         12.2469         1.08675 
        4.91663         12.1215         1.07794 
        4.93234         12.0284         1.06921 
        4.94807         11.9325         1.06058 
        4.96377         11.8205         1.05205 
        4.97943         11.7291         1.04364 
        4.99514         11.6509          1.0353 
        5.01086         11.5559         1.02704 
        5.02654         11.4344          1.0189 
        5.04227         11.3581         1.01082 
          5.058         11.2604         1.00282 
        5.07371         11.1828        0.994923 
        5.08942         11.0866        0.987111 
        5.10513         10.9954        0.979383 
        5.12084         10.9115        0.971733 
        5.13656         10.8395        0.964167 
        5.15225         10.7493        0.956694 
        5.16796         10.6623        0.949288 
        5.18369         10.5568        0.941953 
         5.1994         10.4806         0.93471 
        5.21509          10.405        0.927549 
        5.23079         10.3358        0.920455 
        5.24649         10.2316         0.91344 
        5.26217         10.1595        0.906503 
        5.27788         10.0889        0.899629 
        5.29359         10.0031        0.892824 
        5.30933         9.92854         0.88608 
        5.32504         9.84011        0.879417 
        5.34073          9.7624         0.87283 
        5.35646         9.68289        0.866297 
        5.37218         9.61235        0.859829 
        5.38789         9.53237        0.853438 
        5.40357         9.48416        0.847119 
        5.41929         9.40258        0.840851 
        5.43502         9.33446        0.834644 
         5.4507         9.25387        0.828516 
        5.46639          9.1781        0.822448 
        5.48212         9.11589        0.816426 
        5.49786         9.05874        0.810458 
        5.51353         8.97985        0.804578 
        5.52921         8.92926        0.798751 
        5.54495         8.85925        0.792965 
        5.56066         8.79184        0.787242 
        5.57637         8.72364        0.781577 
        5.59207         8.64443        0.775972 
        5.60778         8.58777         0.77042 
        5.62346         8.51958         0.76493 
        5.63916         8.44708        0.759489 
        5.65487         8.38354        0.754097 
         5.6706         8.32132        0.748752 
        5.68633         8.26124        0.743456 
        5.70203         8.20765        0.738222 
        5.71773          8.1368         0.73304 
        5.73344         8.07772        0.727904 
        5.74916         8.03137        0.722813 
        5.76486          7.9563        0.717778 
        5.78054         7.91606        0.712798 
        5.79626         7.85751        0.707852 
          5.812         7.79483        0.702947 
         5.8277         7.73935        0.698104 
        5.84339         7.68422        0.693306 
        5.85911         7.63981        0.688543 
        5.87484         7.58214        0.683827 
        5.89053         7.52547        0.679163 
        5.90623         7.46655        0.674542 
        5.92195         7.41453        0.669955 
        5.93767         7.36122        0.665413 
        5.95336         7.30648        0.660921 
        5.96905          7.2561        0.656472 
        5.98476         7.21208        0.652058 
        6.00048         7.16399        0.647682 
        6.01617         7.10134        0.643353 
        6.03185         7.06945        0.639069 
        6.04756          7.0169        0.634813 
        6.06331         6.96823        0.630587 
        6.07903         6.90367        0.626408 
        6.09473         6.86573        0.622271 
        6.11044         6.81324        0.618168 
        6.12616         6.75664        0.614102 
        6.14186         6.73289        0.610077 
        6.15755         6.68234        0.606088 
        6.17326          6.6209        0.602132 
        6.18898         6.58632        0.598209 
        6.20467          6.5388        0.594328 
        6.22036          6.5045        0.590482 
         6.2361         6.45239        0.586659 
         6.2518         6.40796        0.582876 
        6.26748         6.36355        0.579136 
        6.28319         6.33207        0.575417 
        6.29893         6.29215        0.571728 
        6.31463         6.23167        0.568078 
        6.33033         6.20675         0.56446 
        6.34604         6.15749        0.560872 
        6.36177         6.11467        0.557311 
        6.37747         6.07354        0.553788 
