# k  (h/Mpc)    Pcb(k)  (Mpc/h)^3    Pcb_linear(k) (Mpc/h)^3   ShotnoiseSubtracted = true
      0.0200456           16845         21525.9 
      0.0350414         14530.4         15377.4 
      0.0492313         12130.6         11141.7 
      0.0637834         7842.47         9279.37 
      0.0800726         6023.23         7278.51 
       0.096163         4968.62         5234.48 
       0.111083         4273.01         4212.34 
       0.126058         3606.31         3747.73 
       0.142273          2895.7         3130.02 
       0.158546         2632.46         2457.55 
        0.17375         2250.25         2094.41 
       0.188953         2028.74          1902.6 
       0.204907         1853.83         1663.93 
       0.220756         1620.64         1399.95 
        0.23588         1550.58         1228.14 
         0.2514         1365.45         1120.66 
       0.267535         1269.94          1006.2 
       0.283568         1194.04         882.853 
       0.299022         1106.27         790.425 
       0.314451         1058.41          725.09 
       0.330372         974.482         662.571 
       0.346141         908.121         599.041 
       0.361624         871.129         545.448 
       0.377134         834.929         503.225 
       0.392932         784.462         465.002 
       0.408854         754.505         427.541 
       0.424564         713.267         394.168 
       0.440253         695.579         365.988 
       0.455999         674.436         340.885 
       0.471626         645.445         317.445 
        0.48727         611.738         295.873 
       0.502856         589.883         276.776 
       0.518488         585.818          259.57 
       0.534347         560.937         243.422 
       0.550082         542.251         228.576 
       0.565732         517.892         215.132 
       0.581496          505.48         202.785 
       0.597222         491.848         191.407 
       0.612804         483.261         180.936 
       0.628434         471.173         171.219 
       0.644267         455.101         162.148 
       0.660051          443.48          153.77 
       0.675724         433.603         146.031 
       0.691403         417.051         138.818 
       0.707174         413.761         132.051 
       0.722871         403.919         125.762 
        0.73838         393.148          119.95 
       0.754018         383.681         114.462 
       0.769845         372.272         109.258 
        0.78569         366.631         104.373 
       0.801365          359.12         99.8364 
       0.817031         352.693         95.5737 
       0.832809         346.179         91.5341 
       0.848511         341.961         87.7474 
       0.864097         335.994          84.202 
       0.879701         325.845         80.8501 
       0.895507         321.992          77.642 
       0.911279          314.29         74.6155 
        0.92691         311.434         71.7762 
       0.942635         306.562         69.0695 
       0.958396         299.413         66.4974 
       0.974128          291.51         64.0614 
       0.989692         290.074          61.772 
        1.00528         286.229         59.5916 
        1.02113         278.971         57.4826 
        1.03692         272.788         55.4839 
        1.05264         270.329         53.5898 
        1.06832         266.428         51.7875 
        1.08405         261.188         50.0636 
        1.09979         256.878         48.4175 
        1.11537         251.173         46.8619 
        1.13105         247.241         45.3658 
        1.14679         243.601         43.9294 
        1.16256         240.148         42.5527 
        1.17828         235.575         41.2397 
        1.19395         232.728         39.9867 
         1.2097         226.379         38.7797 
        1.22537           226.1         37.6285 
          1.241          220.27         36.5277 
        1.25666         219.497         35.4683 
        1.27241         215.521         34.4461 
        1.28819         211.573         33.4627 
        1.30392         207.956         32.5206 
        1.31957         204.267         31.6191 
        1.33529         201.804         30.7486 
        1.35108         198.159         29.9075 
        1.36674         195.695          29.104 
         1.3824         192.413         28.3308 
        1.39811         189.155         27.5833 
        1.41389         188.086         26.8599 
        1.42964         184.795         26.1638 
        1.44531          181.68         25.4958 
        1.46101          180.43         24.8498 
        1.47667         175.178         24.2281 
        1.49229         173.495         23.6295 
        1.50793         173.178         23.0504 
        1.52367         168.396         22.4871 
        1.53953         166.217         21.9389 
        1.55526         162.562         21.4133 
        1.57092         161.912         20.9072 
        1.58662         158.413         20.4163 
        1.60235         157.332         19.9403 
        1.61809         155.376         19.4792 
        1.63369         152.248         19.0368 
        1.64941         152.101          18.605 
        1.66519          147.86         18.1851 
        1.68085         145.937         17.7812 
        1.69652         144.618         17.3895 
        1.71228         142.263         17.0073 
        1.72806         139.947         16.6364 
        1.74368          137.24         16.2802 
        1.75933          134.83         15.9339 
        1.77505         133.447         15.5959 
        1.79081         131.542         15.2672 
         1.8065          129.61         14.9494 
        1.82218         128.493          14.641 
        1.83797           126.3         14.3392 
        1.85367         125.881         14.0475 
        1.86928         123.654         13.7657 
        1.88497         121.812         13.4902 
        1.90073         119.851         13.2211 
        1.91647         118.535         12.9597 
        1.93218         116.953         12.7059 
        1.94787          114.94         12.4593 
        1.96363         114.216         12.2182 
        1.97935         111.741         11.9841 
        1.99499         110.461         11.7574 
        2.01064          109.19         11.5363 
         2.0264         107.805         11.3194 
        2.04216         106.389         11.1083 
        2.05781         105.053         10.9039 
        2.07353         103.615         10.7039 
        2.08928         102.865         10.5085 
        2.10499         101.022         10.3185 
        2.12065         99.1394         10.1337 
        2.13633           98.72         9.95338 
        2.15211         97.3614         9.77625 
        2.16785         95.8438         9.60394 
        2.18349         94.5352         9.43686 
        2.19916         92.9217         9.27341 
        2.21489         92.4147          9.1133 
        2.23063         91.0979         8.95686 
         2.2463         89.8257          8.8048 
        2.26194         89.0589         8.65666 
        2.27765         87.4747         8.51116 
        2.29341         86.6536         8.36864 
        2.30914          85.636         8.22968 
        2.32486         84.0982         8.09395 
        2.34061         83.2118         7.96106 
        2.35635          82.325         7.83128 
        2.37203         81.1322         7.70484 
        2.38768         80.1576         7.58146 
        2.40339          78.723         7.46033 
        2.41914         77.8642         7.34158 
        2.43483         76.9375         7.22582 
         2.4505         76.0963         7.11276 
        2.46622         74.7897         7.00174 
        2.48195         74.1809         6.89307 
        2.49759         73.3097          6.7873 
        2.51328         72.3261         6.68347 
        2.52906         71.5525         6.58116 
        2.54479         70.7185         6.48137 
        2.56049         69.7534         6.38385 
        2.57618         68.7988         6.28842 
        2.59189         68.0012         6.19479 
        2.60758         67.1592         6.10323 
        2.62325         66.4475         6.01362 
        2.63898         65.5243          5.9255 
        2.65468         64.8564         5.83934 
        2.67044          64.096         5.75452 
        2.68618         63.6296         5.67158 
        2.70184         62.6468         5.59061 
        2.71755         61.9219         5.51102 
        2.73329         61.2724         5.43285 
        2.74897          60.481         5.35646 
        2.76462         59.6293         5.28171 
        2.78034         59.0904         5.20807 
        2.79607         58.3031         5.13577 
        2.81179         57.6976         5.06492 
        2.82749         57.0247         4.99548 
        2.84321         56.3206         4.92727 
        2.85893         55.7184         4.86036 
        2.87462         54.9462          4.7948 
        2.89033         54.5149         4.73039 
        2.90605         53.8457         4.66711 
        2.92176         53.2987         4.60502 
        2.93747         52.4452         4.54409 
        2.95318         51.9038         4.48425 
        2.96891          51.393         4.42547 
        2.98456         50.8909         4.36799 
        3.00023         50.2647         4.31146 
        3.01596         49.9032         4.25575 
        3.03164         49.0683         4.20118 
        3.04738         48.5841         4.14741 
         3.0631         48.3115          4.0946 
        3.07883         47.3957         4.04271 
        3.09456         46.9591         3.99172 
        3.11026         46.5624         3.94169 
        3.12596         45.9063         3.89253 
        3.14163         45.4659         3.84432 
        3.15734         45.1942         3.79681 
        3.17308          44.609         3.74999 
        3.18879          44.062         3.70409 
        3.20447         43.4261         3.65902 
         3.2202         42.9266         3.61457 
         3.2359         42.6632         3.57093 
        3.25157         42.0883         3.52812 
        3.26729         41.5483         3.48587 
        3.28304         41.2943         3.44424 
        3.29877         40.7037         3.40334 
        3.31446         40.4167          3.3632 
        3.33014         39.9497         3.32374 
        3.34585         39.5338         3.28485 
        3.36158         38.9512         3.24652 
        3.37727         38.5988         3.20893 
        3.39294          38.223         3.17197 
        3.40867         37.9383         3.13545 
        3.42439         37.5386         3.09953 
        3.44008         37.2564         3.06424 
        3.45578         36.6298         3.02948 
        3.47153          36.264         2.99518 
        3.48724         35.9754         2.96147 
        3.50292         35.7463         2.92836 
        3.51859         35.3032         2.89577 
        3.53431         34.9052         2.86357 
        3.55007         34.5449         2.83178 
        3.56577         34.1136         2.80061 
        3.58146         33.8285         2.76991 
        3.59719         33.3867         2.73961 
        3.61292         33.1592         2.70977 
        3.62859         32.8598         2.68048 
        3.64429         32.4994         2.65157 
        3.66003         32.2181           2.623 
        3.67578         31.7989         2.59486 
        3.69146         31.4735         2.56724 
        3.70712         31.2472         2.54007 
        3.72284         30.7637          2.5132 
        3.73853         30.5429         2.48676 
        3.75422         30.2927         2.46069 
        3.76993         29.9525         2.43497 
        3.78564         29.7513         2.40963 
        3.80137         29.4762         2.38461 
        3.81707         29.1702            2.36 
        3.83279         28.8519         2.33571 
        3.84853         28.5407         2.31173 
        3.86424         28.3849         2.28813 
        3.87992         28.0373         2.26489 
        3.89561         27.8172         2.24198 
        3.91134         27.4243         2.21933 
        3.92704         27.2288         2.19703 
        3.94273         26.9809         2.17505 
        3.95845         26.6612         2.15333 
        3.97418         26.4054         2.13191 
        3.98988         26.3347          2.1108 
        4.00554         25.9711         2.09004 
        4.02125         25.6811          2.0695 
        4.03698         25.4826         2.04921 
        4.05268         25.2768         2.02923 
        4.06839         24.9079          2.0095 
         4.0841         24.7044         1.99004 
        4.09983         24.5195         1.97081 
        4.11555         24.2764         1.95184 
        4.13124         24.1249         1.93318 
        4.14693         23.8706         1.91474 
        4.16266         23.6355          1.8965 
        4.17839         23.4182         1.87851 
        4.19408         23.2116         1.86079 
        4.20977         22.9714          1.8433 
        4.22551         22.8047         1.82598 
        4.24123         22.5664         1.80891 
        4.25691         22.3922          1.7921 
        4.27259         22.1224          1.7755 
        4.28831         21.9119         1.75908 
        4.30404         21.7848         1.74285 
        4.31974         21.5724         1.72686 
        4.33543         21.3842         1.71108 
        4.35116         21.1996         1.69545 
        4.36688         20.9734         1.68003 
        4.38255         20.7855         1.66486 
        4.39825          20.622         1.64984 
        4.41398         20.3991         1.63498 
         4.4297         20.2232         1.62032 
        4.44541          20.083         1.60583 
        4.46111          19.848         1.59154 
        4.47683         19.7224         1.57741 
        4.49251         19.5618         1.56348 
        4.50819         19.3893         1.54972 
         4.5239         19.1718         1.53611 
        4.53962         19.0311         1.52265 
        4.55535         18.8463         1.50934 
        4.57106         18.7048          1.4962 
        4.58678         18.5787         1.48323 
         4.6025         18.3724          1.4704 
        4.61821         18.1952         1.45772 
        4.63391         18.0602         1.44521 
         4.6496         17.8787         1.43286 
        4.66532         17.7787         1.42063 
        4.68103         17.5955         1.40854 
        4.69673         17.4164         1.39661 
        4.71241         17.3302         1.38483 
        4.72811         17.1749         1.37316 
        4.74384         16.9753         1.36162 
        4.75955         16.9047         1.35022 
        4.77525         16.7211         1.33896 
        4.79096         16.5581         1.32782 
        4.80669         16.4203          1.3168 
         4.8224         16.3069         1.30591 
        4.83809         16.1719         1.29516 
        4.85379         16.0146         1.28453 
         4.8695         15.9194           1.274 
        4.88521         15.7816          1.2636 
        4.90093         15.6326         1.25331 
        4.91663         15.5323         1.24314 
        4.93234         15.3822         1.23308 
        4.94807         15.2392         1.22312 
        4.96377         15.1375         1.21329 
        4.97943         15.0247         1.20359 
        4.99514          14.903         1.19397 
        5.01086         14.7703         1.18445 
        5.02654         14.6466         1.17506 
        5.04227         14.5278         1.16574 
          5.058         14.4246         1.15651 
        5.07371         14.3139         1.14741 
        5.08942         14.1612          1.1384 
        5.10513         14.0901         1.12949 
        5.12084         13.9607         1.12066 
        5.13656         13.8442         1.11194 
        5.15225         13.7755         1.10332 
        5.16796         13.6343         1.09478 
        5.18369         13.4972         1.08632 
         5.1994         13.4224         1.07797 
        5.21509         13.3048         1.06971 
        5.23079         13.2019         1.06153 
        5.24649         13.1191         1.05344 
        5.26217         12.9873         1.04544 
        5.27788          12.919         1.03751 
        5.29359         12.7848         1.02966 
        5.30933         12.6492         1.02188 
        5.32504         12.6062          1.0142 
        5.34073         12.5251          1.0066 
        5.35646         12.4031        0.999068 
        5.37218         12.2788         0.99161 
        5.38789         12.2187        0.984239 
        5.40357         12.1108        0.976952 
        5.41929         12.0214        0.969722 
        5.43502         11.9413        0.962565 
         5.4507          11.823        0.955497 
        5.46639          11.744        0.948498 
        5.48212         11.6452        0.941554 
        5.49786         11.5818        0.934671 
        5.51353         11.4665        0.927891 
        5.52921         11.3955        0.921171 
        5.54495         11.3077        0.914497 
        5.56066         11.2329        0.907898 
        5.57637         11.1401        0.901364 
        5.59207         11.0405          0.8949 
        5.60778         10.9703        0.888497 
        5.62346         10.9064        0.882166 
        5.63916         10.8098         0.87589 
        5.65487          10.726        0.869672 
         5.6706         10.6521        0.863508 
        5.68633         10.5445          0.8574 
        5.70203          10.478        0.851364 
        5.71773         10.4244        0.845388 
        5.73344         10.3595        0.839465 
        5.74916         10.2658        0.833594 
        5.76486         10.1734        0.827787 
        5.78054         10.1262        0.822044 
        5.79626         10.0307        0.816339 
          5.812         9.98327        0.810683 
         5.8277         9.89455        0.805097 
        5.84339         9.81874        0.799564 
        5.85911          9.7411        0.794072 
        5.87484         9.66268        0.788632 
        5.89053         9.59701        0.783254 
        5.90623         9.52469        0.777924 
        5.92195         9.45029        0.772634 
        5.93767         9.41378        0.767396 
        5.95336         9.34301        0.762216 
        5.96905         9.26504        0.757085 
        5.98476          9.2016        0.751994 
        6.00048         9.13063        0.746948 
        6.01617         9.07634        0.741955 
        6.03185         9.01365        0.737014 
        6.04756         8.94416        0.732106 
        6.06331         8.88462        0.727233 
        6.07903         8.83192        0.722413 
        6.09473         8.75411        0.717642 
        6.11044         8.70782         0.71291 
        6.12616         8.64262        0.708221 
        6.14186         8.58664        0.703579 
        6.15755         8.53573        0.698979 
        6.17326          8.4577        0.694416 
        6.18898          8.4002        0.689892 
        6.20467         8.35174        0.685416 
        6.22036         8.28733        0.680981 
         6.2361         8.21991        0.676572 
         6.2518         8.17126         0.67221 
        6.26748         8.13157        0.667896 
        6.28319         8.07333        0.663607 
        6.29893         8.01804        0.659353 
        6.31463         7.96713        0.655143 
        6.33033         7.91115        0.650971 
        6.34604         7.85203        0.646833 
        6.36177         7.79637        0.642726 
        6.37747          7.7426        0.638663 
