# k  (h/Mpc)    Pcb(k)  (Mpc/h)^3    Pcb_linear(k) (Mpc/h)^3   ShotnoiseSubtracted = true
      0.0200456           30797         31456.6 
      0.0350414         23577.6         22810.9 
      0.0492313         15935.1         16466.1 
      0.0637834         12977.8         13871.1 
      0.0800726         10287.7         11192.6 
       0.096163         8368.83         8073.91 
       0.111083         6776.79         6388.29 
       0.126058         5631.81         5726.28 
       0.142273         5016.17         4931.43 
       0.158546         4106.62         3885.42 
        0.17375         3731.52         3244.68 
       0.188953         3610.13         2955.79 
       0.204907         3117.06         2653.54 
       0.220756          2850.1         2249.98 
        0.23588         2546.65         1943.69 
         0.2514          2337.1         1768.17 
       0.267535         2236.83         1616.43 
       0.283568         2031.07         1432.03 
       0.299022         1930.57         1271.94 
       0.314451         2013.17         1161.86 
       0.330372         1843.52         1072.21 
       0.346141         1706.21         977.915 
       0.361624         1627.57         888.634 
       0.377134         1584.59         817.187 
       0.392932         1488.06         758.425 
       0.408854          1447.4         701.866 
       0.424564         1416.28         647.878 
       0.440253         1346.94          600.76 
       0.455999         1285.44         560.665 
       0.471626         1285.33         524.301 
        0.48727         1228.93         489.683 
       0.502856         1212.67         458.214 
       0.518488         1153.45         430.224 
       0.534347         1123.05         404.481 
       0.550082         1086.36          380.64 
       0.565732         1056.28         358.634 
       0.581496         1032.47         338.431 
       0.597222         1025.33         319.997 
       0.612804         991.307         303.023 
       0.628434         958.603         287.158 
       0.644267         938.071         272.253 
       0.660051         920.778         258.528 
       0.675724         910.466         245.867 
       0.691403         870.252         234.047 
       0.707174         854.626         222.938 
       0.722871          853.33         212.597 
        0.73838         819.062         203.025 
       0.754018         815.266         193.972 
       0.769845         793.731         185.375 
        0.78569         774.998         177.294 
       0.801365         758.587         169.779 
       0.817031         745.505         162.709 
       0.832809         728.841         156.002 
       0.848511         706.846         149.709 
       0.864097         701.979         143.811 
       0.879701         700.023         138.229 
       0.895507         681.423         132.882 
       0.911279         673.364         127.832 
        0.92691         660.039          123.09 
       0.942635         644.588         118.566 
       0.958396         640.872         114.262 
       0.974128         622.416         110.182 
       0.989692         614.243         106.345 
        1.00528         599.701         102.686 
        1.02113          587.96         99.1444 
        1.03692         578.344         95.7846 
        1.05264         572.363         92.5977 
        1.06832         562.951         89.5624 
        1.08405         553.713         86.6565 
        1.09979         541.794         83.8792 
        1.11537          529.22         81.2525 
        1.13105         522.576         78.7238 
        1.14679         515.116         76.2942 
        1.16256         508.252         73.9635 
        1.17828         500.723         71.7388 
        1.19395         491.484         69.6142 
         1.2097         479.348         67.5657 
        1.22537         474.411         65.6105 
          1.241          464.62         63.7394 
        1.25666         454.868         61.9373 
        1.27241          454.28         60.1972 
        1.28819         444.364         58.5218 
        1.30392         438.179         56.9157 
        1.31957         428.542         55.3777 
        1.33529         424.622         53.8914 
        1.35108         423.446         52.4545 
        1.36674         413.483         51.0807 
         1.3824         405.209         49.7579 
        1.39811         400.761          48.478 
        1.41389         396.573         47.2387 
        1.42964         386.303         46.0453 
        1.44531         383.757         44.8994 
        1.46101         373.382         43.7904 
        1.47667         370.531         42.7225 
        1.49229         367.073         41.6935 
        1.50793         356.665         40.6975 
        1.52367         354.627          39.728 
        1.53953         347.857         38.7839 
        1.55526         340.237         37.8782 
        1.57092         336.778         37.0055 
        1.58662         332.956         36.1585 
        1.60235         327.289         35.3367 
        1.61809         321.641         34.5402 
        1.63369         317.272         33.7755 
        1.64941         313.179         33.0288 
        1.66519         309.458         32.3021 
        1.68085         301.984         31.6027 
        1.69652         298.628          30.924 
        1.71228         294.912         30.2615 
        1.72806         290.266         29.6181 
        1.74368         287.115              29 
        1.75933         284.044         28.3985 
        1.77505         279.327         27.8114 
        1.79081         275.974           27.24 
         1.8065         272.333         26.6873 
        1.82218         266.457         26.1505 
        1.83797         263.816         25.6249 
        1.85367         259.642         25.1168 
        1.86928         256.188         24.6257 
        1.88497         252.779         24.1451 
        1.90073          249.55         23.6757 
        1.91647         245.503         23.2193 
        1.93218         242.461          22.776 
        1.94787         239.107         22.3451 
        1.96363          237.41         21.9236 
        1.97935          230.08          21.514 
        1.99499         229.669         21.1173 
        2.01064         225.197         20.7301 
         2.0264         222.296         20.3503 
        2.04216         219.657         19.9802 
        2.05781          215.81         19.6218 
        2.07353         214.462         19.2709 
        2.08928         210.525         18.9279 
        2.10499         209.149         18.5943 
        2.12065         205.819         18.2698 
        2.13633         202.656         17.9528 
        2.15211         200.399         17.6413 
        2.16785         198.057         17.3382 
        2.18349         194.091         17.0441 
        2.19916         193.111         16.7563 
        2.21489         190.178         16.4743 
        2.23063         187.575         16.1986 
         2.2463         184.641         15.9305 
        2.26194         182.238         15.6692 
        2.27765         181.044         15.4124 
        2.29341         178.723         15.1608 
        2.30914         176.173         14.9154 
        2.32486         174.569         14.6756 
        2.34061         171.152         14.4407 
        2.35635          169.17         14.2112 
        2.37203         168.582         13.9875 
        2.38768         165.869         13.7691 
        2.40339         162.825         13.5547 
        2.41914         161.898         13.3443 
        2.43483         159.681         13.1392 
         2.4505         157.721         12.9388 
        2.46622         155.984         12.7419 
        2.48195         153.488         12.5491 
        2.49759         152.336         12.3614 
        2.51328         149.943          12.177 
        2.52906         148.298         11.9953 
        2.54479         146.202          11.818 
        2.56049         144.641         11.6446 
        2.57618         143.245         11.4749 
        2.59189         141.956         11.3084 
        2.60758         140.773         11.1454 
        2.62325         138.181         10.9859 
        2.63898         136.562         10.8289 
        2.65468         135.328         10.6754 
        2.67044         133.917         10.5242 
        2.68618         132.265         10.3764 
        2.70184         130.699         10.2319 
        2.71755         128.998         10.0899 
        2.73329         127.832         9.95041 
        2.74897          126.17         9.81401 
        2.76462         124.724         9.68048 
        2.78034         123.311          9.5489 
        2.79607         122.258         9.41965 
        2.81179         120.092         9.29296 
        2.82749         119.227         9.16876 
        2.84321         117.927          9.0467 
        2.85893         116.882         8.92692 
        2.87462         115.015         8.80953 
        2.89033         114.122         8.69416 
        2.90605         112.316         8.58076 
        2.92176         111.642         8.46947 
        2.93747          110.25         8.36022 
        2.95318         108.983         8.25289 
        2.96891         107.979          8.1474 
        2.98456         106.855         8.04424 
        3.00023         105.642         7.94273 
        3.01596         104.261         7.84267 
        3.03164         103.438         7.74463 
        3.04738          102.21         7.64799 
         3.0631         101.287         7.55304 
        3.07883         100.314         7.45971 
        3.09456         99.2964         7.36799 
        3.11026          97.906         7.27796 
        3.12596         96.7797         7.18945 
        3.14163         95.4285         7.10264 
        3.15734         94.4468         7.01706 
        3.17308         93.7481          6.9327 
        3.18879         92.3248         6.84996 
        3.20447         91.8209          6.7687 
         3.2202         90.6749         6.68852 
         3.2359           90.19         6.60979 
        3.25157         89.1159         6.53253 
        3.26729         88.0965         6.45627 
        3.28304         87.4314         6.38109 
        3.29877         86.5072         6.30721 
        3.31446         85.3985         6.23468 
        3.33014         84.8291         6.16335 
        3.34585         83.7228         6.09304 
        3.36158         82.7514         6.02373 
        3.37727         81.9667         5.95572 
        3.39294         81.3153         5.88883 
        3.40867         80.4132         5.82274 
        3.42439         79.6622          5.7577 
        3.44008         78.6854         5.69379 
        3.45578         77.9912         5.63081 
        3.47153         77.1335         5.56865 
        3.48724         76.2493         5.50754 
        3.50292         75.7303          5.4475 
        3.51859         75.1898         5.38839 
        3.53431         74.2099         5.32997 
        3.55007         73.4963         5.27229 
        3.56577         72.8484          5.2157 
        3.58146          72.125         5.15996 
        3.59719         71.4239         5.10492 
        3.61292         70.9124          5.0507 
        3.62859         70.0576         4.99748 
        3.64429          69.516         4.94493 
        3.66003         68.7967         4.89298 
        3.67578         67.9046          4.8418 
        3.69146         67.3804         4.79155 
        3.70712         67.0246         4.74211 
        3.72284           66.15         4.69319 
        3.73853         65.5025         4.64505 
        3.75422         65.0683         4.59757 
        3.76993         64.3221         4.55072 
        3.78564         63.5617         4.50454 
        3.80137         63.2188         4.45894 
        3.81707         62.5737         4.41406 
        3.83279         61.9408         4.36977 
        3.84853         61.6674         4.32602 
        3.86424         60.9138         4.28296 
        3.87992         60.3292         4.24056 
        3.89561         59.7132         4.19872 
        3.91134         59.2375         4.15738 
        3.92704         58.7861         4.11664 
        3.94273         57.9695         4.07649 
        3.95845         57.5688          4.0368 
        3.97418         57.0468         3.99764 
        3.98988         56.6157         3.95905 
        4.00554         55.9055         3.92109 
        4.02125         55.4506         3.88351 
        4.03698         55.0322         3.84637 
        4.05268         54.6551         3.80981 
        4.06839         54.1376          3.7737 
         4.0841         53.6295         3.73807 
        4.09983         53.1203         3.70285 
        4.11555         52.8128          3.6681 
        4.13124          52.324          3.6339 
        4.14693         51.5906         3.60011 
        4.16266         51.3149         3.56667 
        4.17839          50.978         3.53368 
        4.19408         50.3889         3.50118 
        4.20977         49.8599         3.46908 
        4.22551         49.4894         3.43731 
        4.24123         48.9536         3.40598 
        4.25691         48.7458         3.37512 
        4.27259         48.3175         3.34463 
        4.28831         47.9066         3.31447 
        4.30404          47.493         3.28465 
        4.31974         47.1709         3.25526 
        4.33543         46.6958         3.22625 
        4.35116         46.1933         3.19753 
        4.36688         45.8763         3.16917 
        4.38255         45.5796         3.14127 
        4.39825         45.0616         3.11364 
        4.41398         44.7124         3.08629 
         4.4297         44.3539          3.0593 
        4.44541         43.8659         3.03264 
        4.46111         43.3974         3.00632 
        4.47683         43.2316          2.9803 
        4.49251         42.8958         2.95463 
        4.50819         42.4583         2.92928 
         4.5239         42.1696          2.9042 
        4.53962         41.8514         2.87937 
        4.55535         41.4881         2.85483 
        4.57106         41.1557         2.83061 
        4.58678         40.7676         2.80667 
         4.6025         40.3611           2.783 
        4.61821         40.0183         2.75961 
        4.63391         39.6691         2.73652 
         4.6496          39.461          2.7137 
        4.66532         39.1731         2.69111 
        4.68103          38.712         2.66879 
        4.69673         38.5084         2.64675 
        4.71241         38.2029         2.62498 
        4.72811         37.8472         2.60342 
        4.74384         37.5154         2.58208 
        4.75955         37.3255           2.561 
        4.77525         36.8448         2.54018 
        4.79096          36.605         2.51957 
        4.80669         36.3822         2.49917 
         4.8224         36.0892         2.47903 
        4.83809          35.796         2.45913 
        4.85379         35.4957         2.43944 
         4.8695         35.2196         2.41995 
        4.88521         34.9552         2.40068 
        4.90093         34.6469         2.38162 
        4.91663          34.282         2.36278 
        4.93234          34.063         2.34413 
        4.94807         33.8389         2.32567 
        4.96377         33.5587         2.30745 
        4.97943         33.2232         2.28946 
        4.99514         33.0303         2.27162 
        5.01086         32.7516         2.25395 
        5.02654         32.5339         2.23652 
        5.04227         32.2445         2.21922 
          5.058          31.975          2.2021 
        5.07371         31.7202          2.1852 
        5.08942         31.4962         2.16847 
        5.10513         31.2839         2.15191 
        5.12084         30.9938         2.13552 
        5.13656         30.8009         2.11931 
        5.15225         30.5666         2.10329 
        5.16796          30.311         2.08741 
        5.18369         30.1329         2.07169 
         5.1994         29.7719         2.05615 
        5.21509          29.628         2.04079 
        5.23079         29.3693         2.02557 
        5.24649         29.2087         2.01052 
        5.26217         28.9851         1.99563 
        5.27788         28.7401         1.98087 
        5.29359          28.531         1.96626 
        5.30933         28.2864         1.95178 
        5.32504         28.0429         1.93747 
        5.34073         27.8811         1.92332 
        5.35646         27.6822         1.90928 
        5.37218         27.4285         1.89538 
        5.38789         27.1935         1.88164 
        5.40357         27.0519         1.86806 
        5.41929          26.868         1.85458 
        5.43502         26.6809         1.84123 
         5.4507          26.432         1.82805 
        5.46639         26.2887         1.81499 
        5.48212         26.0846         1.80203 
        5.49786         25.8797         1.78919 
        5.51353         25.6684         1.77653 
        5.52921         25.5352         1.76399 
        5.54495         25.2851         1.75152 
        5.56066         25.1548          1.7392 
        5.57637         24.9305         1.72699 
        5.59207         24.7143         1.71492 
        5.60778         24.5716         1.70295 
        5.62346         24.3672         1.69112 
        5.63916         24.2243         1.67939 
        5.65487         24.0082         1.66776 
         5.6706         23.8976         1.65623 
        5.68633         23.6464         1.64481 
        5.70203         23.5588         1.63352 
        5.71773         23.3589         1.62234 
        5.73344         23.1728         1.61125 
        5.74916         23.0039         1.60027 
        5.76486         22.8462         1.58939 
        5.78054         22.7121         1.57864 
        5.79626          22.548         1.56796 
          5.812         22.3947         1.55737 
         5.8277           22.22          1.5469 
        5.84339         22.0574         1.53653 
        5.85911         21.8744         1.52624 
        5.87484         21.7207         1.51605 
        5.89053         21.6382         1.50597 
        5.90623         21.4173         1.49597 
        5.92195          21.279         1.48605 
        5.93767         21.0838         1.47623 
        5.95336         20.9607         1.46651 
        5.96905         20.7905         1.45688 
        5.98476         20.6431         1.44733 
        6.00048         20.5017         1.43786 
        6.01617         20.4131         1.42849 
        6.03185         20.2707         1.41921 
        6.04756         20.1391         1.40999 
        6.06331         19.9355         1.40084 
        6.07903         19.8836         1.39179 
        6.09473         19.6687         1.38283 
        6.11044         19.5578         1.37393 
        6.12616         19.4281         1.36512 
        6.14186         19.2995          1.3564 
        6.15755         19.1698         1.34775 
        6.17326         19.0302         1.33917 
        6.18898         18.9122         1.33066 
        6.20467         18.7683         1.32224 
        6.22036         18.6471          1.3139 
         6.2361         18.5164          1.3056 
         6.2518          18.368         1.29739 
        6.26748         18.2404         1.28927 
        6.28319         18.0968          1.2812 
        6.29893         18.0292         1.27319 
        6.31463         17.8928         1.26526 
        6.33033         17.8129         1.25741 
        6.34604         17.6734         1.24961 
        6.36177         17.5572         1.24188 
        6.37747         17.4378         1.23422 
