# k  (h/Mpc)    Pcb(k)  (Mpc/h)^3    Pcb_linear(k) (Mpc/h)^3   ShotnoiseSubtracted = true
      0.0200456         27939.3         28515.8 
      0.0350414         21358.5         20678.4 
      0.0492313         14492.1         14926.7 
      0.0637834         11806.1         12574.3 
      0.0800726         9367.97         10146.2 
       0.096163         7583.05         7319.11 
       0.111083         6141.95         5791.06 
       0.126058         5102.77         5190.95 
       0.142273         4536.87          4470.4 
       0.158546         3716.22         3522.18 
        0.17375         3356.66         2941.34 
       0.188953         3229.27         2679.46 
       0.204907         2789.78         2405.47 
       0.220756          2542.5         2039.64 
        0.23588         2270.59         1761.98 
         0.2514         2077.04         1602.87 
       0.267535         1992.95         1465.31 
       0.283568         1800.42         1298.15 
       0.299022         1713.13         1153.03 
       0.314451         1788.72         1053.24 
       0.330372         1622.28         971.968 
       0.346141         1494.64         886.493 
       0.361624         1430.21         805.558 
       0.377134         1384.78         740.791 
       0.392932         1307.39         687.522 
       0.408854         1265.87          636.25 
       0.424564         1239.81          587.31 
       0.440253         1169.41         544.596 
       0.455999         1117.21          508.25 
       0.471626         1124.82         475.286 
        0.48727          1070.3         443.904 
       0.502856         1048.69         415.377 
       0.518488         1002.07         390.004 
       0.534347         974.016         366.668 
       0.550082         935.301         345.055 
       0.565732          913.41         325.106 
       0.581496           893.2         306.792 
       0.597222         884.019         290.081 
       0.612804         857.721         274.694 
       0.628434         826.457         260.313 
       0.644267         805.944         246.801 
       0.660051         794.938         234.359 
       0.675724         783.938         222.882 
       0.691403         751.167         212.166 
       0.707174         736.036         202.096 
       0.722871         733.518         192.722 
        0.73838         707.681         184.044 
       0.754018          700.12         175.838 
       0.769845         685.147         168.045 
        0.78569         669.266          160.72 
       0.801365         651.963         153.907 
       0.817031         641.998         147.498 
       0.832809         628.208         141.418 
       0.848511         614.604         135.713 
       0.864097         607.729         130.366 
       0.879701         609.413         125.306 
       0.895507         587.546         120.459 
       0.911279         582.567         115.881 
        0.92691         570.523         111.583 
       0.942635          560.06         107.481 
       0.958396         551.709          103.58 
       0.974128         539.034         99.8817 
       0.989692         529.315         96.4028 
        1.00528         519.531         93.0864 
        1.02113         509.457         89.8757 
        1.03692         502.134           86.83 
        1.05264         497.045          83.941 
        1.06832          486.53         81.1894 
        1.08405         481.487         78.5552 
        1.09979         469.951         76.0376 
        1.11537         460.687         73.6564 
        1.13105         453.811         71.3642 
        1.14679         446.692         69.1617 
        1.16256         442.727         67.0488 
        1.17828         435.362         65.0322 
        1.19395         427.378         63.1062 
         1.2097         417.954         61.2492 
        1.22537         413.854         59.4767 
          1.241         404.916         57.7805 
        1.25666         398.965          56.147 
        1.27241         397.603         54.5696 
        1.28819         387.071         53.0508 
        1.30392         382.983         51.5948 
        1.31957         375.727         50.2006 
        1.33529         371.655         48.8533 
        1.35108         371.292         47.5506 
        1.36674         361.055         46.3053 
         1.3824         352.734         45.1062 
        1.39811         350.156          43.946 
        1.41389         345.615         42.8225 
        1.42964         338.718         41.7407 
        1.44531         333.784         40.7019 
        1.46101         324.684         39.6965 
        1.47667         324.332         38.7285 
        1.49229         320.531         37.7957 
        1.50793         312.464         36.8928 
        1.52367          308.53         36.0139 
        1.53953         304.282         35.1581 
        1.55526         297.945         34.3371 
        1.57092         295.372          33.546 
        1.58662          290.56         32.7782 
        1.60235         285.581         32.0331 
        1.61809         282.497         31.3111 
        1.63369         277.511         30.6179 
        1.64941         274.689          29.941 
        1.66519         270.355         29.2823 
        1.68085         265.084         28.6482 
        1.69652         261.733          28.033 
        1.71228         258.104         27.4324 
        1.72806         254.519         26.8492 
        1.74368         250.984         26.2889 
        1.75933         248.497         25.7436 
        1.77505         243.743         25.2114 
        1.79081         240.512         24.6934 
         1.8065         238.511         24.1924 
        1.82218         232.794         23.7058 
        1.83797         230.725         23.2293 
        1.85367         226.855         22.7687 
        1.86928         222.937         22.3235 
        1.88497         220.094         21.8879 
        1.90073         218.437         21.4623 
        1.91647         214.593         21.0486 
        1.93218         211.201         20.6468 
        1.94787         207.742         20.2561 
        1.96363         206.425         19.8741 
        1.97935          201.45         19.5028 
        1.99499         200.729         19.1431 
        2.01064         195.593         18.7921 
         2.0264         194.415         18.4478 
        2.04216         190.986         18.1123 
        2.05781         188.619         17.7874 
        2.07353         187.389         17.4693 
        2.08928         184.984         17.1584 
        2.10499          181.86          16.856 
        2.12065         179.612         16.5618 
        2.13633          176.87         16.2744 
        2.15211         174.849         15.9921 
        2.16785         172.789         15.7173 
        2.18349         169.396         15.4507 
        2.19916         169.406         15.1898 
        2.21489         165.493         14.9341 
        2.23063         163.622         14.6842 
         2.2463         161.736         14.4412 
        2.26194         159.764         14.2043 
        2.27765         157.921         13.9716 
        2.29341         155.631         13.7435 
        2.30914         153.582          13.521 
        2.32486         151.889         13.3036 
        2.34061         149.272         13.0907 
        2.35635         147.134         12.8826 
        2.37203         147.015         12.6799 
        2.38768         144.137         12.4819 
        2.40339         142.026         12.2875 
        2.41914         140.681         12.0968 
        2.43483         139.071         11.9109 
         2.4505         137.488         11.7292 
        2.46622         135.509         11.5507 
        2.48195         133.562         11.3759 
        2.49759         131.972         11.2058 
        2.51328         130.242         11.0386 
        2.52906         128.915         10.8739 
        2.54479         127.378         10.7132 
        2.56049         125.735          10.556 
        2.57618         124.427         10.4022 
        2.59189          123.05         10.2512 
        2.60758         122.237         10.1035 
        2.62325         120.172         9.95884 
        2.63898         117.974         9.81658 
        2.65468         117.186         9.67741 
        2.67044          115.98         9.54037 
        2.68618         114.321         9.40631 
        2.70184         113.335         9.27539 
        2.71755         111.318         9.14665 
        2.73329         110.606         9.02018 
        2.74897         108.603         8.89652 
        2.76462         107.691         8.77548 
        2.78034         106.513          8.6562 
        2.79607         105.573         8.53904 
        2.81179          104.19         8.42419 
        2.82749          102.96          8.3116 
        2.84321         101.529         8.20095 
        2.85893         100.687         8.09237 
        2.87462         99.0377         7.98595 
        2.89033         98.3206         7.88136 
        2.90605         96.9999         7.77857 
        2.92176         95.5027         7.67768 
        2.93747         95.0503         7.57865 
        2.95318         93.8422         7.48135 
        2.96891         92.8913         7.38572 
        2.98456         91.6715         7.29221 
        3.00023         90.8328         7.20019 
        3.01596         89.6053         7.10948 
        3.03164         89.0321          7.0206 
        3.04738         87.8999           6.933 
         3.0631         87.0199         6.84693 
        3.07883         85.9571         6.76233 
        3.09456         85.1436         6.67918 
        3.11026         84.2786         6.59756 
        3.12596          83.176         6.51733 
        3.14163         82.1371         6.43863 
        3.15734         81.3638         6.36105 
        3.17308         80.4337         6.28458 
        3.18879         79.7501         6.20958 
        3.20447         78.6519         6.13592 
         3.2202         77.9629         6.06323 
         3.2359         77.5257         5.99186 
        3.25157         76.5553         5.92182 
        3.26729         75.8107         5.85269 
        3.28304         74.8115         5.78454 
        3.29877         74.2262         5.71757 
        3.31446         73.5353         5.65182 
        3.33014         72.8431         5.58716 
        3.34585         72.0854         5.52342 
        3.36158         71.2064         5.46059 
        3.37727         70.4273         5.39894 
        3.39294         69.8127          5.3383 
        3.40867         69.1053         5.27839 
        3.42439         67.9744         5.21943 
        3.44008         67.5016         5.16149 
        3.45578         67.0426          5.1044 
        3.47153         66.2532         5.04805 
        3.48724          65.687         4.99266 
        3.50292         65.2308         4.93823 
        3.51859         64.4481         4.88464 
        3.53431          63.646         4.83169 
        3.55007         63.1423          4.7794 
        3.56577          62.563          4.7281 
        3.58146         61.8024         4.67757 
        3.59719          61.363         4.62767 
        3.61292         60.7933         4.57852 
        3.62859         60.1227         4.53028 
        3.64429          59.613         4.48264 
        3.66003         59.0727         4.43555 
        3.67578         58.4332         4.38915 
        3.69146         57.9675          4.3436 
        3.70712           57.18         4.29879 
        3.72284         56.8595         4.25444 
        3.73853         56.2416          4.2108 
        3.75422         55.7695         4.16776 
        3.76993         55.2417         4.12528 
        3.78564         54.6781         4.08343 
        3.80137         54.2305         4.04208 
        3.81707          53.605          4.0014 
        3.83279         53.0389         3.96125 
        3.84853         52.7713         3.92159 
        3.86424         52.3658         3.88256 
        3.87992         51.6771         3.84412 
        3.89561         51.3297          3.8062 
        3.91134          50.867         3.76871 
        3.92704         50.3357         3.73178 
        3.94273         49.6956         3.69539 
        3.95845         49.2641         3.65941 
        3.97418         48.9729         3.62391 
        3.98988         48.3976         3.58893 
        4.00554         47.9871         3.55452 
        4.02125         47.4263         3.52045 
        4.03698         47.1484         3.48679 
        4.05268          46.683         3.45364 
        4.06839         46.3834          3.4209 
         4.0841         45.8678          3.3886 
        4.09983         45.4753         3.35668 
        4.11555         44.9813         3.32518 
        4.13124         44.6405         3.29418 
        4.14693         44.1511         3.26354 
        4.16266         44.0568         3.23323 
        4.17839         43.5299         3.20332 
        4.19408         43.1855         3.17387 
        4.20977         42.6894         3.14477 
        4.22551         42.2795         3.11597 
        4.24123         41.9142         3.08756 
        4.25691         41.5923         3.05959 
        4.27259          41.224         3.03195 
        4.28831         40.8833         3.00461 
        4.30404         40.5798         2.97758 
        4.31974         40.1856         2.95094 
        4.33543         39.7658         2.92464 
        4.35116         39.5107          2.8986 
        4.36688         39.1841          2.8729 
        4.38255         38.8753          2.8476 
        4.39825         38.4468         2.82255 
        4.41398         38.2257         2.79776 
         4.4297         37.7833         2.77329 
        4.44541         37.4784         2.74913 
        4.46111         37.3216         2.72527 
        4.47683         36.8986         2.70168 
        4.49251         36.6014         2.67841 
        4.50819         36.3686         2.65543 
         4.5239         36.0572         2.63269 
        4.53962         35.7397         2.61019 
        4.55535         35.4297         2.58794 
        4.57106         35.0566         2.56598 
        4.58678         34.7716         2.54428 
         4.6025         34.4466         2.52282 
        4.61821         34.1531         2.50162 
        4.63391         33.9214         2.48069 
         4.6496         33.6803            2.46 
        4.66532         33.3911         2.43953 
        4.68103         33.1087          2.4193 
        4.69673         32.7584         2.39931 
        4.71241         32.6053         2.37958 
        4.72811         32.3608         2.36003 
        4.74384         31.9799         2.34068 
        4.75955         31.8327         2.32158 
        4.77525          31.517         2.30271 
        4.79096         31.2619         2.28402 
        4.80669          30.979         2.26553 
         4.8224          30.828         2.24727 
        4.83809         30.4988         2.22923 
        4.85379         30.2957         2.21138 
         4.8695         30.0039         2.19371 
        4.88521         29.7554         2.17625 
        4.90093         29.5597         2.15897 
        4.91663         29.3738         2.14189 
        4.93234         29.0478         2.12499 
        4.94807         28.8847         2.10825 
        4.96377         28.7091         2.09173 
        4.97943         28.3702         2.07542 
        4.99514         28.1355         2.05925 
        5.01086         27.9068         2.04324 
        5.02654         27.6709         2.02743 
        5.04227          27.493         2.01175 
          5.058         27.3148         1.99623 
        5.07371         27.0465         1.98091 
        5.08942         26.9303         1.96574 
        5.10513         26.6424         1.95073 
        5.12084         26.5181         1.93588 
        5.13656         26.2907         1.92118 
        5.15225         26.0993         1.90666 
        5.16796         25.8214         1.89227 
        5.18369         25.6423         1.87801 
         5.1994         25.4754         1.86393 
        5.21509         25.2605            1.85 
        5.23079         25.0587         1.83621 
        5.24649         24.8333         1.82256 
        5.26217          24.686         1.80906 
        5.27788         24.4376         1.79569 
        5.29359          24.226         1.78244 
        5.30933         24.1417         1.76931 
        5.32504         24.0027         1.75634 
        5.34073         23.8141         1.74351 
        5.35646         23.6423         1.73079 
        5.37218         23.4027         1.71819 
        5.38789         23.2151         1.70573 
        5.40357         23.0532         1.69342 
        5.41929         22.9057          1.6812 
        5.43502          22.673          1.6691 
         5.4507         22.5593         1.65715 
        5.46639         22.3584         1.64531 
        5.48212         22.1906         1.63357 
        5.49786         22.0018         1.62192 
        5.51353         21.8831         1.61045 
        5.52921         21.7025         1.59908 
        5.54495         21.5403         1.58778 
        5.56066         21.4027         1.57661 
        5.57637          21.268         1.56554 
        5.59207         21.1029         1.55459 
        5.60778         20.9689         1.54375 
        5.62346         20.7958         1.53302 
        5.63916         20.6037         1.52239 
        5.65487         20.4562         1.51185 
         5.6706         20.3246          1.5014 
        5.68633         20.1356         1.49104 
        5.70203         20.0438         1.48081 
        5.71773         19.8928         1.47067 
        5.73344         19.7208         1.46062 
        5.74916         19.6088         1.45066 
        5.76486         19.4485         1.44081 
        5.78054         19.3078         1.43106 
        5.79626         19.1808         1.42138 
          5.812         19.0496         1.41177 
         5.8277         18.9229         1.40229 
        5.84339          18.736         1.39289 
        5.85911         18.6331         1.38356 
        5.87484         18.5131         1.37432 
        5.89053         18.3767         1.36518 
        5.90623         18.2418         1.35612 
        5.92195         18.1209         1.34712 
        5.93767          17.958         1.33822 
        5.95336         17.8791         1.32941 
        5.96905         17.7348         1.32068 
        5.98476         17.6026         1.31202 
        6.00048         17.4829         1.30344 
        6.01617         17.3271         1.29494 
        6.03185         17.2531         1.28653 
        6.04756          17.125         1.27818 
        6.06331         17.0175         1.26988 
        6.07903         16.9137         1.26167 
        6.09473         16.7489         1.25355 
        6.11044         16.6344         1.24549 
        6.12616         16.5575          1.2375 
        6.14186         16.4121         1.22959 
        6.15755          16.335         1.22175 
        6.17326         16.2112         1.21397 
        6.18898         16.0869         1.20626 
        6.20467         15.9644         1.19863 
        6.22036         15.9083         1.19107 
         6.2361         15.7678         1.18355 
         6.2518         15.6533          1.1761 
        6.26748         15.5561         1.16874 
        6.28319         15.4414         1.16143 
        6.29893         15.3358         1.15416 
        6.31463         15.2387         1.14698 
        6.33033         15.1125         1.13986 
        6.34604         15.0349         1.13279 
        6.36177         14.9441         1.12578 
        6.37747         14.8322         1.11884 
