# k  (h/Mpc)    Pcb(k)  (Mpc/h)^3    Pcb_linear(k) (Mpc/h)^3   ShotnoiseSubtracted = true
      0.0200456         507.023         514.559 
      0.0350414         372.244         373.135 
      0.0492313         270.507         269.348 
      0.0637834         228.113           226.9 
      0.0800726         183.597         183.085 
       0.096163         132.025         132.071 
       0.111083         104.196         104.498 
       0.126058         93.8565         93.6691 
       0.142273         80.9542         80.6671 
       0.158546         64.1369         63.5567 
        0.17375         53.0327         53.0757 
       0.188953         48.5756         48.3501 
       0.204907         44.3588          43.406 
       0.220756         37.2689         36.8046 
        0.23588         32.2443         31.7943 
         0.2514         29.0995         28.9232 
       0.267535          26.659         26.4412 
       0.283568         23.7335         23.4248 
       0.299022         21.2263         20.8061 
       0.314451         19.0872         19.0055 
       0.330372          17.736         17.5389 
       0.346141         16.1862         15.9965 
       0.361624         14.8079         14.5361 
       0.377134         13.7309         13.3673 
       0.392932         12.3788         12.4061 
       0.408854         11.7654          11.481 
       0.424564         10.8239         10.5978 
       0.440253         10.0315         9.82708 
       0.455999         9.43534         9.17123 
       0.471626         8.87034         8.57639 
        0.48727         8.24789         8.01011 
       0.502856         7.68776         7.49536 
       0.518488         7.33134          7.0375 
       0.534347          6.9648         6.61641 
       0.550082         6.40846         6.22642 
       0.565732         5.94016         5.86645 
       0.581496         5.76158         5.53598 
       0.597222         5.48643         5.23443 
       0.612804         5.14017         4.95678 
       0.628434         4.94158         4.69727 
       0.644267         4.67641         4.45344 
       0.660051         4.41903         4.22893 
       0.675724         4.21393         4.02183 
       0.691403         4.04932         3.82848 
       0.707174         3.83513         3.64677 
       0.722871         3.65556         3.47761 
        0.73838         3.51932         3.32103 
       0.754018         3.39819         3.17294 
       0.769845         3.22091         3.03232 
        0.78569         3.09585         2.90014 
       0.801365         2.95957         2.77721 
       0.817031         2.85264         2.66156 
       0.832809         2.73822         2.55185 
       0.848511         2.60489          2.4489 
       0.864097         2.49636         2.35242 
       0.879701         2.40666         2.26111 
       0.895507         2.32326         2.17364 
       0.911279         2.26383         2.09105 
        0.92691         2.17336         2.01348 
       0.942635         2.08701         1.93947 
       0.958396         2.00646         1.86907 
       0.974128         1.94157         1.80234 
       0.989692         1.89232         1.73956 
        1.00528         1.81701         1.67972 
        1.02113         1.74412         1.62178 
        1.03692         1.70967         1.56682 
        1.05264         1.64786         1.51469 
        1.06832         1.60186         1.46504 
        1.08405          1.5285         1.41751 
        1.09979         1.49042         1.37208 
        1.11537         1.45358         1.32911 
        1.13105         1.41415         1.28775 
        1.14679         1.37628           1.248 
        1.16256         1.32213         1.20988 
        1.17828         1.28889         1.17349 
        1.19395         1.25037         1.13873 
         1.2097         1.19982         1.10522 
        1.22537         1.18004         1.07324 
          1.241          1.1488         1.04263 
        1.25666         1.13193         1.01316 
        1.27241         1.08195        0.984692 
        1.28819         1.05462        0.957285 
        1.30392         1.03465        0.931013 
        1.31957         1.00772        0.905855 
        1.33529        0.977037        0.881543 
        1.35108        0.952109        0.858037 
        1.36674        0.918995        0.835565 
         1.3824        0.906783        0.813927 
        1.39811        0.880862        0.792992 
        1.41389        0.862882         0.77272 
        1.42964         0.84378        0.753198 
        1.44531        0.817897        0.734453 
        1.46101        0.804489        0.716312 
        1.47667        0.772755        0.698845 
        1.49229        0.765968        0.682012 
        1.50793        0.743192         0.66572 
        1.52367        0.729579        0.649861 
        1.53953        0.708203        0.634417 
        1.55526        0.695029        0.619603 
        1.57092        0.677378        0.605328 
        1.58662        0.665607        0.591473 
        1.60235        0.650866        0.578029 
        1.61809        0.631843           0.565 
        1.63369        0.628384        0.552492 
        1.64941         0.60829        0.540277 
        1.66519        0.595784         0.52839 
        1.68085        0.579549        0.516949 
        1.69652        0.568976        0.505847 
        1.71228        0.560699         0.49501 
        1.72806        0.544218        0.484486 
        1.74368        0.539187        0.474376 
        1.75933         0.52492        0.464536 
        1.77505        0.514938        0.454933 
        1.79081        0.505372        0.445586 
         1.8065        0.490788        0.436544 
        1.82218        0.485395        0.427764 
        1.83797        0.474677        0.419166 
        1.85367        0.469749        0.410855 
        1.86928        0.458494        0.402821 
        1.88497        0.449286         0.39496 
        1.90073        0.439983        0.387282 
        1.91647        0.434205        0.379816 
        1.93218        0.423418        0.372565 
        1.94787        0.416618        0.365515 
        1.96363        0.408726        0.358622 
        1.97935        0.399665        0.351922 
        1.99499        0.393576        0.345432 
        2.01064        0.386677        0.339098 
         2.0264        0.378276        0.332885 
        2.04216        0.375311        0.326831 
        2.05781        0.367013        0.320968 
        2.07353        0.358732        0.315229 
        2.08928        0.351702        0.309618 
        2.10499        0.347464        0.304161 
        2.12065        0.343549        0.298852 
        2.13633        0.336724        0.293667 
        2.15211        0.330806        0.288572 
        2.16785        0.324357        0.283614 
        2.18349        0.317777        0.278804 
        2.19916        0.314902        0.274096 
        2.21489        0.308652        0.269482 
        2.23063        0.304566        0.264973 
         2.2463        0.299483        0.260587 
        2.26194        0.292169        0.256313 
        2.27765        0.288994        0.252113 
        2.29341        0.285032        0.247997 
        2.30914         0.28076        0.243983 
        2.32486        0.275541         0.24006 
        2.34061        0.271353        0.236218 
        2.35635        0.266058        0.232463 
        2.37203        0.262787        0.228804 
        2.38768        0.258389        0.225232 
        2.40339        0.255403        0.221724 
        2.41914        0.251669        0.218283 
        2.43483        0.247648        0.214928 
         2.4505        0.242432         0.21165 
        2.46622         0.23885        0.208429 
        2.48195        0.236445        0.205275 
        2.49759        0.233633        0.202204 
        2.51328        0.229606        0.199189 
        2.52906        0.226975        0.196216 
        2.54479         0.22242        0.193316 
        2.56049        0.218344         0.19048 
        2.57618        0.215499        0.187704 
        2.59189        0.213527         0.18498 
        2.60758        0.210954        0.182314 
        2.62325        0.206896        0.179704 
        2.63898        0.204437        0.177137 
        2.65468        0.200702        0.174626 
        2.67044        0.198705        0.172153 
        2.68618        0.195909        0.169734 
        2.70184        0.192962        0.167372 
        2.71755        0.189671        0.165049 
        2.73329        0.187803        0.162766 
        2.74897        0.185616        0.160535 
        2.76462        0.182744        0.158351 
        2.78034        0.180126        0.156199 
        2.79607        0.177589        0.154084 
        2.81179        0.176001        0.152012 
        2.82749        0.173103         0.14998 
        2.84321         0.17102        0.147984 
        2.85893         0.16912        0.146024 
        2.87462        0.166813        0.144104 
        2.89033        0.164408        0.142217 
        2.90605        0.162146        0.140362 
        2.92176        0.160519        0.138542 
        2.93747         0.15778        0.136754 
        2.95318        0.156485        0.134999 
        2.96891        0.154215        0.133273 
        2.98456        0.152256        0.131586 
        3.00023        0.150645        0.129925 
        3.01596        0.148717        0.128288 
        3.03164         0.14726        0.126685 
        3.04738        0.144588        0.125104 
         3.0631        0.143577        0.123551 
        3.07883        0.141379        0.122024 
        3.09456        0.139757        0.120524 
        3.11026        0.138057        0.119051 
        3.12596        0.136338        0.117603 
        3.14163        0.134831        0.116183 
        3.15734        0.133555        0.114783 
        3.17308        0.132371        0.113403 
        3.18879         0.13036         0.11205 
        3.20447        0.128302        0.110721 
         3.2202        0.127952        0.109409 
         3.2359        0.125879        0.108121 
        3.25157        0.124628        0.106858 
        3.26729        0.122828         0.10561 
        3.28304        0.122357         0.10438 
        3.29877        0.120477        0.103172 
        3.31446         0.11926        0.101985 
        3.33014        0.118283        0.100819 
        3.34585        0.117042       0.0996685 
        3.36158        0.115661       0.0985347 
        3.37727        0.114818       0.0974222 
        3.39294        0.113306       0.0963281 
        3.40867        0.111932       0.0952469 
        3.42439        0.110846       0.0941831 
        3.44008         0.10933       0.0931376 
        3.45578         0.10859       0.0921074 
        3.47153        0.107602       0.0910906 
        3.48724        0.106601        0.090091 
        3.50292        0.105305       0.0891089 
        3.51859        0.104018       0.0881419 
        3.53431        0.102912       0.0871864 
        3.55007        0.102333       0.0862429 
        3.56577        0.101172       0.0853171 
        3.58146        0.100413       0.0844054 
        3.59719       0.0997431        0.083505 
        3.61292       0.0987665       0.0826181 
        3.62859       0.0975833       0.0817476 
        3.64429       0.0965471        0.080888 
        3.66003       0.0957976       0.0800382 
        3.67578       0.0948257        0.079201 
        3.69146        0.093864        0.078379 
        3.70712       0.0934078       0.0775703 
        3.72284       0.0925251       0.0767701 
        3.73853       0.0915613       0.0759826 
        3.75422       0.0909543       0.0752059 
        3.76993       0.0897477       0.0744395 
        3.78564       0.0891209       0.0736842 
        3.80137       0.0883435       0.0729382 
        3.81707       0.0876167       0.0722041 
        3.83279       0.0870545       0.0714797 
        3.84853       0.0860503        0.070764 
        3.86424       0.0852925       0.0700597 
        3.87992       0.0844861        0.069366 
        3.89561       0.0838659       0.0686817 
        3.91134       0.0832696       0.0680053 
        3.92704       0.0824454       0.0673389 
        3.94273       0.0816448       0.0666822 
        3.95845       0.0811462        0.066033 
        3.97418       0.0805233       0.0653924 
        3.98988       0.0794406       0.0647612 
        4.00554       0.0791329       0.0641402 
        4.02125       0.0780878       0.0635255 
        4.03698       0.0770795       0.0629181 
        4.05268       0.0762047       0.0623199 
        4.06839       0.0753806       0.0617292 
         4.0841       0.0744357       0.0611464 
        4.09983       0.0736489       0.0605703 
        4.11555       0.0726314       0.0600019 
        4.13124       0.0718153       0.0594424 
        4.14693       0.0709395       0.0588897 
        4.16266       0.0700325       0.0583427 
        4.17839       0.0694954        0.057803 
        4.19408       0.0687282       0.0572715 
        4.20977       0.0681112       0.0567464 
        4.22551       0.0672937       0.0562267 
        4.24123       0.0665512       0.0557141 
        4.25691       0.0658569       0.0552094 
        4.27259       0.0653153       0.0547107 
        4.28831        0.064608       0.0542173 
        4.30404       0.0641629       0.0537295 
        4.31974       0.0637468       0.0532488 
        4.33543       0.0631831       0.0527743 
        4.35116       0.0627325       0.0523045 
        4.36688       0.0620346       0.0518406 
        4.38255       0.0615363       0.0513841 
        4.39825       0.0612207       0.0509322 
        4.41398       0.0609966       0.0504848 
         4.4297        0.060524       0.0500433 
        4.44541       0.0602203       0.0496072 
        4.46111       0.0599299       0.0491767 
        4.47683       0.0595533       0.0487509 
        4.49251       0.0591125       0.0483312 
        4.50819       0.0588633       0.0479165 
         4.5239       0.0585517       0.0475061 
        4.53962       0.0583034       0.0471001 
        4.55535       0.0581337       0.0466986 
        4.57106       0.0580387       0.0463024 
        4.58678       0.0575958       0.0459108 
         4.6025       0.0577547       0.0455236 
        4.61821       0.0576158        0.045141 
        4.63391       0.0575041       0.0447633 
         4.6496       0.0572757       0.0443901 
        4.66532       0.0573411       0.0440206 
        4.68103       0.0572096       0.0436555 
        4.69673       0.0571016       0.0432949 
        4.71241       0.0572379       0.0429388 
        4.72811       0.0571916       0.0425861 
        4.74384       0.0572243        0.042237 
        4.75955       0.0573865       0.0418923 
        4.77525       0.0575157       0.0415517 
        4.79096       0.0575434       0.0412145 
        4.80669       0.0574614       0.0408809 
         4.8224        0.057789       0.0405513 
        4.83809        0.057972       0.0402258 
        4.85379       0.0580378       0.0399037 
         4.8695       0.0583096       0.0395849 
        4.88521       0.0584705       0.0392697 
        4.90093       0.0588354       0.0389579 
        4.91663       0.0590784       0.0386498 
        4.93234       0.0592089       0.0383448 
        4.94807       0.0595159       0.0380428 
        4.96377       0.0600325       0.0377447 
        4.97943       0.0604502       0.0374504 
        4.99514       0.0606158       0.0371585 
        5.01086       0.0610862       0.0368696 
        5.02654       0.0613581       0.0365844 
        5.04227       0.0618498       0.0363015 
          5.058       0.0624412       0.0360214 
        5.07371       0.0629335       0.0357449 
        5.08942       0.0631598       0.0354712 
        5.10513       0.0639994       0.0352004 
        5.12084       0.0646249       0.0349323 
        5.13656       0.0649794       0.0346671 
        5.15225       0.0658682       0.0344051 
        5.16796       0.0664041       0.0341454 
        5.18369       0.0669858       0.0338881 
         5.1994       0.0677856        0.033634 
        5.21509        0.068445       0.0333828 
        5.23079       0.0691697       0.0331338 
        5.24649       0.0699465       0.0328876 
        5.26217       0.0707488        0.032644 
        5.27788       0.0717064       0.0324026 
        5.29359       0.0726448       0.0321637 
        5.30933       0.0732402       0.0319268 
        5.32504       0.0742207       0.0316926 
        5.34073        0.075252       0.0314612 
        5.35646       0.0762363       0.0312315 
        5.37218        0.077544       0.0310042 
        5.38789       0.0784866       0.0307795 
        5.40357       0.0791925       0.0305572 
        5.41929       0.0807081       0.0303367 
        5.43502       0.0815612       0.0301184 
         5.4507       0.0828587       0.0299027 
        5.46639       0.0842839       0.0296892 
        5.48212       0.0851374       0.0294772 
        5.49786       0.0865532       0.0292671 
        5.51353       0.0883912       0.0290601 
        5.52921       0.0889499       0.0288548 
        5.54495       0.0905609        0.028651 
        5.56066       0.0918947       0.0284494 
        5.57637       0.0935778       0.0282497 
        5.59207       0.0952682       0.0280522 
        5.60778        0.096856       0.0278565 
        5.62346       0.0983495       0.0276629 
        5.63916        0.100238        0.027471 
        5.65487        0.101805       0.0272808 
         5.6706        0.103049       0.0270923 
        5.68633        0.105171       0.0269054 
        5.70203          0.1063       0.0267207 
        5.71773        0.109256       0.0265378 
        5.73344        0.110769       0.0263565 
        5.74916        0.113099       0.0261768 
        5.76486        0.114725       0.0259989 
        5.78054        0.116599        0.025823 
        5.79626         0.11821       0.0256483 
          5.812        0.121163        0.025475 
         5.8277        0.122737       0.0253038 
        5.84339        0.124902       0.0251342 
        5.85911        0.127939       0.0249659 
        5.87484        0.129444       0.0247991 
        5.89053         0.13266       0.0246342 
        5.90623        0.134984       0.0244707 
        5.92195         0.13757       0.0243085 
        5.93767        0.140335       0.0241478 
        5.95336        0.142245       0.0239888 
        5.96905        0.145523       0.0238313 
        5.98476        0.148024       0.0236751 
        6.00048        0.150316       0.0235202 
        6.01617        0.153089       0.0233669 
        6.03185        0.156775       0.0232151 
        6.04756        0.159431       0.0230644 
        6.06331        0.162098       0.0229146 
        6.07903        0.166061       0.0227665 
        6.09473        0.169281       0.0226199 
        6.11044        0.172125       0.0224745 
        6.12616        0.174756       0.0223303 
        6.14186        0.178547       0.0221876 
        6.15755        0.181372       0.0220461 
        6.17326        0.185674       0.0219058 
        6.18898        0.187727       0.0217666 
        6.20467        0.192989       0.0216289 
        6.22036        0.195987       0.0214924 
         6.2361         0.19872       0.0213567 
         6.2518        0.203372       0.0212225 
        6.26748        0.206207       0.0210896 
        6.28319        0.210028       0.0209576 
        6.29893        0.214647       0.0208266 
        6.31463        0.218844       0.0206969 
        6.33033        0.223443       0.0205684 
        6.34604        0.226973       0.0204409 
        6.36177        0.230609       0.0203143 
        6.37747        0.235593       0.0201891 
