# k  (h/Mpc)    Pcb(k)  (Mpc/h)^3    Pcb_linear(k) (Mpc/h)^3   ShotnoiseSubtracted = true
      0.0200456         18986.4         19439.2 
      0.0350414         13492.7         14096.4 
      0.0492313         9985.95         10175.5 
      0.0637834         8719.22         8571.92 
      0.0800726          6976.7         6916.65 
       0.096163         4824.33         4989.43 
       0.111083         3843.28         3947.76 
       0.126058         3568.92         3538.67 
       0.142273         3118.86         3047.47 
       0.158546         2700.33         2401.07 
        0.17375         2150.89         2005.11 
       0.188953         2105.13         1826.59 
       0.204907         1988.62         1639.81 
       0.220756         1719.68         1390.42 
        0.23588         1529.83         1201.14 
         0.2514          1331.5         1092.67 
       0.267535         1330.12         998.903 
       0.283568         1207.67         884.949 
       0.299022          1139.6         786.019 
       0.314451         1085.83         717.995 
       0.330372         998.759          662.59 
       0.346141         943.707         604.321 
       0.361624         907.823         549.148 
       0.377134         844.067         504.996 
       0.392932         812.069         468.683 
       0.408854         792.234         433.731 
       0.424564          736.85         400.369 
       0.440253         724.066         371.251 
       0.455999         691.406         346.474 
       0.471626         663.206         324.002 
        0.48727         637.171         302.609 
       0.502856         619.893         283.162 
       0.518488         612.811         265.865 
       0.534347         573.411         249.957 
       0.550082         554.876         235.224 
       0.565732         554.308         221.625 
       0.581496         522.065          209.14 
       0.597222         512.818         197.748 
       0.612804         500.609         187.259 
       0.628434         484.789         177.455 
       0.644267         471.708         168.244 
       0.660051         457.133         159.762 
       0.675724         452.872         151.938 
       0.691403         437.879         144.634 
       0.707174         423.171         137.769 
       0.722871         418.166         131.378 
        0.73838         411.387         125.463 
       0.754018         399.938         119.868 
       0.769845         390.514         114.556 
        0.78569         386.399         109.562 
       0.801365         375.227         104.918 
       0.817031         363.433         100.549 
       0.832809         360.878         96.4045 
       0.848511         352.019         92.5153 
       0.864097         343.386         88.8704 
       0.879701         338.817         85.4212 
       0.895507         334.109         82.1167 
       0.911279         323.177         78.9962 
        0.92691         319.856         76.0659 
       0.942635         312.524           73.27 
       0.958396         305.827         70.6104 
       0.974128         300.526         68.0893 
       0.989692         297.046         65.7177 
        1.00528         291.035         63.4569 
        1.02113         288.508         61.2682 
        1.03692         280.484         59.1919 
        1.05264          277.56         57.2225 
        1.06832         270.953         55.3468 
        1.08405         266.268          53.551 
        1.09979         261.145         51.8347 
        1.11537         256.947         50.2115 
        1.13105         251.389         48.6489 
        1.14679         248.688         47.1475 
        1.16256         243.618         45.7071 
        1.17828         240.635         44.3324 
        1.19395         235.403         43.0194 
         1.2097         234.558         41.7535 
        1.22537         228.501         40.5452 
          1.241         227.317         39.3889 
        1.25666         222.103         38.2753 
        1.27241         219.296            37.2 
        1.28819         216.068         36.1647 
        1.30392         210.844         35.1721 
        1.31957         211.468         34.2217 
        1.33529         206.507         33.3032 
        1.35108         201.864         32.4152 
        1.36674         200.681         31.5663 
         1.3824         198.334         30.7488 
        1.39811         195.943         29.9579 
        1.41389         192.108         29.1921 
        1.42964         189.724         28.4546 
        1.44531         186.842         27.7464 
        1.46101         184.603         27.0611 
        1.47667         180.817         26.4012 
        1.49229          178.99         25.7653 
        1.50793         175.599         25.1498 
        1.52367         174.048         24.5507 
        1.53953         171.088         23.9672 
        1.55526         167.626         23.4076 
        1.57092         166.634         22.8683 
        1.58662         164.277         22.3449 
        1.60235         161.379          21.837 
        1.61809          160.34         21.3448 
        1.63369          157.02         20.8722 
        1.64941         153.874         20.4108 
        1.66519         153.193         19.9617 
        1.68085         151.487         19.5295 
        1.69652         148.902         19.1101 
        1.71228         146.068         18.7007 
        1.72806         144.406         18.3031 
        1.74368         143.158         17.9211 
        1.75933         140.352         17.5494 
        1.77505         138.923         17.1866 
        1.79081         137.872         16.8335 
         1.8065         135.984         16.4919 
        1.82218          133.37         16.1602 
        1.83797         132.344         15.8354 
        1.85367         130.625         15.5214 
        1.86928         128.309         15.2179 
        1.88497         126.282         14.9209 
        1.90073         125.236         14.6309 
        1.91647         123.564         14.3488 
        1.93218         121.887         14.0749 
        1.94787         120.347         13.8086 
        1.96363         118.401         13.5481 
        1.97935          116.61          13.295 
        1.99499         115.091         13.0498 
        2.01064         113.723         12.8106 
         2.0264         112.176         12.5758 
        2.04216         110.933         12.3471 
        2.05781         109.799         12.1256 
        2.07353         108.761         11.9088 
        2.08928          106.31         11.6969 
        2.10499         105.058         11.4907 
        2.12065         103.795         11.2901 
        2.13633         103.159         11.0943 
        2.15211         101.058         10.9018 
        2.16785         99.5427         10.7145 
        2.18349         98.6004         10.5327 
        2.19916         97.5815         10.3549 
        2.21489         96.3665         10.1806 
        2.23063         94.8615         10.0102 
         2.2463         93.6859         9.84455 
        2.26194          92.961         9.68307 
        2.27765         91.6353         9.52442 
        2.29341         90.6659         9.36893 
        2.30914         89.4192         9.21726 
        2.32486         88.5921         9.06907 
        2.34061         87.3194         8.92391 
        2.35635         85.8722         8.78208 
        2.37203         84.8363         8.64385 
        2.38768         84.0757         8.50891 
        2.40339         83.1423         8.37638 
        2.41914         81.8804         8.24638 
        2.43483         80.9496         8.11963 
         2.4505         79.9596         7.99578 
        2.46622         78.7248          7.8741 
        2.48195         77.9212         7.75496 
        2.49759         77.0659         7.63895 
        2.51328         76.4782         7.52503 
        2.52906         75.1153         7.41272 
        2.54479         74.3943         7.30315 
        2.56049         73.5198         7.19602 
        2.57618         72.7919         7.09114 
        2.59189         71.8535         6.98822 
        2.60758         71.2243         6.88752 
        2.62325         70.2028         6.78893 
        2.63898         69.3827         6.69195 
        2.65468         68.5003         6.59708 
        2.67044         67.6911         6.50366 
        2.68618         66.9745         6.41227 
        2.70184         66.6051         6.32302 
        2.71755         65.7311         6.23526 
        2.73329         64.9202         6.14905 
        2.74897         64.2037         6.06475 
        2.76462         63.3854         5.98224 
        2.78034         62.6877         5.90093 
        2.79607         61.7084         5.82105 
        2.81179         61.2719         5.74276 
        2.82749         60.4547         5.66601 
        2.84321         59.9277         5.59058 
        2.85893         59.1968         5.51656 
        2.87462         58.4211         5.44402 
        2.89033         57.8096         5.37272 
        2.90605         57.0511         5.30265 
        2.92176         56.7921         5.23387 
        2.93747         56.2199         5.16636 
        2.95318         55.4825         5.10003 
        2.96891          54.853         5.03484 
        2.98456         54.2772         4.97109 
        3.00023         53.5023         4.90836 
        3.01596         53.1141         4.84652 
        3.03164         52.3677         4.78594 
        3.04738         51.7856         4.72622 
         3.0631         51.3277         4.66754 
        3.07883         50.7042         4.60987 
        3.09456         50.3609         4.55319 
        3.11026         49.5703         4.49755 
        3.12596         49.1521         4.44286 
        3.14163         48.5654         4.38921 
        3.15734         48.2231         4.33633 
        3.17308         47.6421         4.28419 
        3.18879         47.2134         4.23306 
        3.20447         46.3612         4.18285 
         3.2202         46.2799          4.1333 
         3.2359         45.6951         4.08465 
        3.25157         45.2311          4.0369 
        3.26729         44.8062         3.98978 
        3.28304         44.2878         3.94332 
        3.29877         43.8766         3.89766 
        3.31446         43.2996         3.85284 
        3.33014         43.0078         3.80876 
        3.34585         42.7806         3.76531 
        3.36158         42.2504         3.72248 
        3.37727         41.7027         3.68045 
        3.39294         41.3309         3.63912 
        3.40867         40.8578         3.59827 
        3.42439          40.389         3.55808 
        3.44008         40.0365         3.51859 
        3.45578         39.5615         3.47966 
        3.47153         39.1419         3.44125 
        3.48724         38.9252         3.40349 
        3.50292         38.5737         3.36639 
        3.51859         38.0682         3.32986 
        3.53431         37.6233         3.29376 
        3.55007         37.2385         3.25811 
        3.56577         36.9523         3.22314 
        3.58146         36.5561          3.1887 
        3.59719         36.1722         3.15468 
        3.61292         35.8637         3.12118 
        3.62859         35.6088         3.08829 
        3.64429         35.2536         3.05581 
        3.66003         34.8634         3.02371 
        3.67578         34.4326         2.99208 
        3.69146         34.1429         2.96103 
        3.70712         33.8554         2.93048 
        3.72284         33.4898         2.90025 
        3.73853         33.2146          2.8705 
        3.75422          32.877         2.84116 
        3.76993         32.6572          2.8122 
        3.78564         32.3176         2.78367 
        3.80137         31.9119         2.75548 
        3.81707         31.6215         2.72775 
        3.83279          31.411         2.70038 
        3.84853         31.1297         2.67335 
        3.86424         30.6592         2.64674 
        3.87992         30.4983         2.62053 
        3.89561         30.1944         2.59468 
        3.91134          29.883         2.56913 
        3.92704         29.6528         2.54395 
        3.94273         29.3313         2.51914 
        3.95845         29.1027         2.49462 
        3.97418         28.8604         2.47042 
        3.98988         28.5437         2.44657 
        4.00554         28.2205         2.42311 
        4.02125         28.0489         2.39989 
        4.03698          27.803         2.37694 
        4.05268         27.6128         2.35434 
        4.06839         27.2745         2.33203 
         4.0841         27.0751         2.31001 
        4.09983         26.7454         2.28825 
        4.11555         26.5517         2.26677 
        4.13124         26.3218         2.24564 
        4.14693         26.0572         2.22475 
        4.16266         25.8519         2.20409 
        4.17839         25.6088          2.1837 
        4.19408         25.3624         2.16362 
        4.20977         25.1689         2.14379 
        4.22551         24.9785         2.12415 
        4.24123         24.7177         2.10479 
        4.25691         24.4948         2.08572 
        4.27259         24.3366         2.06688 
        4.28831         24.0419         2.04824 
        4.30404         23.8905         2.02981 
        4.31974         23.6709         2.01165 
        4.33543         23.4518         1.99373 
        4.35116         23.3319         1.97598 
        4.36688         23.0861         1.95845 
        4.38255         22.8179         1.94121 
        4.39825         22.6448         1.92413 
        4.41398         22.4119         1.90723 
         4.4297         22.2609         1.89055 
        4.44541         22.0979         1.87408 
        4.46111         21.9174         1.85781 
        4.47683         21.7318         1.84173 
        4.49251         21.5414         1.82587 
        4.50819         21.3276         1.81021 
         4.5239         21.1897          1.7947 
        4.53962         20.9704         1.77936 
        4.55535         20.8348          1.7642 
        4.57106         20.6392         1.74923 
        4.58678          20.492         1.73443 
         4.6025         20.3332         1.71981 
        4.61821         20.1937         1.70535 
        4.63391         19.9258         1.69108 
         4.6496         19.8071         1.67698 
        4.66532         19.6214         1.66302 
        4.68103         19.4683         1.64923 
        4.69673         19.2977         1.63561 
        4.71241         19.1586         1.62216 
        4.72811         18.9903         1.60883 
        4.74384         18.8484         1.59564 
        4.75955         18.7049         1.58262 
        4.77525         18.5293         1.56975 
        4.79096         18.4124         1.55701 
        4.80669         18.2503         1.54441 
         4.8224         18.0551         1.53196 
        4.83809         17.9335         1.51967 
        4.85379         17.7591          1.5075 
         4.8695         17.6602         1.49545 
        4.88521         17.5049         1.48354 
        4.90093         17.3731         1.47177 
        4.91663         17.2283         1.46013 
        4.93234         17.0795          1.4486 
        4.94807         16.9454         1.43719 
        4.96377          16.836         1.42593 
        4.97943           16.71         1.41481 
        4.99514         16.5834         1.40379 
        5.01086         16.4316         1.39287 
        5.02654          16.317          1.3821 
        5.04227         16.1772         1.37141 
          5.058         16.0614         1.36083 
        5.07371         15.9582         1.35038 
        5.08942         15.8276         1.34004 
        5.10513         15.7132         1.32981 
        5.12084          15.585         1.31969 
        5.13656         15.4144         1.30967 
        5.15225         15.3534         1.29977 
        5.16796         15.2243         1.28996 
        5.18369         15.1184         1.28024 
         5.1994         15.0031         1.27064 
        5.21509         14.8886         1.26115 
        5.23079         14.7811         1.25174 
        5.24649         14.6684         1.24244 
        5.26217         14.5335         1.23324 
        5.27788         14.4175         1.22412 
        5.29359         14.3092         1.21509 
        5.30933         14.2008         1.20614 
        5.32504         14.1043          1.1973 
        5.34073         14.0144         1.18855 
        5.35646         13.9257         1.17988 
        5.37218         13.7798         1.17129 
        5.38789         13.6856          1.1628 
        5.40357         13.6077          1.1544 
        5.41929         13.4965         1.14607 
        5.43502         13.3849         1.13782 
         5.4507         13.3054         1.12968 
        5.46639         13.1889         1.12161 
        5.48212         13.0783          1.1136 
        5.49786         13.0287         1.10566 
        5.51353         12.8965         1.09784 
        5.52921         12.8207         1.09009 
        5.54495         12.7364         1.08239 
        5.56066         12.6441         1.07477 
        5.57637         12.5367         1.06723 
        5.59207         12.4526         1.05977 
        5.60778         12.3504         1.05237 
        5.62346         12.2766         1.04506 
        5.63916          12.163         1.03781 
        5.65487         12.1079         1.03063 
         5.6706         11.9974          1.0235 
        5.68633         11.8939         1.01644 
        5.70203         11.8556         1.00946 
        5.71773         11.7484         1.00255 
        5.73344         11.6755        0.995705 
        5.74916         11.5983        0.988915 
        5.76486         11.4974        0.982197 
        5.78054         11.4252        0.975552 
        5.79626         11.3119         0.96895 
          5.812          11.258        0.962404 
         5.8277         11.1691        0.955937 
        5.84339         11.0908         0.94953 
        5.85911         11.0065         0.94317 
        5.87484         10.9305         0.93687 
        5.89053         10.8711         0.93064 
        5.90623         10.7751        0.924464 
        5.92195         10.7008        0.918334 
        5.93767          10.617        0.912263 
        5.95336         10.5756        0.906258 
        5.96905         10.4868        0.900309 
        5.98476         10.4331        0.894405 
        6.00048         10.3349        0.888553 
        6.01617         10.2787        0.882761 
        6.03185         10.1956        0.877028 
        6.04756         10.1244        0.871333 
        6.06331         10.0571        0.865677 
        6.07903         9.99817        0.860083 
        6.09473         9.92464        0.854543 
        6.11044         9.87214        0.849048 
        6.12616         9.79638        0.843603 
        6.14186         9.71442        0.838211 
        6.15755         9.65407        0.832866 
        6.17326         9.57824        0.827565 
        6.18898         9.54045        0.822307 
        6.20467         9.45603        0.817105 
        6.22036         9.39613        0.811948 
         6.2361          9.3449        0.806822 
         6.2518         9.26149        0.801749 
        6.26748         9.20997        0.796732 
        6.28319         9.15589        0.791743 
        6.29893         9.10454        0.786793 
        6.31463         9.02233        0.781894 
        6.33033          8.9643        0.777039 
        6.34604         8.91141        0.772222 
        6.36177         8.85062        0.767441 
        6.37747          8.8026         0.76271 
