# k  (h/Mpc)    Pcb(k)  (Mpc/h)^3    Pcb_linear(k) (Mpc/h)^3   ShotnoiseSubtracted = true
      0.0200456         988.629         1003.66 
      0.0350414         724.172         727.811 
      0.0492313         527.351         525.372 
      0.0637834         445.907         442.576 
      0.0800726         358.896         357.113 
       0.096163          256.93         257.609 
       0.111083         202.595         203.827 
       0.126058         183.394         182.704 
       0.142273         158.478         157.344 
       0.158546         125.741         123.969 
        0.17375         103.523         103.526 
       0.188953         95.3484         94.3082 
       0.204907         87.6907         84.6646 
       0.220756         73.4447         71.7885 
        0.23588         63.5894         62.0158 
         0.2514          57.224         56.4156 
       0.267535         52.6308         51.5743 
       0.283568         46.9734         45.6907 
       0.299022         42.1822         40.5829 
       0.314451         37.8052         37.0707 
       0.330372         35.2184         34.2101 
       0.346141         32.1287         31.2017 
       0.361624         29.5059          28.353 
       0.377134         27.4966         26.0734 
       0.392932         24.5948         24.1985 
       0.408854         23.5624         22.3939 
       0.424564         21.8071         20.6714 
       0.440253         20.1528          19.168 
       0.455999          18.998         17.8888 
       0.471626         17.8845         16.7285 
        0.48727          16.729          15.624 
       0.502856         15.5976         14.6199 
       0.518488         14.9043         13.7269 
       0.534347         14.2233         12.9055 
       0.550082         13.0289         12.1448 
       0.565732         12.0599         11.4427 
       0.581496         11.7926         10.7981 
       0.597222         11.2933         10.2099 
       0.612804         10.5378         9.66834 
       0.628434         10.1574         9.16216 
       0.644267         9.69924         8.68657 
       0.660051         9.15796         8.24866 
       0.675724         8.71517          7.8447 
       0.691403         8.41189         7.46756 
       0.707174         7.98892         7.11313 
       0.722871          7.6531         6.78318 
        0.73838         7.36138         6.47776 
       0.754018         7.12082         6.18892 
       0.769845         6.75484         5.91462 
        0.78569          6.5318         5.65681 
       0.801365         6.25141         5.41702 
       0.817031         6.04479         5.19145 
       0.832809          5.8361         4.97745 
       0.848511         5.51834         4.77665 
       0.864097         5.32322         4.58846 
       0.879701           5.148         4.41037 
       0.895507         4.93691         4.23976 
       0.911279         4.85967         4.07865 
        0.92691         4.67478         3.92735 
       0.942635           4.477         3.78299 
       0.958396         4.32023         3.64568 
       0.974128         4.20077         3.51551 
       0.989692         4.11841         3.39306 
        1.00528         3.93932         3.27634 
        1.02113         3.79552         3.16333 
        1.03692          3.7307         3.05613 
        1.05264         3.59858         2.95445 
        1.06832         3.51348          2.8576 
        1.08405         3.35079         2.76489 
        1.09979          3.2834         2.67627 
        1.11537         3.20257         2.59247 
        1.13105         3.12161         2.51179 
        1.14679         3.03543         2.43427 
        1.16256         2.93838          2.3599 
        1.17828         2.87345         2.28892 
        1.19395         2.79767         2.22113 
         1.2097           2.679         2.15577 
        1.22537         2.62708         2.09339 
          1.241         2.57366         2.03369 
        1.25666         2.55064         1.97619 
        1.27241         2.43478         1.92067 
        1.28819         2.38238         1.86721 
        1.30392         2.34163         1.81597 
        1.31957         2.28701          1.7669 
        1.33529         2.21793         1.71948 
        1.35108         2.17078         1.67363 
        1.36674         2.10994          1.6298 
         1.3824         2.05803         1.58759 
        1.39811         2.01341         1.54675 
        1.41389           1.981         1.50721 
        1.42964           1.937         1.46914 
        1.44531         1.89357         1.43257 
        1.46101         1.85809         1.39719 
        1.47667         1.79178         1.36312 
        1.49229         1.78012         1.33028 
        1.50793         1.73319         1.29851 
        1.52367         1.70738         1.26757 
        1.53953         1.65206         1.23745 
        1.55526         1.62248         1.20855 
        1.57092         1.59268         1.18071 
        1.58662         1.56649         1.15369 
        1.60235         1.53009         1.12746 
        1.61809         1.49763         1.10205 
        1.63369         1.48374         1.07765 
        1.64941         1.44305         1.05383 
        1.66519         1.42052         1.03064 
        1.68085         1.37896         1.00832 
        1.69652         1.35879        0.986669 
        1.71228         1.34187        0.965532 
        1.72806         1.30531        0.945004 
        1.74368         1.29088        0.925284 
        1.75933         1.26044        0.906092 
        1.77505         1.24195         0.88736 
        1.79081          1.2204        0.869129 
         1.8065         1.19201        0.851492 
        1.82218         1.17942        0.834366 
        1.83797         1.15954        0.817597 
        1.85367         1.14843        0.801385 
        1.86928         1.12538        0.785715 
        1.88497         1.09812        0.770382 
        1.90073         1.07634        0.755405 
        1.91647         1.07003        0.740843 
        1.93218         1.04785        0.726699 
        1.94787         1.02708        0.712948 
        1.96363         1.01046        0.699502 
        1.97935        0.992811        0.686433 
        1.99499        0.976751        0.673775 
        2.01064         0.96208        0.661421 
         2.0264        0.951528        0.649301 
        2.04216         0.93489        0.637494 
        2.05781        0.919266        0.626057 
        2.07353        0.906493        0.614863 
        2.08928        0.888057         0.60392 
        2.10499         0.87704        0.593275 
        2.12065        0.869945         0.58292 
        2.13633         0.85372        0.572806 
        2.15211        0.837487        0.562869 
        2.16785        0.823965        0.553197 
        2.18349        0.814872        0.543815 
        2.19916        0.802924        0.534632 
        2.21489          0.7887        0.525633 
        2.23063        0.777342        0.516837 
         2.2463        0.773512        0.508283 
        2.26194        0.751357        0.499946 
        2.27765         0.74411        0.491754 
        2.29341        0.737842        0.483726 
        2.30914        0.730948        0.475896 
        2.32486        0.717393        0.468244 
        2.34061        0.706619        0.460749 
        2.35635        0.693741        0.453427 
        2.37203        0.687183         0.44629 
        2.38768        0.678936        0.439322 
        2.40339        0.670915         0.43248 
        2.41914        0.661842        0.425768 
        2.43483        0.652089        0.419224 
         2.4505        0.642433        0.412829 
        2.46622        0.634454        0.406547 
        2.48195        0.631022        0.400396 
        2.49759        0.620257        0.394406 
        2.51328        0.609103        0.388524 
        2.52906        0.603708        0.382726 
        2.54479        0.596195        0.377068 
        2.56049        0.586069        0.371537 
        2.57618        0.581747        0.366122 
        2.59189        0.574566        0.360808 
        2.60758        0.568638        0.355609 
        2.62325        0.560099        0.350519 
        2.63898        0.555292        0.345511 
        2.65468        0.546776        0.340613 
        2.67044        0.539839         0.33579 
        2.68618         0.53374        0.331072 
        2.70184        0.527545        0.326463 
        2.71755        0.520539        0.321932 
        2.73329        0.514984        0.317481 
        2.74897         0.51015        0.313129 
        2.76462         0.50327        0.308868 
        2.78034        0.497778         0.30467 
        2.79607        0.492322        0.300546 
        2.81179        0.485808        0.296504 
        2.82749        0.481569        0.292541 
        2.84321        0.476779        0.288647 
        2.85893        0.470363        0.284825 
        2.87462        0.465331        0.281079 
        2.89033        0.459523        0.277398 
        2.90605        0.455994         0.27378 
        2.92176        0.449851        0.270229 
        2.93747        0.445469        0.266744 
        2.95318         0.44041        0.263319 
        2.96891        0.436392        0.259953 
        2.98456        0.432138        0.256662 
        3.00023        0.428202        0.253423 
        3.01596        0.422243         0.25023 
        3.03164        0.418633        0.247102 
        3.04738         0.41212        0.244019 
         3.0631        0.410321         0.24099 
        3.07883        0.404421        0.238012 
        3.09456        0.400326        0.235085 
        3.11026        0.397451        0.232213 
        3.12596        0.391974        0.229389 
        3.14163        0.389443        0.226619 
        3.15734        0.386744        0.223888 
        3.17308        0.381619        0.221197 
        3.18879        0.378754        0.218557 
        3.20447        0.373363        0.215964 
         3.2202        0.371842        0.213406 
         3.2359        0.367216        0.210894 
        3.25157        0.363824        0.208429 
        3.26729        0.361324        0.205996 
        3.28304        0.357908        0.203597 
        3.29877        0.353582         0.20124 
        3.31446        0.351101        0.198925 
        3.33014        0.347626         0.19665 
        3.34585        0.346337        0.194406 
        3.36158        0.342098        0.192195 
        3.37727        0.339291        0.190025 
        3.39294        0.336193        0.187891 
        3.40867        0.332796        0.185782 
        3.42439        0.330775        0.183707 
        3.44008        0.327739        0.181668 
        3.45578        0.326018        0.179658 
        3.47153        0.322104        0.177675 
        3.48724        0.320985        0.175725 
        3.50292        0.317929         0.17381 
        3.51859        0.313899        0.171923 
        3.53431        0.311856         0.17006 
        3.55007         0.31035        0.168219 
        3.56577        0.306502        0.166414 
        3.58146        0.304017        0.164635 
        3.59719        0.302026        0.162879 
        3.61292        0.300367        0.161149 
        3.62859         0.29622        0.159451 
        3.64429        0.294871        0.157774 
        3.66003        0.292521        0.156117 
        3.67578        0.290187        0.154484 
        3.69146        0.287894        0.152881 
        3.70712        0.286423        0.151303 
        3.72284        0.283744        0.149742 
        3.73853        0.282428        0.148206 
        3.75422        0.279258        0.146691 
        3.76993        0.277983        0.145197 
        3.78564        0.275548        0.143723 
        3.80137        0.273297        0.142268 
        3.81707        0.272067        0.140836 
        3.83279         0.26925        0.139423 
        3.84853        0.267358        0.138027 
        3.86424        0.265263        0.136653 
        3.87992        0.264022          0.1353 
        3.89561        0.261277        0.133966 
        3.91134        0.260511        0.132646 
        3.92704        0.257543        0.131347 
        3.94273        0.255389        0.130066 
        3.95845        0.253875        0.128799 
        3.97418         0.25213         0.12755 
        3.98988        0.249915        0.126319 
        4.00554         0.24803        0.125107 
        4.02125        0.246216        0.123908 
        4.03698        0.243532        0.122724 
        4.05268        0.242179        0.121557 
        4.06839        0.239018        0.120405 
         4.0841        0.236363        0.119268 
        4.09983        0.234069        0.118144 
        4.11555        0.231885        0.117036 
        4.13124        0.229037        0.115944 
        4.14693        0.227744        0.114866 
        4.16266        0.225376        0.113799 
        4.17839         0.22368        0.112747 
        4.19408        0.221521         0.11171 
        4.20977        0.220188        0.110686 
        4.22551         0.21806        0.109672 
        4.24123        0.216247        0.108672 
        4.25691        0.214427        0.107688 
        4.27259        0.212749        0.106715 
        4.28831        0.211256        0.105752 
        4.30404        0.209012        0.104801 
        4.31974        0.208598        0.103863 
        4.33543        0.206437        0.102938 
        4.35116        0.204564        0.102021 
        4.36688        0.203831        0.101117 
        4.38255        0.201971        0.100226 
        4.39825        0.201421       0.0993447 
        4.41398        0.199561       0.0984721 
         4.4297        0.198595       0.0976109 
        4.44541        0.197712       0.0967603 
        4.46111        0.196581       0.0959205 
        4.47683        0.195821       0.0950902 
        4.49251         0.19417       0.0942714 
        4.50819        0.193104       0.0934626 
         4.5239        0.192882       0.0926621 
        4.53962        0.191828       0.0918701 
        4.55535        0.190617        0.091087 
        4.57106        0.189999       0.0903142 
        4.58678        0.189406       0.0895503 
         4.6025        0.188607       0.0887951 
        4.61821        0.188052       0.0880488 
        4.63391        0.187378       0.0873121 
         4.6496        0.186919       0.0865842 
        4.66532         0.18644       0.0858635 
        4.68103        0.186226       0.0851513 
        4.69673        0.185494        0.084448 
        4.71241        0.185278       0.0837534 
        4.72811        0.184446       0.0830655 
        4.74384        0.184553       0.0823845 
        4.75955         0.18443       0.0817122 
        4.77525         0.18434       0.0810478 
        4.79096        0.183506       0.0803901 
        4.80669        0.183745       0.0797393 
         4.8224        0.183394       0.0790966 
        4.83809        0.183359       0.0784617 
        4.85379        0.183486       0.0778334 
         4.8695        0.183229       0.0772115 
        4.88521        0.183025       0.0765967 
        4.90093        0.183732       0.0759886 
        4.91663        0.183715       0.0753877 
        4.93234        0.183295       0.0747926 
        4.94807         0.18396       0.0742037 
        4.96377        0.184634       0.0736222 
        4.97943        0.185076       0.0730482 
        4.99514        0.184855       0.0724789 
        5.01086        0.185778       0.0719152 
        5.02654        0.185753        0.071359 
        5.04227        0.186121       0.0708072 
          5.058        0.186712       0.0702609 
        5.07371        0.187844       0.0697215 
        5.08942        0.188359       0.0691877 
        5.10513        0.188721       0.0686595 
        5.12084        0.189277       0.0681366 
        5.13656        0.189917       0.0676192 
        5.15225        0.190753       0.0671082 
        5.16796        0.192025       0.0666016 
        5.18369        0.191821       0.0660998 
         5.1994        0.193284       0.0656042 
        5.21509        0.194031       0.0651141 
        5.23079        0.195461       0.0646285 
        5.24649        0.196738       0.0641482 
        5.26217        0.197082       0.0636732 
        5.27788        0.198233       0.0632023 
        5.29359        0.199317       0.0627362 
        5.30933        0.201273       0.0622741 
        5.32504        0.201819       0.0618175 
        5.34073        0.203425       0.0613659 
        5.35646        0.203637       0.0609181 
        5.37218        0.205177       0.0604746 
        5.38789        0.206494       0.0600363 
        5.40357        0.208614       0.0596028 
        5.41929        0.209773       0.0591727 
        5.43502        0.210235       0.0587468 
         5.4507        0.212761       0.0583262 
        5.46639        0.213451       0.0579096 
        5.48212         0.21571       0.0574962 
        5.49786        0.217458       0.0570863 
        5.51353        0.219438       0.0566825 
        5.52921        0.220486       0.0562822 
        5.54495        0.222181       0.0558847 
        5.56066        0.224352       0.0554914 
        5.57637        0.226506        0.055102 
        5.59207        0.227994       0.0547166 
        5.60778        0.230265       0.0543349 
        5.62346          0.2323       0.0539573 
        5.63916        0.233698        0.053583 
        5.65487        0.235416       0.0532121 
         5.6706        0.237606       0.0528443 
        5.68633        0.240254       0.0524798 
        5.70203        0.242423       0.0521196 
        5.71773        0.244464       0.0517628 
        5.73344        0.245613       0.0514092 
        5.74916        0.249023       0.0510585 
        5.76486        0.250353       0.0507117 
        5.78054        0.252566       0.0503686 
        5.79626        0.254946       0.0500278 
          5.812        0.257322       0.0496898 
         5.8277        0.259515       0.0493559 
        5.84339        0.263172       0.0490251 
        5.85911        0.265151       0.0486967 
        5.87484        0.266108       0.0483714 
        5.89053        0.270158       0.0480498 
        5.90623        0.271856       0.0477309 
        5.92195        0.274409       0.0474144 
        5.93767        0.276447        0.047101 
        5.95336        0.279549       0.0467909 
        5.96905         0.28356       0.0464837 
        5.98476        0.283768       0.0461789 
        6.00048        0.288373       0.0458768 
        6.01617        0.289706       0.0455777 
        6.03185        0.291656       0.0452818 
        6.04756        0.295007       0.0449877 
        6.06331        0.296966       0.0446957 
        6.07903          0.2992       0.0444068 
        6.09473        0.303044       0.0441208 
        6.11044        0.305789       0.0438371 
        6.12616        0.307921        0.043556 
        6.14186        0.311795       0.0432776 
        6.15755        0.313873       0.0430016 
        6.17326        0.317512       0.0427279 
        6.18898        0.320017       0.0424564 
        6.20467        0.323092       0.0421878 
        6.22036        0.323599       0.0419216 
         6.2361        0.327718        0.041657 
         6.2518        0.331013        0.041395 
        6.26748        0.331211        0.041136 
        6.28319        0.335139       0.0408784 
        6.29893        0.338262       0.0406228 
        6.31463        0.342825       0.0403699 
        6.33033        0.343122       0.0401192 
        6.34604        0.347242       0.0398705 
        6.36177        0.349557       0.0396237 
        6.37747        0.352829       0.0393794 
