# k  (h/Mpc)    Pcb(k)  (Mpc/h)^3    Pcb_linear(k) (Mpc/h)^3   ShotnoiseSubtracted = true
      0.0200456         17389.3         17697.7 
      0.0350414         13209.6         12833.6 
      0.0492313         9108.95         9263.96 
      0.0637834         7439.27            7804 
      0.0800726         5928.96         6297.02 
       0.096163          4697.3         4542.45 
       0.111083         3801.17          3594.1 
       0.126058         3171.73         3221.65 
       0.142273         2790.42         2774.46 
       0.158546         2289.71         2185.97 
        0.17375         2020.32         1825.48 
       0.188953         1902.57         1662.95 
       0.204907         1641.12          1492.9 
       0.220756          1480.4         1265.86 
        0.23588         1317.86         1093.53 
         0.2514         1187.42         994.785 
       0.267535         1153.35         909.416 
       0.283568         1019.67         805.671 
       0.299022         974.059         715.603 
       0.314451         1005.69         653.674 
       0.330372         875.474         603.232 
       0.346141         807.216         550.183 
       0.361624         774.594         499.953 
       0.377134         737.234         459.756 
       0.392932         709.046         426.696 
       0.408854         676.927         394.875 
       0.424564         659.286         364.501 
       0.440253         604.799         337.992 
       0.455999          579.12         315.435 
       0.471626         589.549         294.976 
        0.48727         556.943         275.499 
       0.502856         522.795         257.795 
       0.518488         516.732         242.048 
       0.534347         487.133         227.565 
       0.550082         466.861         214.151 
       0.565732         463.185          201.77 
       0.581496         451.172         190.404 
       0.597222         438.504         180.033 
       0.612804         428.502         170.483 
       0.628434         411.037         161.558 
       0.644267         396.429         153.172 
       0.660051         391.225          145.45 
       0.675724         384.104         138.327 
       0.691403         375.141         131.677 
       0.707174         361.214         125.427 
       0.722871         355.325         119.609 
        0.73838         350.306         114.223 
       0.754018           337.9          109.13 
       0.769845         335.261         104.293 
        0.78569         328.065         99.7473 
       0.801365         317.892         95.5191 
       0.817031         314.093         91.5416 
       0.832809         308.755         87.7681 
       0.848511         301.568         84.2273 
       0.864097         294.118          80.909 
       0.879701         291.974         77.7687 
       0.895507         283.497         74.7603 
       0.911279         276.631         71.9193 
        0.92691         274.223         69.2515 
       0.942635         271.767         66.7061 
       0.958396         263.585         64.2847 
       0.974128         260.354         61.9895 
       0.989692         250.796         59.8304 
        1.00528         250.358         57.7721 
        1.02113         246.492         55.7794 
        1.03692         240.732         53.8892 
        1.05264         236.832         52.0962 
        1.06832         235.934         50.3885 
        1.08405         229.543         48.7536 
        1.09979         227.635         47.1911 
        1.11537         222.297         45.7133 
        1.13105         218.549         44.2907 
        1.14679          216.59         42.9237 
        1.16256         213.713         41.6125 
        1.17828         210.754         40.3609 
        1.19395         205.134         39.1655 
         1.2097         204.528          38.013 
        1.22537         202.405          36.913 
          1.241          196.72         35.8603 
        1.25666         194.809         34.8464 
        1.27241         191.002         33.8675 
        1.28819         188.755         32.9248 
        1.30392         185.929         32.0212 
        1.31957         181.437         31.1559 
        1.33529          179.02         30.3198 
        1.35108         177.747         29.5113 
        1.36674          174.03         28.7384 
         1.3824         172.486         27.9942 
        1.39811          169.93         27.2741 
        1.41389         166.382         26.5769 
        1.42964         164.391         25.9055 
        1.44531         162.554         25.2607 
        1.46101         159.231         24.6368 
        1.47667         158.124          24.036 
        1.49229         155.644         23.4571 
        1.50793         152.925         22.8968 
        1.52367         151.352         22.3513 
        1.53953         148.006         21.8201 
        1.55526         147.561         21.3106 
        1.57092         145.775         20.8196 
        1.58662         142.096         20.3431 
        1.60235         140.814         19.8807 
        1.61809         138.568         19.4326 
        1.63369         136.637         19.0024 
        1.64941         135.612         18.5823 
        1.66519         133.449         18.1734 
        1.68085         131.027         17.7799 
        1.69652         129.559         17.3981 
        1.71228         128.254         17.0254 
        1.72806         126.761         16.6634 
        1.74368         124.844         16.3157 
        1.75933         123.749         15.9772 
        1.77505         121.416         15.6469 
        1.79081         119.653         15.3255 
         1.8065         117.701         15.0145 
        1.82218         116.258         14.7125 
        1.83797         115.688         14.4168 
        1.85367         113.777         14.1309 
        1.86928          112.76         13.8546 
        1.88497         110.833         13.5842 
        1.90073         110.013         13.3202 
        1.91647          108.16         13.0634 
        1.93218         106.947          12.814 
        1.94787          105.08         12.5715 
        1.96363         104.346         12.3344 
        1.97935         103.058          12.104 
        1.99499         102.227         11.8808 
        2.01064         99.8353         11.6629 
         2.0264         99.2908         11.4492 
        2.04216         97.1198          11.241 
        2.05781         96.5607         11.0394 
        2.07353         95.2398          10.842 
        2.08928          93.892          10.649 
        2.10499         92.8937         10.4613 
        2.12065         92.1987         10.2787 
        2.13633         91.0712         10.1004 
        2.15211         89.5452         9.92515 
        2.16785         88.2786          9.7546 
        2.18349         87.0335         9.58916 
        2.19916         86.0145         9.42725 
        2.21489         85.2297         9.26857 
        2.23063         83.8846         9.11346 
         2.2463         83.2734         8.96263 
        2.26194         82.1072         8.81561 
        2.27765         81.0457         8.67117 
        2.29341         80.1528         8.52961 
        2.30914         79.1625         8.39153 
        2.32486         77.6242         8.25661 
        2.34061         77.1872         8.12446 
        2.35635         76.0994         7.99534 
        2.37203         75.0177         7.86949 
        2.38768         74.2644         7.74663 
        2.40339         73.6935         7.62598 
        2.41914          72.341         7.50763 
        2.43483         71.7713         7.39223 
         2.4505         70.7569         7.27947 
        2.46622         70.1588          7.1687 
        2.48195         69.1066         7.06023 
        2.49759          68.276         6.95461 
        2.51328         67.4497          6.8509 
        2.52906         66.3514         6.74865 
        2.54479          65.868         6.64889 
        2.56049         65.0804         6.55136 
        2.57618         64.1718         6.45588 
        2.59189         63.7382         6.36218 
        2.60758         62.7219          6.2705 
        2.62325         62.0267         6.18074 
        2.63898         61.4226         6.09245 
        2.65468         60.8038         6.00608 
        2.67044         60.0387         5.92103 
        2.68618         59.4416         5.83783 
        2.70184         58.5673         5.75657 
        2.71755         57.8113         5.67668 
        2.73329         57.2608         5.59818 
        2.74897         56.7053         5.52144 
        2.76462         56.2983         5.44632 
        2.78034          55.598         5.37229 
        2.79607          54.845         5.29957 
        2.81179         54.1776         5.22829 
        2.82749         53.6697         5.15842 
        2.84321         53.1855         5.08975 
        2.85893          52.552         5.02236 
        2.87462         51.9184         4.95631 
        2.89033         51.2361          4.8914 
        2.90605         50.7621         4.82761 
        2.92176         50.2661         4.76499 
        2.93747         49.5895         4.70353 
        2.95318         49.1962         4.64314 
        2.96891           48.56         4.58379 
        2.98456         48.0493         4.52576 
        3.00023         47.3588         4.46864 
        3.01596         46.9659         4.41235 
        3.03164         46.5777         4.35719 
        3.04738         46.0297         4.30282 
         3.0631         45.4111          4.2494 
        3.07883         44.9522          4.1969 
        3.09456          44.383         4.14529 
        3.11026         43.9809         4.09464 
        3.12596         43.6127         4.04485 
        3.14163         43.0663           3.996 
        3.15734         42.6088         3.94785 
        3.17308         42.1934         3.90039 
        3.18879         41.8388         3.85384 
        3.20447         41.4316         3.80813 
         3.2202          40.869         3.76302 
         3.2359          40.529         3.71872 
        3.25157         40.1155         3.67525 
        3.26729         39.6326         3.63235 
        3.28304         39.3232         3.59005 
        3.29877         38.7289         3.54849 
        3.31446         38.4972         3.50768 
        3.33014         38.0828         3.46755 
        3.34585         37.5789         3.42799 
        3.36158         37.2455           3.389 
        3.37727         36.9069         3.35074 
        3.39294         36.5177         3.31311 
        3.40867         36.2025         3.27592 
        3.42439         35.7374         3.23933 
        3.44008          35.448         3.20337 
        3.45578         35.0046         3.16794 
        3.47153         34.7697         3.13297 
        3.48724         34.3523         3.09859 
        3.50292         33.9734         3.06481 
        3.51859         33.7959         3.03155 
        3.53431         33.4639         2.99869 
        3.55007         32.9311         2.96623 
        3.56577         32.8716         2.93439 
        3.58146         32.3979         2.90304 
        3.59719           32.06         2.87207 
        3.61292         31.8153         2.84156 
        3.62859         31.4632         2.81162 
        3.64429         31.2102         2.78206 
        3.66003         30.8657         2.75283 
        3.67578         30.6217         2.72404 
        3.69146         30.3378         2.69577 
        3.70712         30.0026         2.66795 
        3.72284         29.6707         2.64043 
        3.73853         29.5049         2.61334 
        3.75422         29.1975         2.58663 
        3.76993         28.9014         2.56027 
        3.78564         28.6589         2.53429 
        3.80137         28.3981         2.50863 
        3.81707         28.1255         2.48339 
        3.83279         27.8408         2.45847 
        3.84853         27.5727         2.43386 
        3.86424         27.2586         2.40963 
        3.87992         27.0114         2.38577 
        3.89561           26.85         2.36224 
        3.91134         26.5592         2.33897 
        3.92704         26.2805         2.31605 
        3.94273         26.0259         2.29346 
        3.95845         25.8627         2.27114 
        3.97418         25.5563          2.2491 
        3.98988         25.2959          2.2274 
        4.00554         25.0351         2.20604 
        4.02125         24.8987          2.1849 
        4.03698         24.6599           2.164 
        4.05268         24.4296         2.14343 
        4.06839         24.1726         2.12311 
         4.0841         24.0173         2.10307 
        4.09983         23.7124         2.08325 
        4.11555         23.5111          2.0637 
        4.13124         23.4243         2.04446 
        4.14693         23.0863         2.02545 
        4.16266         22.9309         2.00664 
        4.17839         22.8056         1.98808 
        4.19408         22.5098         1.96979 
        4.20977          22.379         1.95173 
        4.22551         22.1622         1.93386 
        4.24123         21.9563         1.91623 
        4.25691         21.7249         1.89887 
        4.27259         21.5796         1.88172 
        4.28831         21.3833         1.86475 
        4.30404         21.2057         1.84797 
        4.31974          20.988         1.83144 
        4.33543         20.8276         1.81512 
        4.35116         20.6418         1.79896 
        4.36688         20.4396           1.783 
        4.38255          20.262          1.7673 
        4.39825         20.1112         1.75176 
        4.41398         19.9347         1.73637 
         4.4297          19.742         1.72119 
        4.44541         19.5421         1.70619 
        4.46111         19.4063         1.69138 
        4.47683         19.2342         1.67674 
        4.49251         19.1091          1.6623 
        4.50819         18.9405         1.64804 
         4.5239          18.778         1.63392 
        4.53962         18.6468         1.61996 
        4.55535         18.4439         1.60615 
        4.57106         18.3403         1.59252 
        4.58678         18.2077         1.57905 
         4.6025         17.9486         1.56574 
        4.61821         17.8325         1.55258 
        4.63391         17.7031         1.53959 
         4.6496         17.6025         1.52675 
        4.66532         17.3893         1.51404 
        4.68103         17.2695         1.50149 
        4.69673         17.1717         1.48908 
        4.71241         17.0568         1.47683 
        4.72811         16.8742          1.4647 
        4.74384         16.7321          1.4527 
        4.75955         16.6156         1.44084 
        4.77525         16.4677         1.42913 
        4.79096         16.2942         1.41753 
        4.80669         16.1619         1.40605 
         4.8224         16.0415         1.39472 
        4.83809         15.9101         1.38353 
        4.85379         15.8078         1.37245 
         4.8695         15.6795         1.36148 
        4.88521         15.5776         1.35064 
        4.90093          15.448         1.33992 
        4.91663         15.2765         1.32932 
        4.93234         15.1643         1.31883 
        4.94807         15.0791         1.30844 
        4.96377         14.9435         1.29819 
        4.97943         14.8166         1.28807 
        4.99514          14.695         1.27803 
        5.01086         14.6165         1.26809 
        5.02654         14.5041         1.25828 
        5.04227         14.3548         1.24855 
          5.058         14.2463         1.23892 
        5.07371         14.1393         1.22941 
        5.08942         14.0793            1.22 
        5.10513          13.942         1.21068 
        5.12084         13.8233         1.20146 
        5.13656         13.7238         1.19234 
        5.15225         13.6119         1.18333 
        5.16796         13.4775          1.1744 
        5.18369         13.3849         1.16555 
         5.1994         13.3186         1.15681 
        5.21509          13.185         1.14817 
        5.23079         13.1165          1.1396 
        5.24649         13.0075         1.13113 
        5.26217         12.9091         1.12276 
        5.27788         12.7977         1.11446 
        5.29359         12.6732         1.10624 
        5.30933         12.6211         1.09809 
        5.32504         12.5316         1.09004 
        5.34073         12.4079         1.08207 
        5.35646         12.3201         1.07418 
        5.37218           12.21         1.06636 
        5.38789          12.119         1.05863 
        5.40357         12.0544         1.05098 
        5.41929         11.9683          1.0434 
        5.43502         11.8705         1.03589 
         5.4507         11.7915         1.02847 
        5.46639         11.6802         1.02113 
        5.48212         11.6036         1.01384 
        5.49786         11.5225         1.00661 
        5.51353         11.4497        0.999491 
        5.52921         11.3699        0.992432 
        5.54495         11.3054        0.985422 
        5.56066         11.2098        0.978487 
        5.57637         11.1077         0.97162 
        5.59207          11.043        0.964826 
        5.60778         10.9623        0.958095 
        5.62346         10.8494        0.951437 
        5.63916         10.7959        0.944837 
        5.65487         10.7338        0.938296 
         5.6706          10.631        0.931811 
        5.68633         10.5654        0.925384 
        5.70203         10.4786        0.919031 
        5.71773          10.411         0.91274 
        5.73344         10.3301        0.906505 
        5.74916         10.2769        0.900322 
        5.76486         10.2005        0.894206 
        5.78054         10.1268        0.888157 
        5.79626         10.0703        0.882147 
          5.812         9.97891        0.876187 
         5.8277         9.90295        0.870299 
        5.84339         9.82678        0.864466 
        5.85911         9.75875        0.858676 
        5.87484          9.6968         0.85294 
        5.89053         9.62992        0.847268 
        5.90623          9.5587        0.841646 
        5.92195         9.49067        0.836065 
        5.93767         9.44343        0.830538 
        5.95336         9.35366         0.82507 
        5.96905         9.30073        0.819654 
        5.98476         9.25175         0.81428 
        6.00048         9.19165        0.808952 
        6.01617         9.10842        0.803679 
        6.03185         9.04042         0.79846 
        6.04756         8.97401        0.793274 
        6.06331         8.92789        0.788125 
        6.07903         8.87401        0.783032 
        6.09473         8.81053        0.777989 
        6.11044         8.73956        0.772986 
        6.12616           8.692        0.768028 
        6.14186         8.61835        0.763119 
        6.15755         8.56784        0.758254 
        6.17326         8.52314        0.753427 
        6.18898         8.45599         0.74864 
        6.20467         8.39391        0.743904 
        6.22036         8.33736        0.739209 
         6.2361         8.29181        0.734543 
         6.2518         8.23346        0.729924 
        6.26748         8.17241        0.725356 
        6.28319         8.13634        0.720815 
        6.29893         8.08431        0.716308 
        6.31463          8.0179        0.711848 
        6.33033         7.97001        0.707428 
        6.34604         7.91506        0.703042 
        6.36177          7.8612         0.69869 
        6.37747         7.79839        0.694382 
