# k  (h/Mpc)    Pcb(k)  (Mpc/h)^3    Pcb_linear(k) (Mpc/h)^3   ShotnoiseSubtracted = true
      0.0200456         11515.6         11701.3 
      0.0350414         8707.07         8485.23 
      0.0492313         6067.62         6125.09 
      0.0637834          4970.2          5159.8 
      0.0800726         3972.33         4163.42 
       0.096163         3099.39         3003.35 
       0.111083         2502.25         2376.32 
       0.126058         2103.37         2130.07 
       0.142273         1834.96          1834.4 
       0.158546         1504.52          1445.3 
        0.17375         1309.88         1206.96 
       0.188953         1216.81          1099.5 
       0.204907         1046.72         987.068 
       0.220756          939.65         836.951 
        0.23588         832.805         723.015 
         0.2514         746.731         657.725 
       0.267535         726.116         601.282 
       0.283568         635.665         532.688 
       0.299022         605.481         473.138 
       0.314451         610.999         432.192 
       0.330372         526.189         398.841 
       0.346141         488.116         363.767 
       0.361624         466.407         330.556 
       0.377134         435.852         303.979 
       0.392932         423.371          282.12 
       0.408854         402.839         261.081 
       0.424564         388.979         240.999 
       0.440253         351.994         223.472 
       0.455999         336.871         208.557 
       0.471626          337.65          195.03 
        0.48727         320.799         182.153 
       0.502856         294.263         170.447 
       0.518488         295.405         160.036 
       0.534347         274.484          150.46 
       0.550082          266.94         141.591 
       0.565732         265.317         133.405 
       0.581496         250.852          125.89 
       0.597222         244.285         119.033 
       0.612804         237.596         112.719 
       0.628434         229.069         106.818 
       0.644267         218.959         101.273 
       0.660051         215.015         96.1675 
       0.675724         212.517          91.458 
       0.691403         206.821          87.061 
       0.707174         199.743         82.9289 
       0.722871         196.633         79.0822 
        0.73838         194.635         75.5214 
       0.754018         183.831         72.1539 
       0.769845         183.576          68.956 
        0.78569         178.895         65.9503 
       0.801365         173.831         63.1547 
       0.817031         169.471         60.5249 
       0.832809          166.72           58.03 
       0.848511         162.696         55.6889 
       0.864097         159.393         53.4949 
       0.879701          157.86         51.4186 
       0.895507         153.633         49.4295 
       0.911279         149.421         47.5512 
        0.92691         147.013         45.7873 
       0.942635         144.538         44.1043 
       0.958396         142.165         42.5034 
       0.974128         139.091         40.9858 
       0.989692         135.698         39.5583 
        1.00528         134.268         38.1974 
        1.02113         130.825         36.8799 
        1.03692         129.749         35.6301 
        1.05264         127.966         34.4447 
        1.06832         124.882         33.3156 
        1.08405         123.055         32.2346 
        1.09979         122.282         31.2015 
        1.11537         119.145         30.2244 
        1.13105         117.911         29.2838 
        1.14679         115.686           28.38 
        1.16256         113.664         27.5131 
        1.17828         112.316         26.6855 
        1.19395         109.473         25.8952 
         1.2097         108.916         25.1332 
        1.22537         106.512         24.4059 
          1.241         105.844         23.7099 
        1.25666         102.767         23.0395 
        1.27241         101.287         22.3923 
        1.28819         100.698          21.769 
        1.30392         98.7231         21.1716 
        1.31957         97.3664         20.5995 
        1.33529         96.1592         20.0466 
        1.35108         95.4637         19.5121 
        1.36674         93.5907         19.0011 
         1.3824         93.1241          18.509 
        1.39811         90.6203         18.0329 
        1.41389         89.7237         17.5719 
        1.42964         88.0313          17.128 
        1.44531         87.4328         16.7017 
        1.46101         86.2811         16.2892 
        1.47667         85.2812          15.892 
        1.49229         84.3672         15.5092 
        1.50793         82.8713         15.1387 
        1.52367         82.2732         14.7781 
        1.53953         80.9682         14.4269 
        1.55526         79.5292           14.09 
        1.57092         79.3674         13.7654 
        1.58662         78.1718         13.4503 
        1.60235         76.9012         13.1446 
        1.61809         75.9625         12.8483 
        1.63369         74.7854         12.5639 
        1.64941          74.761         12.2861 
        1.66519         72.9189         12.0158 
        1.68085         72.2825         11.7556 
        1.69652         70.8698         11.5031 
        1.71228           70.28         11.2567 
        1.72806         69.8189         11.0174 
        1.74368         68.5935         10.7875 
        1.75933         68.0509         10.5637 
        1.77505         67.3477         10.3453 
        1.79081         66.1813         10.1328 
         1.8065         65.9114         9.92718 
        1.82218         64.1931         9.72751 
        1.83797         63.9254           9.532 
        1.85367         63.0454           9.343 
        1.86928         62.4744         9.16031 
        1.88497          61.616         8.98155 
        1.90073         60.7715         8.80694 
        1.91647         60.2004         8.63716 
        1.93218          59.653         8.47227 
        1.94787         58.7996         8.31195 
        1.96363         57.9486         8.15519 
        1.97935         57.3772         8.00283 
        1.99499         56.7999         7.85526 
        2.01064         56.1337         7.71122 
         2.0264         55.5317         7.56992 
        2.04216         54.7656         7.43227 
        2.05781         54.0723         7.29893 
        2.07353         53.3452         7.16842 
        2.08928         52.8663         7.04084 
        2.10499         52.3788         6.91673 
        2.12065         51.8235         6.79602 
        2.13633         51.3488          6.6781 
        2.15211         50.5716         6.56225 
        2.16785         49.8208         6.44948 
        2.18349         49.2505          6.3401 
        2.19916         48.7155         6.23305 
        2.21489         48.4617         6.12813 
        2.23063         47.6079         6.02558 
         2.2463         47.2413         5.92585 
        2.26194         46.8902         5.82865 
        2.27765         46.1277         5.73315 
        2.29341         45.4374         5.63955 
        2.30914         45.0405         5.54826 
        2.32486         44.4574         5.45905 
        2.34061         44.1262         5.37168 
        2.35635         43.4695         5.28631 
        2.37203         43.0808          5.2031 
        2.38768         42.7329         5.12187 
        2.40339         42.2767          5.0421 
        2.41914          41.866         4.96385 
        2.43483         41.0149         4.88755 
         2.4505         40.9144         4.81299 
        2.46622         40.4563         4.73975 
        2.48195         39.9755         4.66804 
        2.49759         39.5015         4.59821 
        2.51328         39.1251         4.52963 
        2.52906         38.7049         4.46203 
        2.54479         38.3583         4.39607 
        2.56049         37.8007         4.33159 
        2.57618         37.4989         4.26846 
        2.59189         37.0089          4.2065 
        2.60758         36.5706         4.14589 
        2.62325         36.4586         4.08655 
        2.63898          35.929         4.02817 
        2.65468         35.5488         3.97106 
        2.67044         35.2487         3.91483 
        2.68618         34.9392         3.85982 
        2.70184         34.4069          3.8061 
        2.71755          34.148         3.75327 
        2.73329         33.5942         3.70137 
        2.74897         33.3147         3.65063 
        2.76462         32.9348         3.60096 
        2.78034         32.7304         3.55202 
        2.79607         32.2884         3.50394 
        2.81179         32.0274         3.45681 
        2.82749         31.6995         3.41061 
        2.84321         31.3355         3.36521 
        2.85893         31.0226         3.32065 
        2.87462         30.7463         3.27698 
        2.89033         30.4093         3.23407 
        2.90605         30.1752         3.19189 
        2.92176         29.9451         3.15049 
        2.93747         29.5618         3.10985 
        2.95318         29.2527         3.06992 
        2.96891         29.0479         3.03068 
        2.98456         28.6677         2.99231 
        3.00023         28.3248         2.95455 
        3.01596          28.112         2.91733 
        3.03164         27.7898         2.88086 
        3.04738         27.5761         2.84491 
         3.0631         27.3298         2.80959 
        3.07883         26.9553         2.77488 
        3.09456         26.6697         2.74076 
        3.11026         26.3707         2.70727 
        3.12596         26.1043         2.67435 
        3.14163         25.8825         2.64205 
        3.15734         25.6827         2.61022 
        3.17308          25.366         2.57884 
        3.18879         25.1659         2.54806 
        3.20447         24.9001         2.51783 
         3.2202         24.5836         2.48801 
         3.2359         24.3911         2.45872 
        3.25157         24.2121         2.42998 
        3.26729          23.993         2.40161 
        3.28304         23.6537         2.37365 
        3.29877         23.4367         2.34617 
        3.31446         23.2232         2.31919 
        3.33014         23.0045         2.29265 
        3.34585          22.826          2.2665 
        3.36158         22.5524         2.24072 
        3.37727         22.3459         2.21542 
        3.39294         22.1406         2.19054 
        3.40867         21.9559         2.16595 
        3.42439         21.7262         2.14176 
        3.44008         21.4866         2.11799 
        3.45578         21.3663         2.09456 
        3.47153         21.0685         2.07143 
        3.48724         20.9586          2.0487 
        3.50292         20.7059         2.02637 
        3.51859         20.5435         2.00438 
        3.53431         20.3695         1.98265 
        3.55007          20.148          1.9612 
        3.56577         19.9898         1.94014 
        3.58146         19.7702         1.91941 
        3.59719         19.5794         1.89894 
        3.61292         19.4259         1.87877 
        3.62859         19.1813         1.85897 
        3.64429         18.9758         1.83942 
        3.66003         18.9449          1.8201 
        3.67578         18.7451         1.80106 
        3.69146         18.4873         1.78237 
        3.70712         18.3581         1.76398 
        3.72284         18.2024         1.74578 
        3.73853         18.0255         1.72787 
        3.75422         17.8659         1.71021 
        3.76993         17.7089         1.69278 
        3.78564         17.5732         1.67561 
        3.80137         17.3941         1.65864 
        3.81707         17.2239         1.64195 
        3.83279         17.0301         1.62547 
        3.84853         16.9075          1.6092 
        3.86424         16.7263         1.59318 
        3.87992          16.583         1.57741 
        3.89561         16.4574         1.56185 
        3.91134         16.2964         1.54647 
        3.92704         16.1845         1.53131 
        3.94273         16.0364         1.51638 
        3.95845          15.847         1.50162 
        3.97418         15.6995         1.48705 
        3.98988          15.588          1.4727 
        4.00554         15.5123         1.45857 
        4.02125         15.2766          1.4446 
        4.03698         15.1334         1.43078 
        4.05268         15.0668         1.41718 
        4.06839         14.9069         1.40375 
         4.0841         14.7848         1.39049 
        4.09983         14.6022         1.37739 
        4.11555         14.5364         1.36447 
        4.13124         14.4251         1.35174 
        4.14693          14.288         1.33917 
        4.16266         14.1789         1.32674 
        4.17839         14.0303         1.31446 
        4.19408         13.8804         1.30238 
        4.20977         13.8045         1.29044 
        4.22551          13.657         1.27862 
        4.24123         13.5307         1.26696 
        4.25691         13.4231         1.25548 
        4.27259         13.3098         1.24414 
        4.28831         13.2328         1.23292 
        4.30404         13.1325         1.22183 
        4.31974         12.9869          1.2109 
        4.33543          12.859         1.20011 
        4.35116         12.7663         1.18942 
        4.36688         12.6438         1.17887 
        4.38255         12.5626         1.16849 
        4.39825         12.4402         1.15822 
        4.41398         12.3422         1.14804 
         4.4297         12.2231           1.138 
        4.44541         12.1281         1.12809 
        4.46111         12.0501          1.1183 
        4.47683         11.9232         1.10862 
        4.49251         11.8297         1.09907 
        4.50819          11.734         1.08964 
         4.5239         11.6442         1.08031 
        4.53962         11.5535         1.07107 
        4.55535         11.4516         1.06194 
        4.57106          11.364         1.05293 
        4.58678         11.2713         1.04403 
         4.6025         11.1723         1.03522 
        4.61821         11.0825         1.02652 
        4.63391         10.9886         1.01793 
         4.6496          10.916         1.00945 
        4.66532          10.827         1.00104 
        4.68103         10.7245        0.992742 
        4.69673         10.6274        0.984543 
        4.71241         10.5779        0.976444 
        4.72811         10.4905        0.968424 
        4.74384          10.373        0.960485 
        4.75955         10.3228        0.952647 
        4.77525         10.2354        0.944901 
        4.79096         10.1691        0.937233 
        4.80669         10.0752        0.929646 
         4.8224         9.99248        0.922153 
        4.83809         9.91699        0.914751 
        4.85379         9.83659        0.907426 
         4.8695         9.74024        0.900176 
        4.88521         9.66373        0.893008 
        4.90093         9.61819        0.885918 
        4.91663         9.51336        0.878912 
        4.93234         9.45233        0.871975 
        4.94807         9.37564        0.865108 
        4.96377         9.31998        0.858329 
        4.97943         9.22703        0.851637 
        4.99514         9.13295           0.845 
        5.01086         9.11629        0.838428 
        5.02654         9.03917        0.831944 
        5.04227         8.93793         0.82551 
          5.058         8.87185        0.819141 
        5.07371         8.81238        0.812852 
        5.08942         8.75408        0.806629 
        5.10513         8.67261        0.800471 
        5.12084         8.63457        0.794375 
        5.13656         8.55187        0.788343 
        5.15225         8.47622        0.782385 
        5.16796         8.42651        0.776479 
        5.18369         8.34915        0.770629 
         5.1994         8.29504        0.764851 
        5.21509         8.24533        0.759137 
        5.23079         8.16886        0.753475 
        5.24649         8.09556        0.747876 
        5.26217         8.04419        0.742338 
        5.27788         8.00449        0.736848 
        5.29359         7.92902        0.731414 
        5.30933          7.8727        0.726027 
        5.32504         7.82352        0.720703 
        5.34073         7.76667        0.715439 
        5.35646         7.69914        0.710217 
        5.37218         7.63637        0.705047 
        5.38789         7.57194        0.699937 
        5.40357          7.5367        0.694883 
        5.41929         7.47847        0.689869 
        5.43502         7.42898        0.684904 
         5.4507         7.37469            0.68 
        5.46639         7.31805        0.675143 
        5.48212          7.2698        0.670323 
        5.49786         7.21939        0.665545 
        5.51353         7.16615        0.660837 
        5.52921         7.11581         0.65617 
        5.54495         7.05396        0.651535 
        5.56066         7.00471         0.64695 
        5.57637         6.97219         0.64241 
        5.59207         6.92069        0.637918 
        5.60778         6.85734        0.633467 
        5.62346         6.81142        0.629065 
        5.63916         6.77359        0.624701 
        5.65487         6.73048        0.620377 
         5.6706         6.67401        0.616089 
        5.68633          6.6354        0.611839 
        5.70203         6.57669        0.607639 
        5.71773         6.54479         0.60348 
        5.73344         6.50392        0.599357 
        5.74916         6.44014        0.595269 
        5.76486         6.41498        0.591226 
        5.78054         6.34983        0.587226 
        5.79626         6.31392        0.583252 
          5.812         6.27396        0.579311 
         5.8277         6.22588        0.575419 
        5.84339         6.18821        0.571562 
        5.85911         6.14295        0.567734 
        5.87484         6.10889        0.563941 
        5.89053         6.05465        0.560191 
        5.90623         6.02603        0.556474 
        5.92195         5.97917        0.552784 
        5.93767         5.93593         0.54913 
        5.95336          5.8968        0.545515 
        5.96905         5.86161        0.541934 
        5.98476         5.81919         0.53838 
        6.00048         5.78196        0.534857 
        6.01617         5.73896        0.531371 
        6.03185         5.70619         0.52792 
        6.04756         5.66818        0.524492 
        6.06331          5.6358        0.521087 
        6.07903         5.58176         0.51772 
        6.09473         5.56273        0.514386 
        6.11044         5.51956        0.511078 
        6.12616         5.47752          0.5078 
        6.14186         5.44158        0.504554 
        6.15755         5.42356        0.501337 
        6.17326          5.3724        0.498146 
        6.18898         5.33521        0.494981 
        6.20467         5.29843         0.49185 
        6.22036         5.27457        0.488746 
         6.2361         5.23678         0.48566 
         6.2518         5.19392        0.482607 
        6.26748         5.16867        0.479586 
        6.28319         5.14052        0.476584 
        6.29893         5.10642        0.473604 
        6.31463         5.08695        0.470655 
        6.33033         5.03662        0.467733 
        6.34604         5.01119        0.464833 
        6.36177         4.97761        0.461955 
        6.37747         4.95168        0.459107 
