# k  (h/Mpc)    Pcb(k)  (Mpc/h)^3    Pcb_linear(k) (Mpc/h)^3   ShotnoiseSubtracted = true
      0.0200456         5722.49         5813.41 
      0.0350414          3593.8         3640.86 
      0.0492313         2395.53          2386.1 
      0.0637834         2026.73          1982.4 
      0.0800726          1622.7         1599.85 
       0.096163         1075.17         1081.79 
       0.111083         808.801         811.286 
       0.126058         750.508         737.356 
       0.142273         663.409         646.187 
       0.158546         520.149         490.414 
        0.17375         405.075         392.815 
       0.188953         384.375         359.456 
       0.204907         364.511         329.216 
       0.220756         302.012         275.301 
        0.23588          257.58         230.647 
         0.2514         226.355         208.191 
       0.267535         214.829         192.832 
       0.283568         193.541         170.604 
       0.299022         175.223          148.81 
       0.314451          157.48         134.451 
       0.330372         146.607          124.59 
       0.346141          131.85         113.894 
       0.361624         124.045         102.631 
       0.377134          115.72         93.4875 
       0.392932         103.884         86.6357 
       0.408854         99.8212         80.2896 
       0.424564         94.9529         73.8596 
       0.440253          88.384         68.0614 
       0.455999         82.5548         63.3053 
       0.471626         76.7627         59.1724 
        0.48727         73.5954         55.1765 
       0.502856         69.8936         51.4454 
       0.518488         66.9892         48.1455 
       0.534347         64.3666         45.1918 
       0.550082         58.8931         42.4706 
       0.565732         55.7495         39.9259 
       0.581496         53.9812         37.5819 
       0.597222         52.0686         35.4679 
       0.612804         49.0254         33.5379 
       0.628434         47.5655         31.7305 
       0.644267         46.0328         30.0253 
       0.660051         44.2448         28.4616 
       0.675724         42.1047         27.0264 
       0.691403         40.7786         25.6892 
       0.707174         39.3757         24.4344 
       0.722871         38.0645         23.2679 
        0.73838         36.8595         22.1899 
       0.754018         35.0741         21.1718 
       0.769845         34.2026         20.2064 
        0.78569         33.2038         19.3003 
       0.801365         31.9213         18.4589 
       0.817031         31.1505         17.6685 
       0.832809         30.5557         16.9197 
       0.848511         28.7842         16.2181 
       0.864097         28.2971         15.5615 
       0.879701         27.6219          14.941 
       0.895507          27.104         14.3474 
       0.911279         26.1473         13.7876 
        0.92691         25.5926         13.2625 
       0.942635         24.5285         12.7622 
       0.958396         24.2641         12.2869 
       0.974128         23.5004         11.8368 
       0.989692         23.1636         11.4139 
        1.00528         22.6089         11.0113 
        1.02113         21.7876         10.6219 
        1.03692          21.271         10.2529 
        1.05264         21.0583         9.90324 
        1.06832         20.3328         9.57056 
        1.08405         19.9454         9.25238 
        1.09979          19.545         8.94859 
        1.11537         19.0847         8.66153 
        1.13105         18.8828         8.38544 
        1.14679          18.553         8.12041 
        1.16256         17.8832         7.86639 
        1.17828         17.7126         7.62415 
        1.19395         17.2736         7.39299 
         1.2097         17.0969         7.17032 
        1.22537         16.7378         6.95794 
          1.241         16.3569         6.75488 
        1.25666         15.9491         6.55946 
        1.27241          15.661         6.37092 
        1.28819         15.3278         6.18951 
        1.30392         15.1836         6.01576 
        1.31957         14.9953         5.84948 
        1.33529          14.767         5.68893 
        1.35108         14.4129         5.53381 
        1.36674         14.2061         5.38563 
         1.3824         13.8767         5.24304 
        1.39811         13.7104         5.10517 
        1.41389          13.551         4.97177 
        1.42964          13.282         4.84339 
        1.44531         13.2193          4.7202 
        1.46101         12.8135         4.60106 
        1.47667         12.6764         4.48642 
        1.49229         12.5169         4.37601 
        1.50793         12.3468         4.26922 
        1.52367         12.1482         4.16532 
        1.53953         12.0032         4.06421 
        1.55526         11.7907         3.96728 
        1.57092         11.5611         3.87393 
        1.58662         11.5042         3.78338 
        1.60235         11.3067         3.69557 
        1.61809         11.1526         3.61052 
        1.63369         11.0033         3.52891 
        1.64941         10.8054         3.44926 
        1.66519         10.7361          3.3718 
        1.68085         10.5693         3.29727 
        1.69652         10.4107         3.22499 
        1.71228         10.3018         3.15448 
        1.72806         10.1823         3.08604 
        1.74368         10.0114         3.02032 
        1.75933         9.91607         2.95639 
        1.77505         9.80736         2.89403 
        1.79081         9.62879         2.83337 
         1.8065         9.58676         2.77471 
        1.82218         9.39531         2.71777 
        1.83797         9.28036         2.66206 
        1.85367         9.18482         2.60821 
        1.86928         9.12863         2.55619 
        1.88497         8.96224         2.50532 
        1.90073         8.94722         2.45564 
        1.91647         8.79832         2.40737 
        1.93218         8.73698          2.3605 
        1.94787         8.61896         2.31496 
        1.96363         8.54104         2.27044 
        1.97935           8.405         2.22719 
        1.99499          8.2735         2.18532 
        2.01064         8.23163         2.14447 
         2.0264         8.15735         2.10441 
        2.04216         8.05261          2.0654 
        2.05781         7.92109         2.02763 
        2.07353         7.89088         1.99068 
        2.08928         7.78796         1.95457 
        2.10499         7.73065         1.91945 
        2.12065         7.61814         1.88531 
        2.13633         7.59265         1.85198 
        2.15211         7.47321         1.81924 
        2.16785         7.42345         1.78739 
        2.18349         7.37146          1.7565 
        2.19916         7.28462         1.72628 
        2.21489         7.19762         1.69667 
        2.23063         7.11661         1.66775 
         2.2463         7.04872         1.63963 
        2.26194         6.97579         1.61223 
        2.27765         6.94586         1.58532 
        2.29341          6.8633         1.55896 
        2.30914         6.76221         1.53325 
        2.32486         6.71896         1.50815 
        2.34061         6.67039         1.48356 
        2.35635         6.60075         1.45955 
        2.37203         6.57084         1.43615 
        2.38768         6.42831         1.41332 
        2.40339         6.42343          1.3909 
        2.41914         6.33715         1.36892 
        2.43483         6.32404          1.3475 
         2.4505         6.25704         1.32657 
        2.46622         6.18382         1.30601 
        2.48195         6.13906          1.2859 
        2.49759         6.08051         1.26631 
        2.51328          6.0336         1.24709 
        2.52906         5.99667         1.22814 
        2.54479          5.9267         1.20966 
        2.56049         5.90098         1.19159 
        2.57618         5.84758         1.17392 
        2.59189          5.7661         1.15657 
        2.60758         5.75309         1.13961 
        2.62325         5.68901         1.12301 
        2.63898         5.61486         1.10668 
        2.65468         5.55325         1.09071 
        2.67044          5.5357         1.07499 
        2.68618         5.49539         1.05962 
        2.70184         5.45044         1.04461 
        2.71755         5.40507         1.02986 
        2.73329         5.34566         1.01537 
        2.74897         5.32622          1.0012 
        2.76462         5.28806        0.987344 
        2.78034         5.21541        0.973689 
        2.79607         5.19124         0.96028 
        2.81179         5.14699        0.947139 
        2.82749          5.1188         0.93426 
        2.84321         5.08586        0.921607 
        2.85893         5.04587        0.909194 
        2.87462         4.98854        0.897031 
        2.89033         4.95208         0.88508 
        2.90605         4.89916        0.873338 
        2.92176         4.87162        0.861815 
        2.93747         4.83681        0.850507 
        2.95318         4.80965        0.839401 
        2.96891         4.76904        0.828488 
        2.98456         4.70854        0.817819 
        3.00023         4.68066        0.807322 
        3.01596          4.6517        0.796978 
        3.03164         4.63119        0.786846 
        3.04738         4.59863         0.77686 
         3.0631         4.54427        0.767052 
        3.07883         4.51856        0.757414 
        3.09456         4.47941        0.747943 
        3.11026         4.45985         0.73865 
        3.12596         4.42977        0.729516 
        3.14163         4.38415        0.720558 
        3.15734         4.35712        0.711731 
        3.17308          4.3187         0.70303 
        3.18879         4.29414          0.6945 
        3.20447         4.27828        0.686123 
         3.2202         4.21652         0.67786 
         3.2359         4.20604        0.669748 
        3.25157         4.17158        0.661788 
        3.26729         4.15728        0.653934 
        3.28304         4.11925        0.646193 
        3.29877         4.08676        0.638588 
        3.31446         4.05666        0.631122 
        3.33014         4.03218        0.623783 
        3.34585         4.01853        0.616549 
        3.36158         3.96529         0.60942 
        3.37727         3.96219        0.602426 
        3.39294         3.93545        0.595549 
        3.40867         3.89389        0.588755 
        3.42439         3.88216        0.582071 
        3.44008         3.84521        0.575504 
        3.45578         3.81781        0.569034 
        3.47153         3.79005         0.56265 
        3.48724         3.76344        0.556375 
        3.50292         3.74809         0.55021 
        3.51859         3.72365        0.544143 
        3.53431         3.69521        0.538148 
        3.55007         3.67119         0.53223 
        3.56577         3.64857        0.526424 
        3.58146         3.63109        0.520707 
        3.59719         3.60625        0.515063 
        3.61292         3.58726        0.509504 
        3.62859         3.55605        0.504049 
        3.64429         3.53279        0.498663 
        3.66003         3.49933         0.49334 
        3.67578         3.49108        0.488097 
        3.69146         3.45311         0.48295 
        3.70712         3.44657        0.477887 
        3.72284         3.42053        0.472878 
        3.73853         3.39391         0.46795 
        3.75422         3.37291        0.463091 
        3.76993         3.35882        0.458296 
        3.78564         3.33749        0.453572 
        3.80137         3.32066        0.448907 
        3.81707         3.29545        0.444317 
        3.83279         3.26508        0.439788 
        3.84853         3.24829        0.435315 
        3.86424         3.22403        0.430914 
        3.87992         3.20712        0.426579 
        3.89561         3.19841        0.422305 
        3.91134         3.16219         0.41808 
        3.92704         3.14652        0.413919 
        3.94273         3.12613        0.409818 
        3.95845         3.10841        0.405766 
        3.97418         3.08774        0.401768 
        3.98988         3.07421        0.397829 
        4.00554         3.04941        0.393954 
        4.02125         3.03031         0.39012 
        4.03698          3.0089        0.386331 
        4.05268         2.98527        0.382601 
        4.06839         2.96998        0.378917 
         4.0841         2.95202        0.375284 
        4.09983         2.92632        0.371693 
        4.11555         2.90875        0.368151 
        4.13124         2.89105        0.364665 
        4.14693         2.87244        0.361221 
        4.16266         2.85623        0.357814 
        4.17839         2.82986        0.354453 
        4.19408         2.81231        0.351143 
        4.20977         2.80117        0.347874 
        4.22551         2.77328        0.344639 
        4.24123         2.75857        0.341448 
        4.25691         2.74276        0.338307 
        4.27259         2.73482        0.335205 
        4.28831         2.71138        0.332135 
        4.30404          2.6931        0.329101 
        4.31974         2.67475        0.326111 
        4.33543         2.66238        0.323161 
        4.35116          2.6444         0.32024 
        4.36688         2.62952        0.317356 
        4.38255         2.61766        0.314519 
        4.39825         2.59299         0.31171 
        4.41398         2.58682         0.30893 
         4.4297         2.56531        0.306188 
        4.44541         2.55807        0.303479 
        4.46111         2.53511        0.300805 
        4.47683         2.51404        0.298161 
        4.49251         2.51145        0.295555 
        4.50819         2.49004        0.292981 
         4.5239         2.47635        0.290433 
        4.53962         2.46763        0.287913 
        4.55535         2.44711        0.285422 
        4.57106         2.44169        0.282964 
        4.58678         2.42189        0.280534 
         4.6025         2.40988        0.278133 
        4.61821         2.39778         0.27576 
        4.63391         2.38065        0.273418 
         4.6496         2.36811        0.271104 
        4.66532         2.35252        0.268813 
        4.68103          2.3357         0.26655 
        4.69673         2.32797        0.264316 
        4.71241         2.31181        0.262109 
        4.72811         2.30262        0.259924 
        4.74384         2.28932        0.257761 
        4.75955         2.28089        0.255626 
        4.77525         2.26822        0.253517 
        4.79096         2.25293        0.251429 
        4.80669         2.23692        0.249363 
         4.8224          2.2318        0.247323 
        4.83809         2.21624        0.245308 
        4.85379         2.20757        0.243315 
         4.8695         2.19789        0.241342 
        4.88521         2.17753        0.239392 
        4.90093         2.17244        0.237463 
        4.91663         2.15846        0.235557 
        4.93234         2.14633         0.23367 
        4.94807         2.13968        0.231803 
        4.96377         2.12546        0.229959 
        4.97943         2.11454         0.22814 
        4.99514         2.09928        0.226336 
        5.01086         2.08893         0.22455 
        5.02654         2.07557        0.222787 
        5.04227         2.07622        0.221039 
          5.058         2.06014        0.219309 
        5.07371         2.04941          0.2176 
        5.08942         2.03806         0.21591 
        5.10513         2.02905        0.214237 
        5.12084         2.01856        0.212582 
        5.13656         2.00848        0.210944 
        5.15225         1.99367        0.209326 
        5.16796         1.98546        0.207723 
        5.18369         1.97434        0.206135 
         5.1994         1.97027        0.204567 
        5.21509         1.95892        0.203016 
        5.23079          1.9515         0.20148 
        5.24649          1.9403        0.199961 
        5.26217         1.93234        0.198459 
        5.27788         1.91989         0.19697 
        5.29359         1.91297        0.195496 
        5.30933         1.90333        0.194035 
        5.32504         1.88941        0.192592 
        5.34073         1.88516        0.191165 
        5.35646         1.87198        0.189749 
        5.37218         1.86436        0.188348 
        5.38789         1.86004        0.186963 
        5.40357         1.84969        0.185594 
        5.41929         1.84102        0.184235 
        5.43502         1.83628         0.18289 
         5.4507         1.82594        0.181561 
        5.46639          1.8172        0.180246 
        5.48212         1.80752        0.178941 
        5.49786         1.80211        0.177647 
        5.51353         1.79069        0.176372 
        5.52921         1.78166        0.175108 
        5.54495         1.77635        0.173854 
        5.56066         1.76921        0.172613 
        5.57637          1.7582        0.171384 
        5.59207         1.75272        0.170168 
        5.60778         1.74841        0.168964 
        5.62346         1.73896        0.167773 
        5.63916           1.728        0.166593 
        5.65487         1.72234        0.165423 
         5.6706          1.7129        0.164263 
        5.68633         1.70983        0.163114 
        5.70203         1.69592        0.161978 
        5.71773          1.6904        0.160854 
        5.73344         1.68513        0.159739 
        5.74916          1.6725        0.158634 
        5.76486         1.67105        0.157541 
        5.78054         1.66029         0.15646 
        5.79626         1.65659        0.155386 
          5.812          1.6479        0.154322 
         5.8277         1.63809         0.15327 
        5.84339         1.63219        0.152228 
        5.85911         1.62437        0.151194 
        5.87484         1.61842         0.15017 
        5.89053         1.61404        0.149157 
        5.90623         1.60796        0.148153 
        5.92195         1.59944        0.147157 
        5.93767         1.59562         0.14617 
        5.95336         1.58325        0.145195 
        5.96905         1.57892        0.144228 
        5.98476         1.57068        0.143269 
        6.00048          1.5664        0.142318 
        6.01617         1.55836        0.141378 
        6.03185         1.55443        0.140447 
        6.04756         1.54687        0.139522 
        6.06331         1.54136        0.138603 
        6.07903         1.53527        0.137695 
        6.09473          1.5302        0.136796 
        6.11044         1.52397        0.135904 
        6.12616         1.51787         0.13502 
        6.14186         1.50982        0.134145 
        6.15755         1.50453        0.133277 
        6.17326         1.49993        0.132417 
        6.18898         1.49242        0.131564 
        6.20467         1.48513         0.13072 
        6.22036         1.48068        0.129884 
         6.2361          1.4756        0.129052 
         6.2518         1.47046         0.12823 
        6.26748         1.46284        0.127416 
        6.28319         1.45648        0.126607 
        6.29893         1.45538        0.125804 
        6.31463         1.44434         0.12501 
        6.33033         1.44263        0.124223 
        6.34604         1.43351        0.123442 
        6.36177         1.42989        0.122667 
        6.37747         1.42594        0.121901 
