# k  (h/Mpc)    Pcb(k)  (Mpc/h)^3    Pcb_linear(k) (Mpc/h)^3   ShotnoiseSubtracted = true
      0.0200456         4797.27         4871.93 
      0.0350414         3017.84         3051.23 
      0.0492313         2008.83         1999.67 
      0.0637834         1696.04         1661.35 
      0.0800726          1358.1         1340.75 
       0.096163          901.61         906.591 
       0.111083         677.687         679.898 
       0.126058         627.694         617.941 
       0.142273         554.297         541.537 
       0.158546         432.589         410.991 
        0.17375         337.557         329.198 
       0.188953         318.945         301.242 
       0.204907         302.076           275.9 
       0.220756         249.879         230.716 
        0.23588         212.602         193.294 
         0.2514         187.311         174.474 
       0.267535         177.052         161.603 
       0.283568         159.206         142.975 
       0.299022         143.601          124.71 
       0.314451         128.422         112.676 
       0.330372         119.742         104.413 
       0.346141         107.975         95.4486 
       0.361624         100.963         86.0095 
       0.377134         94.2363         78.3472 
       0.392932         84.1341          72.605 
       0.408854         80.9582         67.2867 
       0.424564         76.7359         61.8981 
       0.440253         71.0901         57.0389 
       0.455999         66.4395          53.053 
       0.471626         61.9156         49.5894 
        0.48727         59.2048         46.2406 
       0.502856         55.9929         43.1138 
       0.518488           53.49         40.3484 
       0.534347         51.4298          37.873 
       0.550082         46.9553         35.5925 
       0.565732         44.2051         33.4599 
       0.581496         42.9298         31.4955 
       0.597222         41.4241         29.7239 
       0.612804         38.8396         28.1065 
       0.628434         37.5633         26.5917 
       0.644267         36.4268         25.1627 
       0.660051         34.8093         23.8522 
       0.675724         33.0353         22.6495 
       0.691403          31.989         21.5288 
       0.707174         30.8752         20.4772 
       0.722871         29.7609         19.4997 
        0.73838         28.6831         18.5962 
       0.754018         27.4081          17.743 
       0.769845         26.6605          16.934 
        0.78569         25.8131         16.1747 
       0.801365         24.8169         15.4695 
       0.817031         24.2017         14.8071 
       0.832809         23.7024         14.1795 
       0.848511         22.2706         13.5915 
       0.864097         21.9048         13.0413 
       0.879701         21.3344         12.5213 
       0.895507         20.7928         12.0238 
       0.911279         20.0936         11.5547 
        0.92691         19.6337         11.1147 
       0.942635         18.8037         10.6954 
       0.958396         18.5103          10.297 
       0.974128         17.9304         9.91984 
       0.989692         17.6904         9.56545 
        1.00528         17.2653           9.228 
        1.02113         16.5637         8.90166 
        1.03692         16.1659         8.59243 
        1.05264         15.9645         8.29941 
        1.06832         15.4417         8.02061 
        1.08405         15.0681         7.75396 
        1.09979         14.7477         7.49936 
        1.11537          14.466          7.2588 
        1.13105         14.2095         7.02742 
        1.14679         13.9638         6.80531 
        1.16256         13.4222         6.59243 
        1.17828         13.3601         6.38942 
        1.19395         12.9241          6.1957 
         1.2097         12.7947         6.00908 
        1.22537         12.4618         5.83111 
          1.241         12.2229         5.66092 
        1.25666         11.9269         5.49716 
        1.27241         11.6588         5.33915 
        1.28819         11.4375         5.18712 
        1.30392         11.3244          5.0415 
        1.31957         11.1386         4.90216 
        1.33529         10.9312         4.76761 
        1.35108         10.6734         4.63761 
        1.36674         10.5548         4.51342 
         1.3824         10.2784         4.39393 
        1.39811         10.1298         4.27839 
        1.41389         9.97935         4.16659 
        1.42964         9.82059         4.05901 
        1.44531         9.72393         3.95577 
        1.46101         9.42715         3.85592 
        1.47667         9.34096         3.75984 
        1.49229         9.20624         3.66732 
        1.50793         9.05591         3.57782 
        1.52367         8.89375         3.49075 
        1.53953         8.76993         3.40601 
        1.55526         8.63892         3.32478 
        1.57092         8.47612         3.24655 
        1.58662         8.41655         3.17067 
        1.60235         8.25915         3.09708 
        1.61809         8.14226          3.0258 
        1.63369         8.02473         2.95741 
        1.64941         7.88232         2.89065 
        1.66519         7.82694         2.82573 
        1.68085         7.69326         2.76328 
        1.69652         7.57407         2.70271 
        1.71228         7.47185         2.64361 
        1.72806         7.40065         2.58625 
        1.74368         7.26148         2.53118 
        1.75933         7.19065         2.47761 
        1.77505         7.10125         2.42534 
        1.79081         6.97226          2.3745 
         1.8065         6.93059         2.32535 
        1.82218         6.79934         2.27763 
        1.83797         6.73906         2.23094 
        1.85367         6.64102         2.18581 
        1.86928         6.61281         2.14222 
        1.88497         6.46051         2.09958 
        1.90073         6.43138         2.05795 
        1.91647         6.34667         2.01749 
        1.93218         6.29282         1.97822 
        1.94787          6.1925         1.94005 
        1.96363         6.12984         1.90274 
        1.97935         6.01733          1.8665 
        1.99499         5.94346         1.83141 
        2.01064         5.90705         1.79717 
         2.0264         5.85292          1.7636 
        2.04216         5.76959         1.73091 
        2.05781          5.6828         1.69926 
        2.07353         5.65816         1.66829 
        2.08928          5.5843         1.63803 
        2.10499         5.54758          1.6086 
        2.12065         5.45464         1.57999 
        2.13633         5.42847         1.55205 
        2.15211         5.35044         1.52461 
        2.16785         5.29934         1.49792 
        2.18349         5.24332         1.47203 
        2.19916         5.18567         1.44671 
        2.21489         5.12577          1.4219 
        2.23063         5.07267         1.39766 
         2.2463         5.02353         1.37409 
        2.26194         4.96221         1.35113 
        2.27765         4.93632         1.32858 
        2.29341         4.88766         1.30649 
        2.30914         4.81602         1.28494 
        2.32486         4.76545          1.2639 
        2.34061          4.7359          1.2433 
        2.35635         4.69754         1.22317 
        2.37203         4.65697         1.20357 
        2.38768         4.58234         1.18443 
        2.40339         4.56124         1.16565 
        2.41914         4.49674         1.14723 
        2.43483         4.48154         1.12927 
         2.4505          4.4355         1.11173 
        2.46622         4.38905         1.09451 
        2.48195         4.33636         1.07765 
        2.49759         4.31465         1.06123 
        2.51328         4.28102         1.04512 
        2.52906         4.24654         1.02924 
        2.54479         4.19398         1.01375 
        2.56049         4.16434        0.998615 
        2.57618         4.12633        0.983801 
        2.59189         4.07896        0.969267 
        2.60758         4.06455         0.95505 
        2.62325         4.01513        0.941136 
        2.63898         3.97017        0.927453 
        2.65468         3.93166        0.914072 
        2.67044         3.91067        0.900898 
        2.68618         3.89371        0.888016 
        2.70184         3.83966        0.875438 
        2.71755         3.81357        0.863073 
        2.73329         3.78897        0.850929 
        2.74897         3.77258        0.839059 
        2.76462         3.73189        0.827443 
        2.78034         3.67782           0.816 
        2.79607         3.65698        0.804763 
        2.81179         3.63536         0.79375 
        2.82749         3.59588        0.782957 
        2.84321         3.58467        0.772353 
        2.85893         3.55555         0.76195 
        2.87462         3.51428        0.751757 
        2.89033         3.49841        0.741741 
        2.90605         3.46381        0.731901 
        2.92176         3.42858        0.722244 
        2.93747         3.40686        0.712767 
        2.95318          3.3821         0.70346 
        2.96891         3.36836        0.694314 
        2.98456         3.33679        0.685373 
        3.00023         3.30264        0.676576 
        3.01596         3.28047        0.667908 
        3.03164         3.27492        0.659416 
        3.04738         3.24067        0.651048 
         3.0631         3.20599        0.642828 
        3.07883         3.18593        0.634751 
        3.09456          3.1725        0.626814 
        3.11026         3.14597        0.619026 
        3.12596          3.1221        0.611371 
        3.14163         3.09505        0.603864 
        3.15734         3.07424        0.596466 
        3.17308         3.05414        0.589174 
        3.18879         3.03216        0.582025 
        3.20447         3.02136        0.575006 
         3.2202         2.97747        0.568081 
         3.2359         2.97266        0.561282 
        3.25157         2.95023        0.554612 
        3.26729         2.93318         0.54803 
        3.28304         2.91414        0.541542 
        3.29877         2.89123        0.535169 
        3.31446         2.87033        0.528912 
        3.33014          2.8556        0.522761 
        3.34585         2.83868        0.516699 
        3.36158         2.80998        0.510724 
        3.37727         2.79389        0.504863 
        3.39294         2.78129          0.4991 
        3.40867         2.75536        0.493406 
        3.42439         2.74164        0.487805 
        3.44008         2.71735        0.482301 
        3.45578          2.7007        0.476879 
        3.47153         2.68605        0.471529 
        3.48724          2.6635         0.46627 
        3.50292         2.65544        0.461104 
        3.51859         2.63934        0.456019 
        3.53431         2.61578        0.450995 
        3.55007          2.6014        0.446035 
        3.56577         2.58416         0.44117 
        3.58146         2.57325        0.436379 
        3.59719         2.56314        0.431648 
        3.61292         2.53505         0.42699 
        3.62859         2.51506        0.422418 
        3.64429         2.50075        0.417905 
        3.66003         2.48834        0.413444 
        3.67578         2.47892         0.40905 
        3.69146         2.45464        0.404737 
        3.70712         2.45084        0.400494 
        3.72284         2.42742        0.396296 
        3.73853         2.41166        0.392166 
        3.75422         2.39932        0.388093 
        3.76993         2.38155        0.384075 
        3.78564         2.37088        0.380116 
        3.80137         2.35572        0.376206 
        3.81707         2.33544         0.37236 
        3.83279         2.32417        0.368564 
        3.84853         2.31011        0.364816 
        3.86424         2.29717        0.361127 
        3.87992          2.2832        0.357495 
        3.89561         2.27266        0.353913 
        3.91134         2.25812        0.350372 
        3.92704         2.24647        0.346885 
        3.94273         2.22781        0.343448 
        3.95845         2.21333        0.340052 
        3.97418         2.20078        0.336701 
        3.98988         2.18431        0.333401 
        4.00554         2.16854        0.330153 
        4.02125         2.15398         0.32694 
        4.03698         2.14653        0.323764 
        4.05268         2.13023        0.320639 
        4.06839         2.11979        0.317552 
         4.0841          2.1091        0.314507 
        4.09983         2.08774        0.311497 
        4.11555         2.07913        0.308529 
        4.13124         2.06448        0.305607 
        4.14693         2.04853        0.302721 
        4.16266         2.03659        0.299866 
        4.17839         2.02447        0.297049 
        4.19408         2.00845        0.294275 
        4.20977         1.99434        0.291536 
        4.22551         1.98709        0.288825 
        4.24123         1.97512        0.286151 
        4.25691         1.96065        0.283518 
        4.27259         1.95351        0.280918 
        4.28831         1.94332        0.278346 
        4.30404         1.92987        0.275803 
        4.31974         1.91752        0.273298 
        4.33543         1.90746        0.270825 
        4.35116         1.88938        0.268377 
        4.36688         1.88811         0.26596 
        4.38255         1.87802        0.263582 
        4.39825         1.86214        0.261229 
        4.41398         1.85354        0.258899 
         4.4297         1.83787        0.256601 
        4.44541         1.82684         0.25433 
        4.46111         1.81865        0.252089 
        4.47683          1.8057        0.249874 
        4.49251         1.80247         0.24769 
        4.50819         1.79174        0.245532 
         4.5239         1.77979        0.243398 
        4.53962         1.77408        0.241286 
        4.55535         1.76299        0.239198 
        4.57106         1.75531        0.237138 
        4.58678         1.74446        0.235102 
         4.6025         1.73477        0.233089 
        4.61821         1.72197        0.231101 
        4.63391         1.71436        0.229138 
         4.6496         1.70623        0.227199 
        4.66532         1.69591        0.225279 
        4.68103         1.69096        0.223383 
        4.69673         1.68183         0.22151 
        4.71241         1.67118         0.21966 
        4.72811         1.66271        0.217829 
        4.74384         1.65572        0.216017 
        4.75955         1.64992        0.214228 
        4.77525         1.64101         0.21246 
        4.79096         1.63071         0.21071 
        4.80669           1.623        0.208979 
         4.8224         1.61744        0.207269 
        4.83809         1.60726        0.205581 
        4.85379         1.60168         0.20391 
         4.8695         1.59154        0.202256 
        4.88521         1.58435        0.200622 
        4.90093         1.57899        0.199006 
        4.91663         1.57376        0.197409 
        4.93234         1.56141        0.195827 
        4.94807          1.5593        0.194262 
        4.96377         1.54998        0.192718 
        4.97943         1.54036        0.191193 
        4.99514         1.53571        0.189681 
        5.01086         1.52658        0.188184 
        5.02654         1.51943        0.186707 
        5.04227         1.51867        0.185242 
          5.058         1.50847        0.183792 
        5.07371         1.50099         0.18236 
        5.08942         1.49543        0.180943 
        5.10513         1.48986        0.179542 
        5.12084         1.48117        0.178154 
        5.13656         1.47495        0.176782 
        5.15225         1.46877        0.175426 
        5.16796         1.46455        0.174082 
        5.18369         1.45666        0.172752 
         5.1994         1.45313        0.171437 
        5.21509         1.44332        0.170138 
        5.23079         1.44093         0.16885 
        5.24649         1.43281        0.167577 
        5.26217         1.42929        0.166318 
        5.27788         1.41884        0.165071 
        5.29359         1.41945        0.163835 
        5.30933          1.4143        0.162611 
        5.32504          1.4054        0.161402 
        5.34073         1.39818        0.160206 
        5.35646         1.39292        0.159019 
        5.37218         1.38597        0.157845 
        5.38789         1.38432        0.156684 
        5.40357         1.38044        0.155537 
        5.41929         1.37294        0.154398 
        5.43502           1.367        0.153271 
         5.4507         1.36139        0.152157 
        5.46639         1.35922        0.151055 
        5.48212         1.35249        0.149961 
        5.49786         1.34769        0.148877 
        5.51353         1.34157        0.147808 
        5.52921         1.33604         0.14675 
        5.54495         1.33025        0.145698 
        5.56066          1.3263        0.144658 
        5.57637         1.32125        0.143628 
        5.59207         1.31585         0.14261 
        5.60778         1.31047          0.1416 
        5.62346         1.30667        0.140602 
        5.63916         1.30258        0.139613 
        5.65487          1.2993        0.138633 
         5.6706           1.293        0.137661 
        5.68633         1.29089        0.136698 
        5.70203         1.28229        0.135746 
        5.71773         1.27948        0.134803 
        5.73344         1.27463        0.133869 
        5.74916         1.27007        0.132943 
        5.76486          1.2654        0.132027 
        5.78054         1.26067        0.131122 
        5.79626         1.25681        0.130222 
          5.812         1.25527        0.129329 
         5.8277         1.24801        0.128448 
        5.84339         1.24512        0.127575 
        5.85911         1.23808        0.126708 
        5.87484         1.23952         0.12585 
        5.89053         1.23511        0.125001 
        5.90623         1.22966         0.12416 
        5.92195         1.22437        0.123325 
        5.93767         1.22173        0.122498 
        5.95336         1.21635         0.12168 
        5.96905         1.21237         0.12087 
        5.98476         1.20541        0.120067 
        6.00048         1.20392         0.11927 
        6.01617         1.19994        0.118481 
        6.03185         1.19716        0.117701 
        6.04756         1.19177        0.116926 
        6.06331         1.19063        0.116156 
        6.07903         1.18552        0.115395 
        6.09473         1.18388        0.114642 
        6.11044         1.17922        0.113894 
        6.12616         1.17365        0.113153 
        6.14186         1.17073         0.11242 
        6.15755         1.16733        0.111693 
        6.17326         1.16263        0.110972 
        6.18898         1.16149        0.110257 
        6.20467         1.15617         0.10955 
        6.22036          1.1536        0.108849 
         6.2361         1.14888        0.108152 
         6.2518         1.14693        0.107463 
        6.26748         1.14104        0.106781 
        6.28319         1.13731        0.106103 
        6.29893         1.13496         0.10543 
        6.31463         1.13311        0.104765 
        6.33033         1.12992        0.104105 
        6.34604         1.12465        0.103451 
        6.36177         1.12277        0.102801 
        6.37747         1.12001        0.102159 
