# k  (h/Mpc)    Pcb(k)  (Mpc/h)^3    Pcb_linear(k) (Mpc/h)^3   ShotnoiseSubtracted = true
      0.0200456         2095.95         2126.48 
      0.0350414         1326.64         1331.79 
      0.0492313         878.299         872.806 
      0.0637834         736.003         725.139 
      0.0800726         589.438         585.206 
       0.096163         394.684         395.705 
       0.111083         296.126         296.759 
       0.126058         271.956         269.716 
       0.142273         239.107         236.368 
       0.158546         184.208         179.388 
        0.17375         144.988         143.687 
       0.188953         134.836         131.485 
       0.204907         126.666         120.423 
       0.220756         104.593         100.702 
        0.23588         88.3479          84.368 
         0.2514         78.5421         76.1537 
       0.267535         73.2952         70.5358 
       0.283568         65.4082         62.4051 
       0.299022         58.2134         54.4328 
       0.314451         51.5599         49.1805 
       0.330372         48.1867         45.5737 
       0.346141          43.847          41.661 
       0.361624         40.1957          37.541 
       0.377134         37.3357         34.1967 
       0.392932          33.142         31.6903 
       0.408854         31.8866          29.369 
       0.424564         29.6332          27.017 
       0.440253         27.2301         24.8961 
       0.455999         25.5183         23.1564 
       0.471626         23.9682         21.6446 
        0.48727         22.5453         20.1829 
       0.502856         21.0208         18.8181 
       0.518488          19.997         17.6111 
       0.534347         19.1488         16.5306 
       0.550082         17.4298         15.5352 
       0.565732         16.1211         14.6044 
       0.581496         15.7676          13.747 
       0.597222         15.1355         12.9737 
       0.612804         14.0795         12.2678 
       0.628434         13.5367         11.6066 
       0.644267         13.0212         10.9829 
       0.660051         12.2706         10.4109 
       0.675724         11.6171         9.88596 
       0.691403         11.2314          9.3968 
       0.707174         10.6974          8.9378 
       0.722871         10.2646         8.51114 
        0.73838         9.80708         8.11679 
       0.754018         9.48586         7.74438 
       0.769845         9.04126         7.39126 
        0.78569           8.729         7.05984 
       0.801365         8.35736         6.75205 
       0.817031         8.06774         6.46292 
       0.832809          7.8429         6.18902 
       0.848511         7.36406         5.93238 
       0.864097         7.15513         5.69221 
       0.879701         6.92247         5.46524 
       0.895507          6.5823          5.2481 
       0.911279         6.48939         5.04333 
        0.92691         6.26145         4.85128 
       0.942635         5.97142         4.66827 
       0.958396         5.78573         4.49439 
       0.974128         5.62677         4.32977 
       0.989692          5.5201         4.17509 
        1.00528         5.29956         4.02779 
        1.02113         5.09306         3.88536 
        1.03692         4.97219         3.75039 
        1.05264         4.83407         3.62249 
        1.06832          4.7052          3.5008 
        1.08405         4.50909         3.38441 
        1.09979         4.40815         3.27329 
        1.11537         4.31139         3.16829 
        1.13105         4.18059          3.0673 
        1.14679         4.08118         2.97035 
        1.16256         3.94107         2.87743 
        1.17828         3.87167         2.78883 
        1.19395          3.7405         2.70427 
         1.2097         3.62902         2.62282 
        1.22537         3.52986         2.54514 
          1.241         3.46163         2.47086 
        1.25666         3.42256         2.39937 
        1.27241         3.28676         2.33041 
        1.28819         3.21035         2.26405 
        1.30392         3.15275         2.20049 
        1.31957         3.08174         2.13967 
        1.33529         2.99865         2.08095 
        1.35108         2.92727          2.0242 
        1.36674         2.87582            1.97 
         1.3824         2.76851         1.91784 
        1.39811         2.72182         1.86741 
        1.41389         2.67773         1.81862 
        1.42964         2.61818         1.77166 
        1.44531         2.56202          1.7266 
        1.46101         2.50283         1.68302 
        1.47667         2.43749         1.64108 
        1.49229         2.41397         1.60069 
        1.50793         2.34472         1.56163 
        1.52367         2.31238         1.52363 
        1.53953         2.24293         1.48664 
        1.55526         2.20638         1.45119 
        1.57092         2.16368         1.41704 
        1.58662         2.11744         1.38392 
        1.60235         2.07806          1.3518 
        1.61809         2.04008         1.32069 
        1.63369         2.00731         1.29084 
        1.64941         1.96119          1.2617 
        1.66519         1.93298         1.23336 
        1.68085         1.88354          1.2061 
        1.69652         1.85039         1.17967 
        1.71228         1.82277         1.15387 
        1.72806         1.78343         1.12884 
        1.74368         1.75042          1.1048 
        1.75933         1.71998         1.08141 
        1.77505         1.69664          1.0586 
        1.79081         1.66177         1.03641 
         1.8065         1.63047         1.01496 
        1.82218         1.61247         0.99413 
        1.83797         1.59217        0.973749 
        1.85367         1.55899        0.954055 
        1.86928         1.53709        0.935026 
        1.88497         1.50475        0.916416 
        1.90073         1.47435        0.898246 
        1.91647         1.45315        0.880587 
        1.93218         1.43965        0.863444 
        1.94787         1.41376        0.846784 
        1.96363         1.38291          0.8305 
        1.97935         1.36259         0.81468 
        1.99499          1.3362        0.799364 
        2.01064         1.32181        0.784421 
         2.0264         1.30766        0.769769 
        2.04216         1.28456        0.755499 
        2.05781         1.25946        0.741684 
        2.07353         1.24811        0.728166 
        2.08928         1.22867        0.714958 
        2.10499         1.20704        0.702114 
        2.12065         1.19857        0.689626 
        2.13633         1.17595        0.677432 
        2.15211         1.15844        0.665456 
        2.16785         1.13755        0.653805 
        2.18349         1.12474        0.642506 
        2.19916         1.10486        0.631453 
        2.21489         1.09107        0.620624 
        2.23063         1.07294        0.610043 
         2.2463         1.06273        0.599757 
        2.26194         1.04345        0.589735 
        2.27765         1.03011        0.579892 
        2.29341         1.01926        0.570249 
        2.30914         1.00317        0.560847 
        2.32486        0.997985        0.551662 
        2.34061         0.97773        0.542669 
        2.35635        0.964549        0.533885 
        2.37203        0.954462        0.525327 
        2.38768        0.943243        0.516976 
        2.40339        0.931263        0.508776 
        2.41914        0.919606        0.500736 
        2.43483        0.908127        0.492899 
         2.4505        0.893473        0.485243 
        2.46622        0.883332        0.477725 
        2.48195        0.873482        0.470366 
        2.49759         0.86408        0.463202 
        2.51328        0.849553        0.456169 
        2.52906        0.840233        0.449239 
        2.54479        0.831442        0.442479 
        2.56049        0.821391        0.435871 
        2.57618        0.812929        0.429405 
        2.59189        0.802603        0.423061 
        2.60758        0.790582        0.416856 
        2.62325        0.783917        0.410783 
        2.63898        0.775334        0.404811 
        2.65468        0.765824         0.39897 
        2.67044        0.758706         0.39322 
        2.68618        0.745301        0.387597 
        2.70184        0.738994        0.382107 
        2.71755        0.729358         0.37671 
        2.73329        0.723697         0.37141 
        2.74897        0.715199        0.366229 
        2.76462        0.707632        0.361159 
        2.78034        0.700696        0.356164 
        2.79607        0.690704        0.351259 
        2.81179         0.68505        0.346453 
        2.82749        0.676776        0.341742 
        2.84321         0.67136        0.337113 
        2.85893        0.663468        0.332572 
        2.87462        0.659298        0.328123 
        2.89033        0.647204        0.323752 
        2.90605        0.642341        0.319457 
        2.92176        0.636204        0.315242 
        2.93747        0.629621        0.311106 
        2.95318        0.623975        0.307043 
        2.96891        0.617261        0.303051 
        2.98456        0.613457        0.299149 
        3.00023        0.605522        0.295309 
        3.01596        0.600967        0.291525 
        3.03164        0.596355        0.287819 
        3.04738        0.587577        0.284166 
         3.0631        0.581488        0.280579 
        3.07883        0.577058        0.277053 
        3.09456        0.572199        0.273589 
        3.11026        0.566267         0.27019 
        3.12596        0.559345        0.266848 
        3.14163        0.556621        0.263572 
        3.15734        0.550873        0.260343 
        3.17308        0.545306         0.25716 
        3.18879        0.539741         0.25404 
        3.20447        0.536365        0.250976 
         3.2202         0.53149        0.247953 
         3.2359        0.526374        0.244986 
        3.25157        0.521742        0.242074 
        3.26729        0.517005        0.239202 
        3.28304        0.513206         0.23637 
        3.29877        0.506937        0.233588 
        3.31446        0.503293        0.230857 
        3.33014         0.50139        0.228172 
        3.34585        0.497152        0.225526 
        3.36158        0.490096        0.222919 
        3.37727        0.488372         0.22036 
        3.39294        0.483935        0.217845 
        3.40867        0.479493         0.21536 
        3.42439        0.477031        0.212915 
        3.44008        0.472003        0.210513 
        3.45578        0.470216        0.208146 
        3.47153        0.466138        0.205811 
        3.48724        0.462085        0.203515 
        3.50292        0.459177        0.201261 
        3.51859        0.455516        0.199041 
        3.53431        0.451471        0.196848 
        3.55007        0.449499        0.194683 
        3.56577        0.445165         0.19256 
        3.58146        0.442438        0.190469 
        3.59719        0.438904        0.188404 
        3.61292        0.436238        0.186371 
        3.62859        0.431709        0.184375 
        3.64429        0.429704        0.182405 
        3.66003        0.426565        0.180458 
        3.67578        0.423496         0.17854 
        3.69146        0.420409        0.176658 
        3.70712        0.417121        0.174806 
        3.72284        0.414704        0.172973 
        3.73853        0.411084        0.171171 
        3.75422        0.408398        0.169393 
        3.76993        0.406927        0.167639 
        3.78564          0.4035        0.165911 
        3.80137         0.39893        0.164205 
        3.81707        0.398312        0.162526 
        3.83279        0.394093        0.160869 
        3.84853        0.391272        0.159233 
        3.86424        0.389527        0.157623 
        3.87992        0.386365        0.156038 
        3.89561         0.38439        0.154474 
        3.91134        0.380599        0.152929 
        3.92704        0.377853        0.151407 
        3.94273        0.376161        0.149907 
        3.95845        0.373255        0.148424 
        3.97418         0.37003        0.146962 
        3.98988        0.367605        0.145521 
        4.00554        0.365887        0.144104 
        4.02125          0.3618        0.142701 
        4.03698        0.357964        0.141315 
        4.05268        0.355053        0.139951 
        4.06839        0.351708        0.138604 
         4.0841        0.349154        0.137275 
        4.09983        0.345589        0.135961 
        4.11555        0.343078        0.134665 
        4.13124        0.339571         0.13339 
        4.14693        0.336678         0.13213 
        4.16266        0.333449        0.130884 
        4.17839        0.331483        0.129655 
        4.19408         0.32892        0.128444 
        4.20977        0.325388        0.127248 
        4.22551         0.32337        0.126065 
        4.24123        0.320845        0.124898 
        4.25691        0.318255        0.123749 
        4.27259        0.316819        0.122614 
        4.28831        0.313824        0.121491 
        4.30404        0.311538        0.120381 
        4.31974        0.309742        0.119288 
        4.33543        0.306992        0.118208 
        4.35116        0.306276         0.11714 
        4.36688        0.303181        0.116085 
        4.38255        0.301779        0.115047 
        4.39825        0.300027         0.11402 
        4.41398        0.297208        0.113003 
         4.4297        0.295776           0.112 
        4.44541        0.294558        0.111009 
        4.46111        0.294128        0.110031 
        4.47683        0.291086        0.109064 
        4.49251        0.290035        0.108111 
        4.50819        0.288692        0.107169 
         4.5239        0.287582        0.106237 
        4.53962        0.286378        0.105315 
        4.55535        0.284572        0.104404 
        4.57106        0.283623        0.103505 
        4.58678        0.282078        0.102616 
         4.6025        0.280769        0.101738 
        4.61821        0.279679         0.10087 
        4.63391        0.279054        0.100013 
         4.6496        0.277306       0.0991667 
        4.66532        0.277033       0.0983288 
        4.68103        0.276209       0.0975011 
        4.69673        0.275169       0.0966836 
        4.71241        0.274196       0.0958764 
        4.72811        0.274078       0.0950772 
        4.74384        0.272481        0.094286 
        4.75955        0.272618       0.0935051 
        4.77525        0.271503       0.0927335 
        4.79096        0.271765       0.0919696 
        4.80669        0.270609       0.0912141 
         4.8224        0.269883       0.0904679 
        4.83809        0.269148       0.0897309 
        4.85379        0.269778       0.0890017 
         4.8695        0.269054         0.08828 
        4.88521        0.269093       0.0875666 
        4.90093        0.269042       0.0868611 
        4.91663        0.268365        0.086164 
        4.93234        0.268035       0.0854738 
        4.94807        0.267845       0.0847908 
        4.96377        0.268353       0.0841165 
        4.97943        0.268764        0.083451 
        4.99514        0.268558        0.082791 
        5.01086        0.268274       0.0821377 
        5.02654        0.269036       0.0814931 
        5.04227        0.268845       0.0808535 
          5.058        0.268835       0.0802205 
        5.07371        0.268985       0.0795956 
        5.08942        0.269476       0.0789773 
        5.10513        0.270112       0.0783655 
        5.12084        0.270588       0.0777599 
        5.13656        0.270961       0.0771608 
        5.15225         0.27159       0.0765691 
        5.16796        0.271725       0.0759827 
        5.18369        0.273485       0.0754019 
         5.1994        0.273839       0.0748282 
        5.21509        0.274122        0.074261 
        5.23079        0.274739       0.0736991 
        5.24649        0.275368       0.0731435 
        5.26217        0.275991       0.0725939 
        5.27788        0.276072       0.0720493 
        5.29359        0.277881       0.0715102 
        5.30933        0.278509       0.0709758 
        5.32504        0.279779       0.0704478 
        5.34073        0.280872       0.0699258 
        5.35646        0.281552        0.069408 
        5.37218        0.283906       0.0688954 
        5.38789        0.284061       0.0683888 
        5.40357         0.28508        0.067888 
        5.41929        0.285584        0.067391 
        5.43502        0.287641        0.066899 
         5.4507        0.288723        0.066413 
        5.46639        0.289776       0.0659319 
        5.48212        0.292014       0.0654544 
        5.49786        0.292582       0.0649811 
        5.51353        0.293922       0.0645148 
        5.52921        0.296114       0.0640526 
        5.54495        0.297755       0.0635937 
        5.56066        0.298851       0.0631397 
        5.57637        0.299808       0.0626903 
        5.59207        0.301473       0.0622456 
        5.60778        0.302858       0.0618051 
        5.62346        0.305387       0.0613695 
        5.63916        0.306992       0.0609377 
        5.65487        0.308275       0.0605098 
         5.6706        0.310555       0.0600855 
        5.68633        0.312305       0.0596652 
        5.70203         0.31377       0.0592498 
        5.71773        0.315421       0.0588384 
        5.73344        0.317297       0.0584307 
        5.74916        0.319574       0.0580265 
        5.76486        0.321743       0.0576267 
        5.78054        0.323662       0.0572313 
        5.79626        0.323517       0.0568386 
          5.812        0.326218       0.0564491 
         5.8277        0.327901       0.0560644 
        5.84339        0.331523       0.0556833 
        5.85911        0.331938       0.0553051 
        5.87484        0.333266       0.0549304 
        5.89053        0.337221       0.0545599 
        5.90623        0.339202       0.0541928 
        5.92195        0.339774       0.0538283 
        5.93767        0.342858       0.0534674 
        5.95336        0.344261       0.0531105 
        5.96905        0.346054       0.0527569 
        5.98476         0.34814       0.0524061 
        6.00048        0.350947       0.0520584 
        6.01617        0.353856       0.0517143 
        6.03185        0.354571       0.0513737 
        6.04756        0.356693       0.0510354 
        6.06331        0.360106       0.0506994 
        6.07903        0.362265       0.0503672 
        6.09473        0.363534       0.0500383 
        6.11044        0.366213        0.049712 
        6.12616        0.368179       0.0493887 
        6.14186        0.369706       0.0490686 
        6.15755        0.372061       0.0487513 
        6.17326        0.375093       0.0484367 
        6.18898        0.376251       0.0481246 
        6.20467        0.378766       0.0478159 
        6.22036        0.381001       0.0475099 
         6.2361        0.382728       0.0472058 
         6.2518        0.385119       0.0469049 
        6.26748        0.386335       0.0466072 
        6.28319        0.389373       0.0463113 
        6.29893         0.39288       0.0460178 
        6.31463        0.392353       0.0457273 
        6.33033        0.395404       0.0454394 
        6.34604        0.396202       0.0451537 
        6.36177        0.399452       0.0448703 
        6.37747        0.402836       0.0445899 
