# k  (h/Mpc)    Pcb(k)  (Mpc/h)^3    Pcb_linear(k) (Mpc/h)^3   ShotnoiseSubtracted = true
      0.0200456         19998.3         20335.6 
      0.0350414         13262.2         12735.9 
      0.0492313         8283.78         8346.68 
      0.0637834         6697.72         6934.53 
      0.0800726         5312.18         5596.34 
       0.096163         4026.19         3784.14 
       0.111083         3107.23         2837.92 
       0.126058         2609.13         2579.31 
       0.142273          2316.2         2260.39 
       0.158546         1852.76         1715.49 
        0.17375         1593.92         1374.09 
       0.188953            1502         1257.39 
       0.204907         1293.86         1151.61 
       0.220756         1161.87         963.016 
        0.23588         1021.39         806.815 
         0.2514         911.828         728.261 
       0.267535         886.089         674.536 
       0.283568         778.708         596.783 
       0.299022         738.621         520.543 
       0.314451         760.735         470.315 
       0.330372          654.42         435.823 
       0.346141          602.33         398.406 
       0.361624          575.32         359.006 
       0.377134         546.395         327.024 
       0.392932         521.323         303.056 
       0.408854         499.005         280.857 
       0.424564          484.02         258.365 
       0.440253         441.249         238.082 
       0.455999         420.757         221.445 
       0.471626         428.303         206.988 
        0.48727         401.912          193.01 
       0.502856         377.795         179.959 
       0.518488         371.765         168.415 
       0.534347         351.804         158.083 
       0.550082         335.474         148.564 
       0.565732         333.056         139.663 
       0.581496         321.918         131.463 
       0.597222         312.794         124.068 
       0.612804         303.328         117.317 
       0.628434          293.07         110.995 
       0.644267         281.481          105.03 
       0.660051         278.457         99.5599 
       0.675724         271.686         94.5398 
       0.691403         266.901          89.862 
       0.707174         256.639         85.4726 
       0.722871         252.855         81.3924 
        0.73838         248.234         77.6212 
       0.754018         239.402         74.0598 
       0.769845         239.363         70.6829 
        0.78569         232.018         67.5135 
       0.801365         224.857         64.5701 
       0.817031          223.64         61.8052 
       0.832809         218.338         59.1858 
       0.848511         213.767         56.7316 
       0.864097         207.366         54.4348 
       0.879701         207.448         52.2643 
       0.895507         202.306         50.1878 
       0.911279          197.36         48.2295 
        0.92691         194.434          46.393 
       0.942635         192.533         44.6428 
       0.958396         187.883         42.9801 
       0.974128         185.885         41.4058 
       0.989692         179.323         39.9265 
        1.00528         179.162          38.518 
        1.02113         176.488         37.1558 
        1.03692          172.67         35.8651 
        1.05264         169.251          34.642 
        1.06832         168.998         33.4783 
        1.08405         164.741         32.3653 
        1.09979         162.877         31.3026 
        1.11537         161.354         30.2985 
        1.13105         157.713         29.3327 
        1.14679          156.63         28.4056 
        1.16256         153.457          27.517 
        1.17828         152.185         26.6696 
        1.19395         148.713         25.8611 
         1.2097         147.997         25.0821 
        1.22537         146.604         24.3392 
          1.241         142.168         23.6289 
        1.25666         141.695         22.9453 
        1.27241         138.669         22.2858 
        1.28819         137.428         21.6512 
        1.30392         135.934         21.0434 
        1.31957         133.197         20.4618 
        1.33529         130.759         19.9002 
        1.35108         130.144         19.3576 
        1.36674         127.609         18.8392 
         1.3824         126.887         18.3404 
        1.39811         125.316         17.8581 
        1.41389         122.511         17.3915 
        1.42964           120.9         16.9424 
        1.44531         120.225         16.5115 
        1.46101         117.754         16.0947 
        1.47667         117.583         15.6937 
        1.49229         116.141         15.3075 
        1.50793         113.769         14.9339 
        1.52367         112.377         14.5705 
        1.53953         110.897         14.2168 
        1.55526         110.108         13.8777 
        1.57092         109.215         13.5512 
        1.58662         107.191         13.2345 
        1.60235         106.045         12.9273 
        1.61809         105.144         12.6298 
        1.63369         103.235         12.3443 
        1.64941         103.062         12.0657 
        1.66519         101.312         11.7947 
        1.68085         99.6348          11.534 
        1.69652         98.9465         11.2812 
        1.71228         97.4501         11.0345 
        1.72806         97.1893         10.7951 
        1.74368         95.7597         10.5652 
        1.75933         94.6035         10.3416 
        1.77505            93.6         10.1235 
        1.79081         92.1892         9.91125 
         1.8065         90.8363         9.70607 
        1.82218         90.0774         9.50691 
        1.83797         89.7806           9.312 
        1.85367         87.9936         9.12366 
        1.86928         87.6721         8.94169 
        1.88497         86.0514         8.76372 
        1.90073         85.4906         8.58996 
        1.91647         84.3045         8.42109 
        1.93218         83.5395         8.25714 
        1.94787         82.1812         8.09783 
        1.96363         81.4748          7.9421 
        1.97935          80.858         7.79082 
        1.99499         80.2771         7.64435 
        2.01064         78.7191         7.50145 
         2.0264         77.9461         7.36133 
        2.04216         76.9022         7.22487 
        2.05781         76.0874         7.09275 
        2.07353         75.4999         6.96348 
        2.08928         74.6612         6.83717 
        2.10499         73.7234         6.71435 
        2.12065         73.2425         6.59492 
        2.13633         72.2248         6.47831 
        2.15211         71.2284         6.36379 
        2.16785         70.1592         6.25236 
        2.18349         69.6234         6.14431 
        2.19916         69.1028         6.03861 
        2.21489          68.164         5.93505 
        2.23063         67.1501         5.83386 
         2.2463         66.7813          5.7355 
        2.26194         66.3795         5.63966 
        2.27765         65.1378         5.54553 
        2.29341          64.614         5.45332 
        2.30914         63.8996          5.3634 
        2.32486          63.424         5.27557 
        2.34061         62.2461         5.18956 
        2.35635         61.8739         5.10557 
        2.37203         61.0196         5.02373 
        2.38768         60.7575         4.94386 
        2.40339         60.0052         4.86544 
        2.41914         58.9884         4.78856 
        2.43483         58.8885         4.71361 
         2.4505         58.2082          4.6404 
        2.46622         57.6363          4.5685 
        2.48195         56.8996         4.49813 
        2.49759         56.4975         4.42962 
        2.51328         55.7125         4.36236 
        2.52906         55.3587         4.29609 
        2.54479          54.748         4.23144 
        2.56049         53.7669         4.16825 
        2.57618         53.4476         4.10642 
        2.59189         52.8258         4.04575 
        2.60758         52.2959         3.98641 
        2.62325         52.0747         3.92833 
        2.63898         51.5244         3.87122 
        2.65468         50.9255         3.81536 
        2.67044         50.3787         3.76038 
        2.68618         49.8449         3.70661 
        2.70184         49.4418         3.65411 
        2.71755         48.6341         3.60249 
        2.73329         48.3081         3.55181 
        2.74897         47.8808         3.50226 
        2.76462         47.5191         3.45378 
        2.78034         47.0466         3.40601 
        2.79607         46.4095         3.35911 
        2.81179         45.9419         3.31314 
        2.82749         45.6267         3.26809 
        2.84321         45.2014         3.22383 
        2.85893         44.6332          3.1804 
        2.87462         44.2706         3.13786 
        2.89033         43.5783         3.09605 
        2.90605         43.2192         3.05498 
        2.92176         43.0975         3.01467 
        2.93747         42.5661         2.97512 
        2.95318         42.1228         2.93626 
        2.96891         41.6122         2.89809 
        2.98456         41.3596         2.86077 
        3.00023         40.8673         2.82405 
        3.01596         40.2954         2.78787 
        3.03164         40.0125         2.75242 
        3.04738         39.7429          2.7175 
         3.0631         39.5054         2.68319 
        3.07883         39.0361         2.64947 
        3.09456         38.5955         2.61634 
        3.11026         38.1533         2.58383 
        3.12596         37.8694         2.55188 
        3.14163         37.5047         2.52055 
        3.15734          37.097         2.48967 
        3.17308         36.8142         2.45923 
        3.18879         36.4963         2.42939 
        3.20447         36.0042         2.40009 
         3.2202           35.71         2.37119 
         3.2359         35.4744         2.34281 
        3.25157         35.0805         2.31497 
        3.26729         34.8278         2.28749 
        3.28304         34.4455         2.26042 
        3.29877         34.0067         2.23381 
        3.31446         33.7307          2.2077 
        3.33014         33.4318         2.18202 
        3.34585         33.0379         2.15672 
        3.36158         32.8424         2.13178 
        3.37727         32.4586         2.10732 
        3.39294         32.2484         2.08326 
        3.40867         31.9397         2.05949 
        3.42439         31.6469         2.03611 
        3.44008         31.3802         2.01314 
        3.45578         31.1267         1.99051 
        3.47153         30.8638         1.96818 
        3.48724         30.4834         1.94623 
        3.50292          30.327         1.92466 
        3.51859         29.9943         1.90344 
        3.53431         29.7157         1.88247 
        3.55007         29.4468         1.86177 
        3.56577         29.1018         1.84146 
        3.58146         28.8355         1.82146 
        3.59719         28.6592         1.80171 
        3.61292         28.4093         1.78227 
        3.62859         28.1223         1.76319 
        3.64429         27.8747         1.74435 
        3.66003         27.6173         1.72573 
        3.67578         27.3638         1.70739 
        3.69146          27.147         1.68938 
        3.70712         26.9841         1.67167 
        3.72284         26.7637         1.65415 
        3.73853         26.5774         1.63691 
        3.75422         26.2138         1.61991 
        3.76993         26.0446         1.60314 
        3.78564         25.8005         1.58662 
        3.80137         25.5377          1.5703 
        3.81707         25.3459         1.55424 
        3.83279         25.0861          1.5384 
        3.84853         24.8912         1.52275 
        3.86424          24.708         1.50736 
        3.87992          24.471          1.4922 
        3.89561         24.2342         1.47724 
        3.91134         24.0532         1.46247 
        3.92704         23.7776         1.44791 
        3.94273         23.5953         1.43356 
        3.95845         23.4452         1.41939 
        3.97418         23.2645          1.4054 
        3.98988         22.9639         1.39163 
        4.00554         22.8112         1.37807 
        4.02125         22.6331         1.36466 
        4.03698         22.4013          1.3514 
        4.05268         22.2501         1.33836 
        4.06839         22.0465         1.32547 
         4.0841         21.8342         1.31276 
        4.09983         21.7047          1.3002 
        4.11555         21.5264         1.28781 
        4.13124         21.3531         1.27562 
        4.14693         21.1763         1.26357 
        4.16266         21.0501         1.25165 
        4.17839         20.8496         1.23989 
        4.19408         20.6616         1.22832 
        4.20977         20.5188         1.21688 
        4.22551         20.3182         1.20556 
        4.24123         20.1701          1.1944 
        4.25691         20.0382         1.18342 
        4.27259         19.7994         1.17256 
        4.28831         19.6691         1.16182 
        4.30404         19.5085         1.15121 
        4.31974         19.3467         1.14075 
        4.33543         19.1612         1.13043 
        4.35116         19.0666         1.12021 
        4.36688         18.8449         1.11013 
        4.38255         18.7275          1.1002 
        4.39825         18.5922         1.09038 
        4.41398         18.4507         1.08065 
         4.4297         18.2856         1.07106 
        4.44541          18.128         1.06158 
        4.46111         17.9625         1.05223 
        4.47683         17.8606         1.04298 
        4.49251         17.6738         1.03387 
        4.50819          17.537         1.02486 
         4.5239         17.4761         1.01595 
        4.53962         17.2327         1.00713 
        4.55535         17.1612         0.99842 
        4.57106         17.0188        0.989821 
        4.58678         16.8561        0.981323 
         4.6025         16.7121        0.972922 
        4.61821         16.5919        0.964621 
        4.63391         16.4575        0.956429 
         4.6496         16.3068        0.948335 
        4.66532         16.1833        0.940322 
        4.68103         16.0939        0.932406 
        4.69673         15.9682        0.924589 
        4.71241         15.8306         0.91687 
        4.72811         15.7313        0.909226 
        4.74384         15.5984        0.901661 
        4.75955         15.4624        0.894193 
        4.77525         15.3267        0.886814 
        4.79096         15.2429        0.879509 
        4.80669         15.0822        0.872284 
         4.8224         14.9945        0.865148 
        4.83809         14.8889          0.8581 
        4.85379         14.7579        0.851127 
         4.8695         14.6821        0.844225 
        4.88521          14.558        0.837403 
        4.90093         14.4396        0.830656 
        4.91663          14.309         0.82399 
        4.93234         14.2499        0.817389 
        4.94807         14.1263        0.810857 
        4.96377         14.0436        0.804409 
        4.97943         13.9135        0.798045 
        4.99514         13.7877        0.791733 
        5.01086         13.7046        0.785486 
        5.02654         13.6024        0.779321 
        5.04227         13.4963        0.773205 
          5.058         13.3894        0.767152 
        5.07371         13.2964        0.761176 
        5.08942         13.2219        0.755263 
        5.10513         13.0852        0.749412 
        5.12084         13.0013        0.743621 
        5.13656         12.9115        0.737892 
        5.15225         12.8096        0.732233 
        5.16796         12.7307        0.726625 
        5.18369         12.6106        0.721071 
         5.1994         12.5543        0.715585 
        5.21509         12.4519        0.710161 
        5.23079         12.3526        0.704788 
        5.24649         12.2571        0.699474 
        5.26217         12.1746        0.694219 
        5.27788         12.1056         0.68901 
        5.29359         11.9748        0.683855 
        5.30933         11.9046        0.678745 
        5.32504         11.8275        0.673695 
        5.34073         11.7625        0.668703 
        5.35646         11.6506        0.663752 
        5.37218         11.5747         0.65885 
        5.38789         11.4818        0.654005 
        5.40357         11.3899        0.649215 
        5.41929         11.3529        0.644463 
        5.43502         11.2593        0.639757 
         5.4507          11.163         0.63511 
        5.46639         11.0978        0.630509 
        5.48212         11.0155        0.625943 
        5.49786          10.921        0.621416 
        5.51353         10.8722        0.616957 
        5.52921         10.7866        0.612538 
        5.54495         10.7153        0.608149 
        5.56066         10.6357        0.603807 
        5.57637         10.5701        0.599509 
        5.59207         10.4696        0.595257 
        5.60778         10.4367        0.591044 
        5.62346         10.3336        0.586879 
        5.63916         10.2786        0.582749 
        5.65487         10.2061        0.578657 
         5.6706          10.129          0.5746 
        5.68633         10.0535        0.570581 
        5.70203         9.99728        0.566608 
        5.71773         9.91267        0.562674 
        5.73344         9.85383        0.558775 
        5.74916         9.78196         0.55491 
        5.76486         9.72304        0.551087 
        5.78054         9.66583        0.547306 
        5.79626         9.57626        0.543549 
          5.812         9.52315        0.539825 
         5.8277         9.43601        0.536146 
        5.84339         9.38895        0.532502 
        5.85911         9.31596        0.528884 
        5.87484         9.27596        0.525301 
        5.89053         9.21708        0.521759 
        5.90623         9.14588        0.518247 
        5.92195         9.06551        0.514762 
        5.93767         9.01561        0.511311 
        5.95336         8.95709        0.507898 
        5.96905         8.88748        0.504517 
        5.98476         8.85337        0.501162 
        6.00048         8.78741        0.497836 
        6.01617         8.71977        0.494546 
        6.03185         8.65517        0.491289 
        6.04756         8.60434        0.488054 
        6.06331          8.5477        0.484841 
        6.07903         8.50432        0.481664 
        6.09473         8.43185        0.478518 
        6.11044         8.38332        0.475398 
        6.12616         8.33605        0.472306 
        6.14186         8.30352        0.469245 
        6.15755          8.2421        0.466211 
        6.17326          8.1703        0.463202 
        6.18898         8.12746        0.460218 
        6.20467         8.07368        0.457265 
        6.22036         8.01402        0.454339 
         6.2361         7.98196        0.451431 
         6.2518         7.91786        0.448553 
        6.26748         7.87528        0.445707 
        6.28319         7.83032        0.442877 
        6.29893         7.75898         0.44007 
        6.31463         7.71486        0.437292 
        6.33033         7.65704        0.434538 
        6.34604         7.62544        0.431807 
        6.36177         7.57033        0.429097 
        6.37747         7.51965        0.426414 
