# k  (h/Mpc)    Pcb(k)  (Mpc/h)^3    Pcb_linear(k) (Mpc/h)^3   ShotnoiseSubtracted = true
      0.0200456         7712.65          7840.5 
      0.0350414         4827.98          4910.4 
      0.0492313         3226.33         3218.11 
      0.0637834          2740.5         2673.65 
      0.0800726         2193.44          2157.7 
       0.096163         1448.59            1459 
       0.111083         1091.84         1094.17 
       0.126058         1016.02         994.466 
       0.142273         899.508         871.508 
       0.158546         712.343         661.417 
        0.17375         552.971         529.786 
       0.188953         528.792         484.795 
       0.204907         502.175         444.011 
       0.220756         417.795         371.296 
        0.23588         358.148         311.072 
         0.2514         313.201         280.785 
       0.267535         299.702         260.071 
       0.283568         270.791         230.093 
       0.299022         246.948         200.698 
       0.314451         224.423         181.333 
       0.330372         208.214         168.034 
       0.346141         186.526         153.607 
       0.361624         177.453         138.417 
       0.377134         165.092         126.086 
       0.392932         150.246         116.845 
       0.408854         143.972         108.286 
       0.424564         137.413         99.6139 
       0.440253         129.289         91.7939 
       0.455999         120.757         85.3794 
       0.471626          112.06         79.8053 
        0.48727         107.707         74.4161 
       0.502856         103.016          69.384 
       0.518488         99.5717         64.9335 
       0.534347         95.2952         60.9498 
       0.550082         87.6506         57.2797 
       0.565732         83.8308         53.8478 
       0.581496         80.7211         50.6864 
       0.597222         77.8208         47.8353 
       0.612804          73.911         45.2323 
       0.628434         71.9917         42.7946 
       0.644267          69.421         40.4949 
       0.660051         67.4873         38.3859 
       0.675724         64.6837         36.4503 
       0.691403          62.623         34.6468 
       0.707174         60.3215         32.9544 
       0.722871         58.8358         31.3813 
        0.73838         57.4091         29.9273 
       0.754018         54.4325         28.5542 
       0.769845         53.2287         27.2522 
        0.78569         51.8494         26.0302 
       0.801365         49.9667         24.8954 
       0.817031         48.4853         23.8293 
       0.832809         47.8237         22.8194 
       0.848511         45.4248         21.8732 
       0.864097          44.524         20.9876 
       0.879701         43.6102         20.1508 
       0.895507         42.9437         19.3502 
       0.911279         41.7053         18.5952 
        0.92691         40.8272         17.8871 
       0.942635         39.1902         17.2123 
       0.958396         39.0155         16.5712 
       0.974128         37.8795         15.9642 
       0.989692         37.2397         15.3939 
        1.00528         36.3204         14.8508 
        1.02113         35.3463         14.3256 
        1.03692         34.4018          13.828 
        1.05264         34.2755         13.3564 
        1.06832         33.0279         12.9077 
        1.08405         32.6374         12.4786 
        1.09979         32.1538         12.0689 
        1.11537         30.9874         11.6817 
        1.13105         31.1152         11.3094 
        1.14679         30.4352         10.9519 
        1.16256         29.6595         10.6093 
        1.17828         29.0484         10.2826 
        1.19395         28.5783         9.97087 
         1.2097         28.1858         9.67055 
        1.22537         27.9852         9.38412 
          1.241         27.1665         9.11025 
        1.25666         26.5805         8.84669 
        1.27241         26.2386          8.5924 
        1.28819         25.5709         8.34775 
        1.30392         25.2968          8.1134 
        1.31957         25.0764         7.88915 
        1.33529         24.7957         7.67262 
        1.35108         24.3067         7.46341 
        1.36674         23.8867         7.26355 
         1.3824          23.304         7.07124 
        1.39811         23.2341         6.88531 
        1.41389         22.9224         6.70539 
        1.42964         22.4063         6.53224 
        1.44531         22.2877          6.3661 
        1.46101         21.7425         6.20542 
        1.47667         21.5637          6.0508 
        1.49229         21.3239         5.90189 
        1.50793         21.0462         5.75786 
        1.52367         20.7645         5.61774 
        1.53953         20.6066         5.48137 
        1.55526         20.1819         5.35064 
        1.57092         19.8804         5.22474 
        1.58662         19.6784         5.10262 
        1.60235         19.4215         4.98419 
        1.61809         19.1692         4.86948 
        1.63369         18.9714         4.75942 
        1.64941         18.6602         4.65199 
        1.66519         18.4917         4.54751 
        1.68085         18.2349         4.44701 
        1.69652         18.0021         4.34952 
        1.71228         17.8884         4.25443 
        1.72806         17.5688         4.16211 
        1.74368         17.3355         4.07348 
        1.75933         17.1695         3.98726 
        1.77505          17.059         3.90316 
        1.79081         16.7878         3.82134 
         1.8065         16.6651         3.74223 
        1.82218         16.4532         3.66544 
        1.83797         16.1617         3.59029 
        1.85367         16.0361         3.51768 
        1.86928         15.8679         3.44752 
        1.88497         15.6343          3.3789 
        1.90073         15.6312         3.31191 
        1.91647         15.3519          3.2468 
        1.93218         15.2193         3.18359 
        1.94787         15.0595         3.12216 
        1.96363          14.987         3.06212 
        1.97935         14.8021         3.00379 
        1.99499         14.5756         2.94732 
        2.01064         14.5181         2.89223 
         2.0264         14.2675          2.8382 
        2.04216         14.1539         2.78559 
        2.05781         13.9277         2.73465 
        2.07353         13.8504         2.68481 
        2.08928         13.7412         2.63611 
        2.10499         13.5877         2.58875 
        2.12065         13.3755         2.54271 
        2.13633         13.3255         2.49775 
        2.15211         13.1429         2.45359 
        2.16785          13.043         2.41063 
        2.18349         12.9247         2.36897 
        2.19916         12.8267         2.32822 
        2.21489          12.671         2.28829 
        2.23063         12.5582         2.24928 
         2.2463         12.4315         2.21135 
        2.26194         12.3348          2.1744 
        2.27765         12.2183         2.13811 
        2.29341         12.0762         2.10256 
        2.30914         11.9717         2.06789 
        2.32486         11.9065         2.03402 
        2.34061         11.7846         2.00087 
        2.35635         11.6383         1.96848 
        2.37203         11.5477         1.93693 
        2.38768         11.4408         1.90613 
        2.40339         11.2963          1.8759 
        2.41914           11.22         1.84625 
        2.43483         11.1712         1.81736 
         2.4505         11.0018         1.78913 
        2.46622         10.9208         1.76141 
        2.48195         10.8607         1.73428 
        2.49759         10.7352         1.70786 
        2.51328         10.6263         1.68193 
        2.52906         10.5592         1.65638 
        2.54479         10.4526         1.63145 
        2.56049         10.4141         1.60709 
        2.57618         10.3222         1.58325 
        2.59189         10.1809         1.55986 
        2.60758         10.1199         1.53698 
        2.62325         10.0671         1.51459 
        2.63898         9.93532         1.49257 
        2.65468         9.85898         1.47104 
        2.67044          9.7466         1.44983 
        2.68618         9.68618          1.4291 
        2.70184         9.60024         1.40886 
        2.71755         9.50297         1.38896 
        2.73329         9.43024         1.36942 
        2.74897         9.36044         1.35032 
        2.76462         9.31514         1.33162 
        2.78034         9.16428         1.31321 
        2.79607          9.1237         1.29512 
        2.81179         9.03009          1.2774 
        2.82749         8.99165         1.26003 
        2.84321         8.89918         1.24296 
        2.85893         8.82758         1.22622 
        2.87462         8.77438         1.20982 
        2.89033         8.69021          1.1937 
        2.90605         8.57758         1.17786 
        2.92176         8.55366         1.16232 
        2.93747         8.51756         1.14707 
        2.95318          8.3964         1.13209 
        2.96891          8.3434         1.11738 
        2.98456         8.27324         1.10299 
        3.00023         8.22895         1.08883 
        3.01596         8.15081         1.07488 
        3.03164         8.11107         1.06121 
        3.04738          8.0341         1.04775 
         3.0631         7.98372         1.03452 
        3.07883         7.89521         1.02152 
        3.09456         7.85174         1.00875 
        3.11026         7.78071        0.996211 
        3.12596         7.73211        0.983892 
        3.14163         7.65531        0.971811 
        3.15734         7.59927        0.959905 
        3.17308         7.53439        0.948171 
        3.18879         7.51313        0.936666 
        3.20447           7.418        0.925369 
         3.2202         7.39206        0.914224 
         3.2359         7.33369        0.903284 
        3.25157         7.28001        0.892549 
        3.26729         7.24298        0.881956 
        3.28304         7.14842        0.871516 
        3.29877         7.10116        0.861258 
        3.31446         7.03411        0.851189 
        3.33014         7.00834        0.841291 
        3.34585         6.97146        0.831535 
        3.36158         6.92023         0.82192 
        3.37727          6.8404        0.812487 
        3.39294         6.81988        0.803212 
        3.40867         6.74213        0.794049 
        3.42439         6.69351        0.785034 
        3.44008         6.67082        0.776178 
        3.45578          6.6092        0.767452 
        3.47153         6.56765        0.758841 
        3.48724         6.51776        0.750378 
        3.50292         6.46311        0.742064 
        3.51859         6.42504        0.733881 
        3.53431         6.38854        0.725796 
        3.55007         6.32655        0.717814 
        3.56577         6.28847        0.709984 
        3.58146         6.24524        0.702274 
        3.59719         6.20696        0.694661 
        3.61292         6.16556        0.687164 
        3.62859         6.12089        0.679807 
        3.64429         6.07394        0.672543 
        3.66003         6.01503        0.665364 
        3.67578         5.96849        0.658293 
        3.69146         5.93439        0.651351 
        3.70712         5.90486        0.644523 
        3.72284         5.86038        0.637767 
        3.73853         5.81064        0.631121 
        3.75422         5.78071        0.624567 
        3.76993         5.74045        0.618101 
        3.78564         5.69189        0.611729 
        3.80137         5.65433        0.605437 
        3.81707         5.63146        0.599247 
        3.83279         5.58546        0.593139 
        3.84853         5.54891        0.587106 
        3.86424         5.50452         0.58117 
        3.87992         5.46187        0.575324 
        3.89561          5.4155        0.569559 
        3.91134         5.37733        0.563862 
        3.92704         5.35638        0.558249 
        3.94273         5.31455        0.552719 
        3.95845         5.27561        0.547253 
        3.97418         5.23561        0.541861 
        3.98988         5.21549        0.536549 
        4.00554         5.17762        0.531323 
        4.02125         5.12892        0.526151 
        4.03698          5.0862        0.521041 
        4.05268         5.07232         0.51601 
        4.06839         5.04209        0.511043 
         4.0841         4.99317        0.506142 
        4.09983         4.96199          0.5013 
        4.11555         4.92925        0.496522 
        4.13124          4.9106        0.491821 
        4.14693          4.8505        0.487176 
        4.16266         4.81987        0.482581 
        4.17839         4.78044        0.478048 
        4.19408         4.74569        0.473584 
        4.20977         4.71186        0.469175 
        4.22551         4.69348        0.464812 
        4.24123         4.65517        0.460509 
        4.25691         4.61085        0.456272 
        4.27259         4.59825        0.452088 
        4.28831         4.56526        0.447948 
        4.30404         4.51826        0.443856 
        4.31974         4.49407        0.439824 
        4.33543         4.46916        0.435844 
        4.35116         4.42545        0.431905 
        4.36688         4.40631        0.428016 
        4.38255         4.37007        0.424189 
        4.39825         4.34103        0.420401 
        4.41398         4.32862        0.416652 
         4.4297         4.28032        0.412953 
        4.44541         4.26506        0.409299 
        4.46111         4.24032        0.405693 
        4.47683         4.20566        0.402128 
        4.49251         4.17126        0.398613 
        4.50819         4.14319        0.395141 
         4.5239         4.12699        0.391705 
        4.53962         4.10149        0.388306 
        4.55535         4.06899        0.384946 
        4.57106         4.04318        0.381631 
        4.58678         4.02966        0.378354 
         4.6025          3.9869        0.375115 
        4.61821         3.97288        0.371915 
        4.63391         3.94174        0.368756 
         4.6496         3.91555        0.365636 
        4.66532         3.90021        0.362546 
        4.68103         3.86695        0.359494 
        4.69673         3.84105        0.356481 
        4.71241         3.81715        0.353504 
        4.72811         3.79356        0.350557 
        4.74384         3.76851         0.34764 
        4.75955         3.74714        0.344761 
        4.77525         3.71406        0.341916 
        4.79096          3.6937          0.3391 
        4.80669         3.67625        0.336314 
         4.8224         3.65326        0.333563 
        4.83809         3.62631        0.330845 
        4.85379         3.61038        0.328157 
         4.8695         3.58391        0.325496 
        4.88521         3.56978        0.322865 
        4.90093         3.53679        0.320264 
        4.91663         3.52128        0.317694 
        4.93234         3.50157        0.315149 
        4.94807          3.4755        0.312631 
        4.96377         3.45476        0.310144 
        4.97943         3.43893        0.307691 
        4.99514          3.4113        0.305257 
        5.01086         3.39101        0.302848 
        5.02654         3.37157        0.300472 
        5.04227         3.35003        0.298114 
          5.058         3.32772         0.29578 
        5.07371         3.30934        0.293476 
        5.08942         3.28749        0.291196 
        5.10513          3.2732         0.28894 
        5.12084         3.25969        0.286707 
        5.13656         3.22885        0.284498 
        5.15225         3.21537        0.282317 
        5.16796         3.19534        0.280154 
        5.18369         3.17966        0.278013 
         5.1994         3.15713        0.275898 
        5.21509         3.14139        0.273807 
        5.23079         3.12396        0.271735 
        5.24649         3.10471        0.269686 
        5.26217         3.07824         0.26766 
        5.27788          3.0622        0.265652 
        5.29359          3.0509        0.263664 
        5.30933         3.02987        0.261694 
        5.32504         3.01539        0.259747 
        5.34073         2.99704        0.257822 
        5.35646         2.97659        0.255913 
        5.37218         2.95888        0.254023 
        5.38789         2.94012        0.252155 
        5.40357         2.92417        0.250309 
        5.41929          2.9046        0.248476 
        5.43502         2.89669        0.246662 
         5.4507         2.88016         0.24487 
        5.46639         2.85285        0.243096 
        5.48212         2.83918        0.241336 
        5.49786         2.82583        0.239591 
        5.51353         2.81032        0.237871 
        5.52921         2.79397        0.236167 
        5.54495         2.77432        0.234475 
        5.56066         2.76851        0.232801 
        5.57637         2.74919        0.231144 
        5.59207         2.73649        0.229505 
        5.60778          2.7152         0.22788 
        5.62346         2.70312        0.226274 
        5.63916         2.68906        0.224682 
        5.65487         2.67522        0.223105 
         5.6706         2.65622         0.22154 
        5.68633         2.64178        0.219991 
        5.70203          2.6242        0.218459 
        5.71773         2.61429        0.216942 
        5.73344         2.60167        0.215439 
        5.74916          2.5833        0.213949 
        5.76486         2.56906        0.212475 
        5.78054         2.56008        0.211017 
        5.79626         2.54046        0.209568 
          5.812         2.53061        0.208132 
         5.8277          2.5137        0.206714 
        5.84339         2.50345        0.205309 
        5.85911         2.49126        0.203914 
        5.87484         2.47519        0.202533 
        5.89053          2.4599        0.201167 
        5.90623         2.45025        0.199813 
        5.92195         2.43583        0.198469 
        5.93767         2.42551        0.197139 
        5.95336         2.41076        0.195823 
        5.96905         2.39786        0.194519 
        5.98476         2.38668        0.193226 
        6.00048         2.37706        0.191944 
        6.01617         2.35847        0.190675 
        6.03185         2.34511        0.189419 
        6.04756         2.33572        0.188172 
        6.06331          2.3183        0.186933 
        6.07903         2.31063        0.185708 
        6.09473         2.29931        0.184495 
        6.11044         2.28719        0.183292 
        6.12616         2.27026          0.1821 
        6.14186         2.26463         0.18092 
        6.15755         2.25365         0.17975 
        6.17326         2.24172         0.17859 
        6.18898         2.22873        0.177439 
        6.20467         2.21802        0.176301 
        6.22036         2.20179        0.175173 
         6.2361         2.19826        0.174052 
         6.2518         2.18293        0.172942 
        6.26748          2.1727        0.171845 
        6.28319          2.1613        0.170754 
        6.29893         2.15115        0.169671 
        6.31463         2.13714          0.1686 
        6.33033         2.13433        0.167539 
        6.34604         2.12098        0.166486 
        6.36177           2.109        0.165441 
        6.37747         2.09875        0.164406 
