# k  (h/Mpc)    Pcb(k)  (Mpc/h)^3    Pcb_linear(k) (Mpc/h)^3   ShotnoiseSubtracted = true
      0.0200456         16984.4         17260.1 
      0.0350414         11234.5         10809.8 
      0.0492313         7046.57         7084.34 
      0.0637834         5701.08         5885.76 
      0.0800726         4526.69         4749.96 
       0.096163         3402.92         3211.83 
       0.111083         2621.23         2408.71 
       0.126058         2208.05         2189.21 
       0.142273          1954.4         1918.54 
       0.158546         1561.97         1456.04 
        0.17375         1332.85         1166.27 
       0.188953         1249.22         1067.23 
       0.204907         1076.68         977.445 
       0.220756          963.52         817.371 
        0.23588         844.816         684.793 
         0.2514         751.691          618.12 
       0.267535         731.801          572.52 
       0.283568         639.885         506.526 
       0.299022         606.842         441.817 
       0.314451         618.342         399.185 
       0.330372         529.307          369.91 
       0.346141          488.29         338.151 
       0.361624         465.526         304.711 
       0.377134         438.305         277.565 
       0.392932         420.355         257.222 
       0.408854         401.372          238.38 
       0.424564         388.137          219.29 
       0.440253         351.704         202.075 
       0.455999         335.106         187.954 
       0.471626         338.879         175.683 
        0.48727         318.675         163.819 
       0.502856         295.646         152.742 
       0.518488         293.985         142.944 
       0.534347         275.436         134.175 
       0.550082         264.066         126.095 
       0.565732         262.927          118.54 
       0.581496         250.883         111.581 
       0.597222         243.478         105.304 
       0.612804         235.735         99.5744 
       0.628434         228.281          94.208 
       0.644267         218.014         89.1455 
       0.660051         215.436         84.5026 
       0.675724          210.59         80.2417 
       0.691403         206.414         76.2714 
       0.707174         198.629         72.5458 
       0.722871         195.141         69.0827 
        0.73838         192.476         65.8818 
       0.754018         184.037         62.8591 
       0.769845         184.188         59.9929 
        0.78569         178.326         57.3029 
       0.801365         172.689         54.8046 
       0.817031         170.723         52.4578 
       0.832809         166.867         50.2346 
       0.848511         162.973         48.1515 
       0.864097         158.679         46.2022 
       0.879701         158.071         44.3599 
       0.895507         154.525         42.5975 
       0.911279         150.158         40.9354 
        0.92691         147.319         39.3766 
       0.942635         145.663         37.8911 
       0.958396         142.656         36.4798 
       0.974128         140.574         35.1436 
       0.989692         135.866         33.8881 
        1.00528         135.491         32.6925 
        1.02113         132.539         31.5364 
        1.03692         130.194         30.4409 
        1.05264         128.078         29.4028 
        1.06832         127.092         28.4151 
        1.08405         123.959         27.4704 
        1.09979         122.885         26.5684 
        1.11537         120.964         25.7162 
        1.13105         118.851         24.8964 
        1.14679         117.424         24.1096 
        1.16256         115.007         23.3554 
        1.17828         114.068         22.6362 
        1.19395         111.714         21.9499 
         1.2097         110.463         21.2887 
        1.22537          109.35         20.6582 
          1.241         106.734         20.0553 
        1.25666         105.507         19.4751 
        1.27241         103.287         18.9153 
        1.28819         102.606         18.3767 
        1.30392         101.352         17.8608 
        1.31957         99.5543         17.3672 
        1.33529          97.947         16.8905 
        1.35108         97.1563         16.4299 
        1.36674         95.6213           15.99 
         1.3824         94.8387         15.5666 
        1.39811         93.4172         15.1573 
        1.41389         91.8935         14.7612 
        1.42964         90.3338         14.3801 
        1.44531         89.7533         14.0143 
        1.46101          88.154         13.6606 
        1.47667         87.8242         13.3202 
        1.49229         86.7966         12.9924 
        1.50793         85.3611         12.6753 
        1.52367         84.2997         12.3669 
        1.53953         83.7184         12.0667 
        1.55526         82.4004         11.7789 
        1.57092         81.7698         11.5017 
        1.58662         80.5251         11.2329 
        1.60235         79.6733         10.9722 
        1.61809         78.6756         10.7197 
        1.63369         77.5451         10.4774 
        1.64941         77.4698         10.2409 
        1.66519         76.0774         10.0109 
        1.68085         74.8015         9.78963 
        1.69652         73.9549         9.57503 
        1.71228         72.9764         9.36568 
        1.72806         72.8423         9.16247 
        1.74368         71.3561         8.96735 
        1.75933         70.7955         8.77756 
        1.77505         70.2602          8.5924 
        1.79081         69.0804         8.41229 
         1.8065          68.372         8.23813 
        1.82218         67.7401         8.06909 
        1.83797         67.1352         7.90366 
        1.85367         66.0322         7.74381 
        1.86928         65.4294         7.58936 
        1.88497         64.7309          7.4383 
        1.90073         64.0657         7.29082 
        1.91647         63.3512          7.1475 
        1.93218         62.5054         7.00834 
        1.94787         61.7726         6.87312 
        1.96363         61.0644         6.74095 
        1.97935         60.5922         6.61254 
        1.99499          59.875         6.48823 
        2.01064         59.2215         6.36694 
         2.0264         58.5161         6.24801 
        2.04216         57.8521         6.13219 
        2.05781         57.2111         6.02005 
        2.07353         56.6782         5.91033 
        2.08928         56.2086         5.80313 
        2.10499         55.2935         5.69888 
        2.12065          55.054         5.59751 
        2.13633         54.2883         5.49854 
        2.15211         53.6599         5.40133 
        2.16785         52.8531         5.30676 
        2.18349         52.5144         5.21506 
        2.19916         52.0257         5.12534 
        2.21489         51.4125         5.03744 
        2.23063            50.8         4.95156 
         2.2463         50.4719         4.86807 
        2.26194         50.0832         4.78673 
        2.27765         49.3593         4.70683 
        2.29341         48.9038         4.62856 
        2.30914         48.1527         4.55224 
        2.32486         47.8705          4.4777 
        2.34061          47.276          4.4047 
        2.35635         46.9299         4.33341 
        2.37203         46.0789         4.26394 
        2.38768         45.9713         4.19615 
        2.40339         45.4486          4.1296 
        2.41914         44.6894         4.06434 
        2.43483         44.5888         4.00073 
         2.4505         44.2216         3.93859 
        2.46622         43.5748         3.87757 
        2.48195         43.1148         3.81784 
        2.49759         42.6864         3.75969 
        2.51328         42.2837         3.70261 
        2.52906         41.9819         3.64635 
        2.54479         41.5882         3.59148 
        2.56049         40.8059         3.53785 
        2.57618         40.5608         3.48537 
        2.59189         40.3194         3.43388 
        2.60758         39.7184         3.38351 
        2.62325         39.4612         3.33422 
        2.63898         39.1124         3.28574 
        2.65468         38.7469         3.23833 
        2.67044         38.4406         3.19166 
        2.68618         38.0695         3.14602 
        2.70184         37.4356         3.10146 
        2.71755         37.1663         3.05766 
        2.73329         36.7624         3.01464 
        2.74897         36.5526         2.97258 
        2.76462          36.195         2.93143 
        2.78034         35.7756         2.89089 
        2.79607         35.2436         2.85108 
        2.81179         34.9536         2.81206 
        2.82749         34.6784         2.77383 
        2.84321         34.3776         2.73626 
        2.85893         33.9343          2.6994 
        2.87462         33.5627         2.66329 
        2.89033         33.3116         2.62781 
        2.90605         32.9981         2.59295 
        2.92176           32.75         2.55874 
        2.93747         32.4403         2.52516 
        2.95318         32.1569         2.49219 
        2.96891         31.7746         2.45979 
        2.98456          31.626         2.42811 
        3.00023          31.325         2.39695 
        3.01596         30.9173         2.36623 
        3.03164         30.6311         2.33615 
        3.04738         30.3556          2.3065 
         3.0631         30.1253         2.27738 
        3.07883         29.7703         2.24877 
        3.09456         29.4797         2.22065 
        3.11026         29.1008         2.19306 
        3.12596          28.966         2.16594 
        3.14163         28.7012         2.13934 
        3.15734         28.4366         2.11313 
        3.17308         28.1458          2.0873 
        3.18879         27.8861         2.06197 
        3.20447         27.5277         2.03711 
         3.2202         27.3732         2.01257 
         3.2359         27.1411         1.98849 
        3.25157         26.8759         1.96485 
        3.26729          26.578         1.94154 
        3.28304          26.322         1.91855 
        3.29877         26.0929         1.89597 
        3.31446         25.7945         1.87381 
        3.33014         25.6201         1.85202 
        3.34585         25.4113         1.83054 
        3.36158         25.1791         1.80937 
        3.37727         24.9446         1.78861 
        3.39294         24.6839         1.76819 
        3.40867         24.4704         1.74802 
        3.42439         24.2741         1.72817 
        3.44008         24.0883         1.70868 
        3.45578          23.851         1.68947 
        3.47153         23.6366         1.67051 
        3.48724         23.4101         1.65188 
        3.50292         23.2223         1.63358 
        3.51859         23.0009         1.61556 
        3.53431         22.7429         1.59777 
        3.55007         22.5368         1.58019 
        3.56577          22.367         1.56296 
        3.58146         22.1236         1.54598 
        3.59719          21.991         1.52923 
        3.61292         21.8405         1.51272 
        3.62859         21.5875         1.49653 
        3.64429         21.3442         1.48054 
        3.66003         21.2573         1.46473 
        3.67578         21.0084         1.44916 
        3.69146         20.8814         1.43388 
        3.70712         20.6542         1.41885 
        3.72284         20.5199         1.40398 
        3.73853         20.4014         1.38935 
        3.75422         20.1372         1.37492 
        3.76993         19.9557         1.36069 
        3.78564         19.7613         1.34666 
        3.80137          19.632         1.33281 
        3.81707         19.4363         1.31918 
        3.83279         19.2481         1.30573 
        3.84853         19.1197         1.29245 
        3.86424         18.9456         1.27939 
        3.87992         18.7543         1.26652 
        3.89561         18.6703         1.25383 
        3.91134         18.4733         1.24128 
        3.92704         18.2974         1.22893 
        3.94273         18.1425         1.21675 
        3.95845         18.0053         1.20472 
        3.97418         17.8405         1.19285 
        3.98988          17.717         1.18116 
        4.00554         17.5681         1.16965 
        4.02125         17.3849         1.15827 
        4.03698         17.2215         1.14702 
        4.05268         17.0731         1.13594 
        4.06839         16.9529         1.12501 
         4.0841         16.8342         1.11422 
        4.09983         16.6751         1.10356 
        4.11555         16.5514         1.09304 
        4.13124         16.4217         1.08269 
        4.14693         16.2946         1.07247 
        4.16266         16.1393         1.06235 
        4.17839         15.9948         1.05237 
        4.19408         15.8679         1.04255 
        4.20977         15.7575         1.03284 
        4.22551         15.5975         1.02324 
        4.24123         15.4675         1.01376 
        4.25691         15.3043         1.00444 
        4.27259         15.2205        0.995225 
        4.28831         15.1156        0.986111 
        4.30404         15.0055        0.977103 
        4.31974         14.8626        0.968227 
        4.33543           14.76        0.959467 
        4.35116         14.6234        0.950794 
        4.36688         14.5006        0.942233 
        4.38255         14.3955        0.933809 
        4.39825         14.2471         0.92547 
        4.41398         14.1716        0.917217 
         4.4297         14.0327        0.909074 
        4.44541         13.9148        0.901031 
        4.46111         13.8325        0.893092 
        4.47683         13.7143        0.885243 
        4.49251         13.6268        0.877505 
        4.50819         13.5012        0.869862 
         4.5239         13.3925        0.862299 
        4.53962         13.2769        0.854817 
        4.55535         13.2181         0.84742 
        4.57106         13.0838        0.840122 
        4.58678         12.9989        0.832908 
         4.6025         12.8837        0.825778 
        4.61821         12.7689        0.818733 
        4.63391         12.6504         0.81178 
         4.6496         12.5755         0.80491 
        4.66532          12.489        0.798109 
        4.68103         12.3975         0.79139 
        4.69673         12.2854        0.784756 
        4.71241          12.186        0.778204 
        4.72811         12.0914        0.771716 
        4.74384         11.9976        0.765295 
        4.75955         11.9068        0.758956 
        4.77525         11.8195        0.752693 
        4.79096         11.7405        0.746493 
        4.80669         11.6639        0.740361 
         4.8224         11.5688        0.734304 
        4.83809         11.4541        0.728322 
        4.85379         11.4086        0.722403 
         4.8695         11.2931        0.716545 
        4.88521         11.1975        0.710755 
        4.90093         11.1211        0.705029 
        4.91663         11.0551         0.69937 
        4.93234         10.9674        0.693768 
        4.94807         10.8945        0.688224 
        4.96377         10.7818        0.682751 
        4.97943         10.7086         0.67735 
        4.99514         10.6371        0.671993 
        5.01086         10.5397         0.66669 
        5.02654         10.4962        0.661458 
        5.04227         10.4073        0.656267 
          5.058         10.3113        0.651129 
        5.07371         10.2324        0.646057 
        5.08942          10.185        0.641038 
        5.10513         10.1011        0.636072 
        5.12084         10.0326        0.631157 
        5.13656         9.94467        0.626294 
        5.15225         9.87145        0.621491 
        5.16796         9.80307        0.616731 
        5.18369         9.75413        0.612017 
         5.1994         9.65092        0.607361 
        5.21509         9.57168        0.602757 
        5.23079         9.51526        0.598196 
        5.24649         9.45083        0.593686 
        5.26217         9.38698        0.589226 
        5.27788         9.30729        0.584805 
        5.29359         9.26862        0.580429 
        5.30933         9.17523        0.576092 
        5.32504          9.1229        0.571806 
        5.34073         9.03832        0.567569 
        5.35646         8.97399        0.563367 
        5.37218         8.92039        0.559206 
        5.38789         8.87007        0.555094 
        5.40357         8.82397        0.551029 
        5.41929         8.75705        0.546995 
        5.43502         8.69155        0.543001 
         5.4507         8.61073        0.539057 
        5.46639         8.54039        0.535152 
        5.48212         8.49712        0.531276 
        5.49786         8.44053        0.527434 
        5.51353         8.38337         0.52365 
        5.52921         8.33232        0.519898 
        5.54495         8.24886        0.516173 
        5.56066         8.20685        0.512488 
        5.57637         8.15794         0.50884 
        5.59207         8.08844        0.505231 
        5.60778         8.03595        0.501656 
        5.62346         7.98206         0.49812 
        5.63916          7.9224        0.494615 
        5.65487         7.88712        0.491142 
         5.6706         7.82873        0.487698 
        5.68633         7.76947        0.484287 
        5.70203          7.7139        0.480915 
        5.71773         7.65532        0.477576 
        5.73344         7.61498        0.474267 
        5.74916         7.54886        0.470986 
        5.76486         7.50255        0.467741 
        5.78054         7.46997        0.464532 
        5.79626          7.4042        0.461344 
          5.812         7.36113        0.458182 
         5.8277         7.32263         0.45506 
        5.84339         7.25495        0.451967 
        5.85911         7.21735        0.448897 
        5.87484         7.15624        0.445855 
        5.89053         7.11223        0.442849 
        5.90623         7.07545        0.439868 
        5.92195         7.03368         0.43691 
        5.93767         6.95868        0.433981 
        5.95336         6.92648        0.431084 
        5.96905         6.88265        0.428214 
        5.98476         6.84432        0.425367 
        6.00048         6.78878        0.422544 
        6.01617          6.7439        0.419751 
        6.03185         6.70375        0.416987 
        6.04756         6.67257        0.414241 
        6.06331         6.61252        0.411514 
        6.07903         6.57147        0.408817 
        6.09473         6.53461        0.406147 
        6.11044         6.49477        0.403499 
        6.12616         6.45525        0.400875 
        6.14186         6.40568        0.398277 
        6.15755         6.37355        0.395702 
        6.17326         6.33003        0.393148 
        6.18898         6.28445        0.390615 
        6.20467         6.24054        0.388109 
        6.22036         6.20025        0.385626 
         6.2361         6.16762        0.383157 
         6.2518         6.13052        0.380715 
        6.26748         6.07761        0.378299 
        6.28319           6.043        0.375897 
        6.29893         6.01219        0.373514 
        6.31463         5.97541        0.371156 
        6.33033         5.94004        0.368819 
        6.34604         5.89234        0.366501 
        6.36177         5.85901          0.3642 
        6.37747           5.817        0.361924 
