# k  (h/Mpc)    Pcb(k)  (Mpc/h)^3    Pcb_linear(k) (Mpc/h)^3   ShotnoiseSubtracted = true
      0.0200456         21348.4         21748.3 
      0.0350414         15484.7         14961.9 
      0.0492313         10399.2         10583.4 
      0.0637834         8536.75         8977.27 
      0.0800726         6710.41         7140.21 
       0.096163         5246.93         5006.61 
       0.111083         4255.67         3982.06 
       0.126058         3578.01         3628.06 
       0.142273         3127.51         3071.96 
       0.158546         2535.51         2369.42 
        0.17375         2260.82         2002.13 
       0.188953         2152.15         1848.57 
       0.204907         1848.28         1638.26 
       0.220756         1666.63         1367.33 
        0.23588         1486.08          1190.3 
         0.2514         1344.71         1094.97 
       0.267535         1301.42         994.225 
       0.283568         1155.18         871.005 
       0.299022         1101.67         775.896 
       0.314451         1146.66         714.385 
       0.330372         1005.71         657.612 
       0.346141         924.736         595.599 
       0.361624         887.775         541.252 
       0.377134         850.101         500.064 
       0.392932         811.807         464.155 
       0.408854         778.575         427.881 
       0.424564         760.428         394.505 
       0.440253         702.084         366.645 
       0.455999         671.452         342.429 
       0.471626         685.638         319.671 
        0.48727         646.034         298.281 
       0.502856         616.195          279.29 
       0.518488         601.325         262.427 
       0.534347         574.573         246.583 
       0.550082         548.191         231.897 
       0.565732         542.135         218.507 
       0.581496         530.734         206.283 
       0.597222         517.851         195.024 
       0.612804         505.611         184.632 
       0.628434         485.443         174.941 
       0.644267         470.871         165.889 
       0.660051         465.584         157.543 
       0.675724         455.645         149.824 
       0.691403         445.529         142.618 
       0.707174         430.397         135.847 
       0.722871         425.288         129.544 
        0.73838         416.822         123.712 
       0.754018         405.102         118.197 
       0.769845         401.745         112.961 
        0.78569         393.319         108.041 
       0.801365          379.76         103.465 
       0.817031          377.72         99.1613 
       0.832809         371.315          95.079 
       0.848511         364.912         91.2485 
       0.864097         355.171         87.6587 
       0.879701         353.873         84.2615 
       0.895507         341.517          81.007 
       0.911279          335.88         77.9337 
        0.92691         333.252         75.0476 
       0.942635         329.495         72.2939 
       0.958396         318.857         69.6744 
       0.974128         316.143         67.1913 
       0.989692         305.433         64.8553 
        1.00528         304.169         62.6285 
        1.02113         300.034         60.4726 
        1.03692         294.589         58.4275 
        1.05264         290.076         56.4875 
        1.06832         286.135         54.6399 
        1.08405         282.341          52.871 
        1.09979         277.634         51.1804 
        1.11537         271.503         49.5814 
        1.13105         267.657         48.0421 
        1.14679           264.8         46.5631 
        1.16256         262.652         45.1442 
        1.17828         258.438         43.7899 
        1.19395         251.973         42.4964 
         1.2097         251.971         41.2493 
        1.22537         248.232         40.0589 
          1.241         241.373         38.9197 
        1.25666         240.123         37.8225 
        1.27241         236.599          36.763 
        1.28819          232.22         35.7428 
        1.30392         231.296         34.7648 
        1.31957         224.717         33.8282 
        1.33529         221.599         32.9231 
        1.35108         221.259         32.0479 
        1.36674         214.794         31.2112 
         1.3824           213.9         30.4056 
        1.39811         212.227          29.626 
        1.41389         206.472         28.8711 
        1.42964             204         28.1441 
        1.44531         202.786          27.446 
        1.46101         198.987         26.7704 
        1.47667         196.963         26.1198 
        1.49229         194.291         25.4928 
        1.50793         191.242         24.8859 
        1.52367         189.022         24.2952 
        1.53953         185.208         23.7198 
        1.55526         184.053         23.1679 
        1.57092         182.688          22.636 
        1.58662         178.345         22.1198 
        1.60235         176.839         21.6188 
        1.61809         174.232         21.1333 
        1.63369         171.201         20.6672 
        1.64941         169.593          20.212 
        1.66519         167.465          19.769 
        1.68085         164.974         19.3425 
        1.69652         163.113         18.9287 
        1.71228           160.3         18.5247 
        1.72806         159.405         18.1324 
        1.74368         157.207         17.7555 
        1.75933         155.946         17.3887 
        1.77505         153.926         17.0306 
        1.79081          150.49         16.6821 
         1.8065         149.077         16.3449 
        1.82218         146.461         16.0175 
        1.83797         145.671         15.6968 
        1.85367         143.645         15.3869 
        1.86928         142.161         15.0872 
        1.88497         140.681          14.794 
        1.90073         139.307         14.5076 
        1.91647         136.746         14.2291 
        1.93218         135.193         13.9585 
        1.94787         133.154         13.6955 
        1.96363         132.599         13.4383 
        1.97935         131.109         13.1883 
        1.99499         129.372         12.9461 
        2.01064         126.758         12.7098 
         2.0264         125.953         12.4779 
        2.04216         124.156         12.2519 
        2.05781         122.598         12.0331 
        2.07353         121.306         11.8189 
        2.08928         119.683         11.6094 
        2.10499         118.766         11.4057 
        2.12065         117.338         11.2075 
        2.13633         116.516         11.0139 
        2.15211         114.408         10.8237 
        2.16785         113.145         10.6385 
        2.18349         111.523         10.4589 
        2.19916          110.77         10.2831 
        2.21489         109.585         10.1108 
        2.23063         107.801         9.94235 
         2.2463         106.689         9.77855 
        2.26194         105.664         9.61888 
        2.27765          104.23         9.46199 
        2.29341          103.37         9.30823 
        2.30914         101.988         9.15824 
        2.32486         100.365         9.01167 
        2.34061         99.5899          8.8681 
        2.35635         98.5946         8.72781 
        2.37203         96.9448         8.59107 
        2.38768          96.215         8.45758 
        2.40339         95.2337         8.32647 
        2.41914         93.8306         8.19785 
        2.43483         93.2002         8.07244 
         2.4505          91.972         7.94988 
        2.46622         90.9893         7.82948 
        2.48195          90.195         7.71158 
        2.49759         88.8575         7.59677 
        2.51328         88.0006         7.48401 
        2.52906         86.6102         7.37285 
        2.54479         85.7882         7.26439 
        2.56049         84.6215         7.15834 
        2.57618         83.8037         7.05452 
        2.59189          83.093         6.95262 
        2.60758         81.6301         6.85292 
        2.62325         81.2705         6.75531 
        2.63898         80.4329         6.65928 
        2.65468         79.5488         6.56533 
        2.67044         78.3713         6.47281 
        2.68618         77.8271         6.38231 
        2.70184         76.8239         6.29391 
        2.71755         76.0642         6.20699 
        2.73329         74.8828         6.12159 
        2.74897         74.5039         6.03808 
        2.76462         73.5902         5.95634 
        2.78034         72.5079         5.87579 
        2.79607         71.8773         5.79665 
        2.81179         71.4317         5.71908 
        2.82749         70.7269         5.64302 
        2.84321          69.911         5.56828 
        2.85893         69.0453         5.49493 
        2.87462         68.2975         5.42303 
        2.89033         67.7589         5.35237 
        2.90605         67.1534         5.28292 
        2.92176         66.3403         5.21474 
        2.93747         65.8506         5.14782 
        2.95318         64.7398         5.08207 
        2.96891         64.2591         5.01744 
        2.98456          63.483         4.95424 
        3.00023         63.0414         4.89204 
        3.01596          62.356         4.83073 
        3.03164         61.6618         4.77065 
        3.04738         61.3084         4.71143 
         3.0631         60.3178         4.65324 
        3.07883         59.6248         4.59604 
        3.09456         59.0122         4.53982 
        3.11026         58.4492         4.48464 
        3.12596         58.0159         4.43039 
        3.14163         57.2012         4.37717 
        3.15734         56.6146         4.32471 
        3.17308         56.1323         4.27298 
        3.18879         55.5753         4.22226 
        3.20447         55.1723         4.17244 
         3.2202         54.4246         4.12327 
         3.2359          53.852         4.07499 
        3.25157         53.4211         4.02761 
        3.26729         52.8149         3.98084 
        3.28304         52.4416         3.93473 
        3.29877         51.8436         3.88942 
        3.31446         51.4248         3.84493 
        3.33014         50.7973         3.80118 
        3.34585         50.1955         3.75805 
        3.36158         49.8475         3.71553 
        3.37727         49.2428          3.6738 
        3.39294          48.953         3.63276 
        3.40867         48.4846         3.59221 
        3.42439         48.0249          3.5523 
        3.44008         47.3593         3.51308 
        3.45578         47.0822         3.47443 
        3.47153         46.4532         3.43628 
        3.48724         46.0353         3.39878 
        3.50292         45.6973         3.36193 
        3.51859         45.1535         3.32565 
        3.53431         44.7429         3.28979 
        3.55007         44.3369         3.25438 
        3.56577         44.0288         3.21964 
        3.58146         43.5021         3.18542 
        3.59719         43.1006         3.15163 
        3.61292         42.6669         3.11834 
        3.62859         42.2958         3.08566 
        3.64429         41.9941         3.05339 
        3.66003           41.61         3.02149 
        3.67578         41.2112         2.99006 
        3.69146         40.9626          2.9592 
        3.70712         40.4322         2.92883 
        3.72284         40.0744         2.89879 
        3.73853         39.8476         2.86921 
        3.75422         39.4081         2.84005 
        3.76993         39.0578         2.81127 
        3.78564         38.8147          2.7829 
        3.80137         38.3979         2.75488 
        3.81707         38.0044         2.72731 
        3.83279         37.7111          2.7001 
        3.84853         37.3153         2.67322 
        3.86424           36.96         2.64676 
        3.87992         36.8045          2.6207 
        3.89561         36.4108         2.59499 
        3.91134         36.1281         2.56958 
        3.92704         35.7907         2.54454 
        3.94273          35.409         2.51986 
        3.95845         35.1956         2.49547 
        3.97418         34.7552         2.47139 
        3.98988         34.4485         2.44767 
        4.00554         34.2147         2.42433 
        4.02125         33.9793         2.40123 
        4.03698         33.5182          2.3784 
        4.05268           33.32         2.35592 
        4.06839         32.9351         2.33371 
         4.0841         32.7353          2.3118 
        4.09983          32.438         2.29015 
        4.11555         32.1039         2.26878 
        4.13124         31.9101         2.24774 
        4.14693         31.6373         2.22696 
        4.16266          31.284         2.20639 
        4.17839         31.0847          2.1861 
        4.19408         30.8529         2.16611 
        4.20977         30.5304         2.14637 
        4.22551           30.27         2.12682 
        4.24123         30.0632         2.10755 
        4.25691         29.7903         2.08856 
        4.27259         29.6646          2.0698 
        4.28831         29.2543         2.05124 
        4.30404         29.0723          2.0329 
        4.31974         28.7352         2.01481 
        4.33543         28.5862         1.99696 
        4.35116         28.3164         1.97929 
        4.36688         28.1191         1.96183 
        4.38255         27.9108         1.94466 
        4.39825         27.6168         1.92765 
        4.41398         27.3781         1.91082 
         4.4297         27.1721         1.89421 
        4.44541         26.9781         1.87779 
        4.46111         26.7756         1.86159 
        4.47683         26.5164         1.84557 
        4.49251         26.2829         1.82977 
        4.50819         26.1188         1.81416 
         4.5239         25.8687         1.79872 
        4.53962         25.6842         1.78343 
        4.55535         25.4332         1.76832 
        4.57106         25.2607          1.7534 
        4.58678         25.0374         1.73866 
         4.6025         24.8251         1.72408 
        4.61821         24.6278         1.70968 
        4.63391         24.4173         1.69546 
         4.6496         24.2519          1.6814 
        4.66532         24.0867         1.66749 
        4.68103         23.8244         1.65374 
        4.69673         23.7099         1.64016 
        4.71241         23.5075         1.62675 
        4.72811         23.2767         1.61347 
        4.74384         23.0918         1.60032 
        4.75955         22.9928         1.58734 
        4.77525         22.7493         1.57451 
        4.79096         22.6364          1.5618 
        4.80669         22.4051         1.54924 
         4.8224         22.2525         1.53682 
        4.83809         22.0486         1.52456 
        4.85379         21.8849         1.51242 
         4.8695         21.7832         1.50041 
        4.88521         21.5847         1.48854 
        4.90093         21.3453         1.47679 
        4.91663         21.2476         1.46518 
        4.93234         21.0113         1.45368 
        4.94807         20.8993          1.4423 
        4.96377         20.8033         1.43107 
        4.97943         20.5579         1.41998 
        4.99514         20.4014         1.40898 
        5.01086         20.2244         1.39809 
        5.02654         20.1171         1.38734 
        5.04227         19.9422         1.37667 
          5.058         19.7873         1.36611 
        5.07371         19.6759         1.35569 
        5.08942         19.4839         1.34537 
        5.10513          19.331         1.33516 
        5.12084          19.229         1.32506 
        5.13656         19.0376         1.31506 
        5.15225         18.9036         1.30518 
        5.16796         18.7691         1.29538 
        5.18369         18.6505         1.28568 
         5.1994         18.5183          1.2761 
        5.21509         18.3926         1.26662 
        5.23079         18.2164         1.25723 
        5.24649         18.1289         1.24795 
        5.26217         17.9588         1.23876 
        5.27788         17.8118         1.22966 
        5.29359          17.693         1.22064 
        5.30933         17.5757         1.21171 
        5.32504         17.4122         1.20288 
        5.34073         17.3019         1.19414 
        5.35646         17.1866         1.18548 
        5.37218         17.0493          1.1769 
        5.38789         16.9126         1.16842 
        5.40357         16.8272         1.16004 
        5.41929         16.6898         1.15172 
        5.43502         16.5509         1.14348 
         5.4507         16.4601         1.13534 
        5.46639          16.349         1.12728 
        5.48212         16.2143         1.11928 
        5.49786         16.1089         1.11135 
        5.51353         15.9724         1.10354 
        5.52921         15.8534         1.09579 
        5.54495         15.7287          1.0881 
        5.56066         15.6283         1.08049 
        5.57637         15.5229         1.07295 
        5.59207         15.4084          1.0655 
        5.60778         15.2967         1.05811 
        5.62346         15.2016          1.0508 
        5.63916         15.0878         1.04356 
        5.65487         14.9756         1.03638 
         5.6706         14.8821         1.02926 
        5.68633         14.7917          1.0222 
        5.70203         14.6776         1.01523 
        5.71773         14.5774         1.00832 
        5.73344         14.4718         1.00148 
        5.74916         14.4021        0.994687 
        5.76486         14.2705        0.987971 
        5.78054         14.1958        0.981329 
        5.79626          14.067        0.974729 
          5.812         13.9829        0.968184 
         5.8277         13.8837        0.961718 
        5.84339         13.7879        0.955313 
        5.85911         13.7039        0.948953 
        5.87484         13.5969        0.942653 
        5.89053         13.4982        0.936424 
        5.90623          13.395        0.930248 
        5.92195         13.2945        0.924118 
        5.93767         13.2119        0.918046 
        5.95336          13.159         0.91204 
        5.96905         13.0346         0.90609 
        5.98476           12.99        0.900186 
        6.00048         12.8664        0.894332 
        6.01617         12.7974        0.888539 
        6.03185         12.7013        0.882804 
        6.04756         12.6079        0.877107 
        6.06331         12.5203        0.871449 
        6.07903         12.4438        0.865852 
        6.09473         12.3732         0.86031 
        6.11044         12.2769        0.854813 
        6.12616         12.1859        0.849364 
        6.14186         12.1097        0.843969 
        6.15755         12.0237        0.838622 
        6.17326         11.9338        0.833317 
        6.18898          11.864        0.828055 
        6.20467         11.7821        0.822849 
        6.22036         11.7224        0.817689 
         6.2361         11.6319        0.812559 
         6.2518         11.5687        0.807482 
        6.26748         11.4993         0.80246 
        6.28319         11.4163        0.797467 
        6.29893         11.3402        0.792513 
        6.31463         11.2623        0.787609 
        6.33033          11.193        0.782749 
        6.34604         11.1066        0.777927 
        6.36177         11.0492        0.773141 
        6.37747         10.9928        0.768405 
