# k  (h/Mpc)    Pcb(k)  (Mpc/h)^3    Pcb_linear(k) (Mpc/h)^3   ShotnoiseSubtracted = true
      0.0200456         4809.56         4880.31 
      0.0350414         3432.82         3357.43 
      0.0492313         2376.39         2374.91 
      0.0637834         1970.72         2014.49 
      0.0800726          1559.3         1602.26 
       0.096163         1156.83         1123.48 
       0.111083         930.868         893.572 
       0.126058         806.662         814.134 
       0.142273         685.979         689.346 
       0.158546         547.747         531.696 
        0.17375         472.536         449.278 
       0.188953         434.873         414.819 
       0.204907         370.864         367.624 
       0.220756         325.996         306.827 
        0.23588         286.503         267.103 
         0.2514         259.726          245.71 
       0.267535         245.425         223.103 
       0.283568         213.744         195.453 
       0.299022         198.642         174.111 
       0.314451         191.153         160.308 
       0.330372         168.256         147.568 
       0.346141         154.792         133.652 
       0.361624         144.323         121.457 
       0.377134         132.006         112.214 
       0.392932         128.455         104.156 
       0.408854         119.806         96.0162 
       0.424564          114.15         88.5266 
       0.440253         103.935          82.275 
       0.455999         96.0135         76.8409 
       0.471626          92.312          71.734 
        0.48727         89.5037         66.9341 
       0.502856         82.5905         62.6725 
       0.518488         79.5036         58.8886 
       0.534347         74.9636         55.3332 
       0.550082         72.5797         52.0376 
       0.565732         70.3453         49.0328 
       0.581496         65.2272         46.2898 
       0.597222         62.8503         43.7632 
       0.612804         60.5675         41.4312 
       0.628434         59.3147         39.2566 
       0.644267         56.1154         37.2255 
       0.660051         53.9599         35.3526 
       0.675724         52.0431         33.6205 
       0.691403         51.2013         32.0033 
       0.707174         49.3734         30.4839 
       0.722871         47.9369         29.0697 
        0.73838         45.8374         27.7609 
       0.754018         43.4522         26.5234 
       0.769845         42.9074         25.3484 
        0.78569         41.4134         24.2442 
       0.801365         40.2608         23.2175 
       0.817031         38.6895         22.2517 
       0.832809         38.0494         21.3357 
       0.848511         36.8765         20.4761 
       0.864097         36.0196         19.6706 
       0.879701          35.352         18.9082 
       0.895507          34.064         18.1779 
       0.911279         33.0806         17.4883 
        0.92691         32.4766         16.8406 
       0.942635         31.7782         16.2227 
       0.958396         31.1716         15.6349 
       0.974128         30.3345         15.0777 
       0.989692         29.1931         14.5535 
        1.00528         28.9066         14.0538 
        1.02113         28.1377           13.57 
        1.03692         27.6742         13.1111 
        1.05264         27.0992         12.6758 
        1.06832          26.592         12.2612 
        1.08405         25.8534         11.8642 
        1.09979         25.5648         11.4849 
        1.11537         24.7723          11.126 
        1.13105         24.3886         10.7806 
        1.14679         23.8025         10.4487 
        1.16256         23.4694         10.1303 
        1.17828         23.1148         9.82643 
        1.19395          22.682         9.53618 
         1.2097         22.2579         9.25632 
        1.22537         21.8451         8.98919 
          1.241         21.4204         8.73355 
        1.25666         21.1348         8.48734 
        1.27241          20.805         8.24959 
        1.28819         20.0409         8.02066 
        1.30392         20.2613          7.8012 
        1.31957         19.7355         7.59102 
        1.33529         19.3715         7.38792 
        1.35108         19.1794         7.19154 
        1.36674         18.8286         7.00378 
         1.3824          18.471         6.82299 
        1.39811         18.1196         6.64806 
        1.41389          17.937         6.47866 
        1.42964         17.7281         6.31552 
        1.44531         17.4419         6.15887 
        1.46101         17.2051         6.00726 
        1.47667         16.9497         5.86126 
        1.49229         16.5731         5.72057 
        1.50793          16.454         5.58439 
        1.52367         16.2447         5.45182 
        1.53953         16.0208         5.32271 
        1.55526         15.7086         5.19886 
        1.57092         15.6813         5.07951 
        1.58662         15.4357         4.96367 
        1.60235         15.1863         4.85126 
        1.61809         15.0216         4.74231 
        1.63369         14.7879         4.63771 
        1.64941          14.623         4.53556 
        1.66519         14.4218         4.43614 
        1.68085         14.1337         4.34045 
        1.69652         14.1651         4.24759 
        1.71228         13.8941         4.15694 
        1.72806         13.6928          4.0689 
        1.74368         13.5838         3.98432 
        1.75933         13.4319           3.902 
        1.77505          13.259         3.82165 
        1.79081         13.1042         3.74345 
         1.8065         13.0083         3.66779 
        1.82218         12.8892         3.59431 
        1.83797         12.7456         3.52236 
        1.85367         12.6221          3.4528 
        1.86928          12.458         3.38556 
        1.88497         12.3263         3.31976 
        1.90073         12.1499         3.25549 
        1.91647         11.8815         3.19299 
        1.93218         11.9055         3.13229 
        1.94787         11.6834         3.07327 
        1.96363         11.6302         3.01555 
        1.97935         11.5091         2.95945 
        1.99499         11.3669         2.90511 
        2.01064         11.2479         2.85207 
         2.0264         11.0968         2.80003 
        2.04216         11.1248         2.74933 
        2.05781         10.9711         2.70022 
        2.07353          10.841         2.65215 
        2.08928         10.6982         2.60515 
        2.10499         10.5879         2.55943 
        2.12065         10.5265         2.51496 
        2.13633         10.3894         2.47152 
        2.15211         10.3077         2.42883 
        2.16785          10.176         2.38728 
        2.18349         10.0813         2.34697 
        2.19916         9.99766         2.30752 
        2.21489         9.91036         2.26886 
        2.23063         9.86564         2.23106 
         2.2463           9.687          2.1943 
        2.26194         9.61609         2.15847 
        2.27765         9.51225         2.12327 
        2.29341          9.3956         2.08876 
        2.30914         9.37438          2.0551 
        2.32486          9.2765         2.02221 
        2.34061         9.21408            1.99 
        2.35635         9.11519         1.95852 
        2.37203         9.00314         1.92783 
        2.38768         8.91514         1.89788 
        2.40339         8.87493         1.86845 
        2.41914         8.76889         1.83959 
        2.43483         8.74888         1.81145 
         2.4505         8.64288         1.78395 
        2.46622         8.54675         1.75693 
        2.48195         8.53241         1.73047 
        2.49759         8.38242         1.70471 
        2.51328         8.35417         1.67941 
        2.52906         8.25926         1.65446 
        2.54479         8.18996         1.63013 
        2.56049         8.10556         1.60633 
        2.57618         8.06929         1.58303 
        2.59189         8.07057         1.56017 
        2.60758         7.92924         1.53779 
        2.62325         7.85618         1.51589 
        2.63898         7.86399         1.49434 
        2.65468         7.73991         1.47326 
        2.67044         7.70082          1.4525 
        2.68618          7.6056         1.43219 
        2.70184         7.58457         1.41235 
        2.71755          7.5037         1.39284 
        2.73329         7.40448         1.37368 
        2.74897         7.37754         1.35494 
        2.76462         7.34486          1.3366 
        2.78034         7.26648         1.31852 
        2.79607         7.23493         1.30077 
        2.81179         7.15396         1.28336 
        2.82749         7.08619         1.26629 
        2.84321         7.05236         1.24952 
        2.85893         7.00295         1.23306 
        2.87462           6.954         1.21693 
        2.89033         6.87865         1.20107 
        2.90605         6.84117         1.18548 
        2.92176         6.77342         1.17019 
        2.93747         6.72282         1.15517 
        2.95318         6.66579         1.14041 
        2.96891          6.6206         1.12591 
        2.98456         6.57229         1.11173 
        3.00023         6.54155         1.09777 
        3.01596         6.44892         1.08401 
        3.03164         6.42837         1.07053 
        3.04738         6.38099         1.05724 
         3.0631         6.33386         1.04418 
        3.07883         6.28568         1.03135 
        3.09456         6.20822         1.01873 
        3.11026         6.18152         1.00635 
        3.12596         6.13731        0.994177 
        3.14163         6.11162        0.982234 
        3.15734         6.05052        0.970462 
        3.17308         6.04775        0.958855 
        3.18879         5.96845        0.947472 
        3.20447         5.92854        0.936292 
         3.2202         5.87998         0.92526 
         3.2359         5.84245        0.914426 
        3.25157         5.80825        0.903793 
        3.26729          5.7694        0.893299 
        3.28304         5.72471        0.882952 
        3.29877         5.69165        0.872784 
        3.31446          5.6686          0.8628 
        3.33014          5.5991        0.852982 
        3.34585         5.57218        0.843304 
        3.36158         5.52209        0.833762 
        3.37727         5.49007        0.824399 
        3.39294         5.45329         0.81519 
        3.40867         5.42328         0.80609 
        3.42439         5.36762        0.797134 
        3.44008         5.34126        0.788334 
        3.45578         5.30236        0.779661 
        3.47153         5.25706          0.7711 
        3.48724         5.22623        0.762685 
        3.50292          5.1842        0.754415 
        3.51859         5.15633        0.746273 
        3.53431         5.12038        0.738227 
        3.55007          5.0881        0.730282 
        3.56577         5.03746        0.722485 
        3.58146         5.01681        0.714807 
        3.59719          4.9866        0.707223 
        3.61292         4.95258        0.699753 
        3.62859         4.92447         0.69242 
        3.64429         4.88947        0.685179 
        3.66003         4.86116         0.67802 
        3.67578         4.83597        0.670968 
        3.69146          4.7953        0.664042 
        3.70712         4.77459        0.657229 
        3.72284         4.73954        0.650486 
        3.73853         4.70075         0.64385 
        3.75422          4.6624        0.637306 
        3.76993         4.65736        0.630847 
        3.78564         4.61292        0.624481 
        3.80137          4.5788        0.618194 
        3.81707         4.54522        0.612007 
        3.83279          4.5218        0.605901 
        3.84853         4.47934        0.599868 
        3.86424         4.45965        0.593931 
        3.87992         4.43992        0.588083 
        3.89561           4.412        0.582314 
        3.91134         4.37428        0.576612 
        3.92704         4.33883        0.570993 
        3.94273         4.31933        0.565455 
        3.95845         4.29045        0.559981 
        3.97418         4.25847        0.554579 
        3.98988         4.23438        0.549257 
        4.00554         4.20702        0.544019 
        4.02125         4.17015        0.538835 
        4.03698         4.15276        0.533712 
        4.05268         4.11333        0.528667 
        4.06839          4.0959        0.523684 
         4.0841         4.06372        0.518767 
        4.09983         4.03842        0.513908 
        4.11555         4.01261        0.509113 
        4.13124         3.98406        0.504392 
        4.14693         3.96127        0.499729 
        4.16266         3.93769        0.495114 
        4.17839         3.90864         0.49056 
        4.19408         3.89086        0.486075 
        4.20977         3.86465        0.481644 
        4.22551         3.82995        0.477258 
        4.24123          3.7995        0.472932 
        4.25691         3.78356        0.468672 
        4.27259         3.75615        0.464463 
        4.28831         3.72713        0.460298 
        4.30404         3.71419        0.456181 
        4.31974         3.68027        0.452123 
        4.33543         3.66628        0.448117 
        4.35116         3.64426        0.444151 
        4.36688         3.62057        0.440235 
        4.38255         3.60367         0.43638 
        4.39825         3.57872        0.432564 
        4.41398         3.55448        0.428787 
         4.4297         3.53994        0.425059 
        4.44541         3.51178        0.421376 
        4.46111         3.47638         0.41774 
        4.47683         3.46345        0.414145 
        4.49251         3.44329          0.4106 
        4.50819         3.42147        0.407097 
         4.5239         3.39797        0.403631 
        4.53962         3.37148        0.400201 
        4.55535         3.35854         0.39681 
        4.57106         3.33808        0.393463 
        4.58678         3.31664        0.390154 
         4.6025         3.30249        0.386883 
        4.61821         3.27927        0.383651 
        4.63391         3.25186         0.38046 
         4.6496         3.23388        0.377306 
        4.66532         3.21977        0.374184 
        4.68103         3.19999        0.371099 
        4.69673         3.18196        0.368052 
        4.71241         3.16189        0.365042 
        4.72811         3.14212        0.362062 
        4.74384         3.13101        0.359111 
        4.75955         3.10074        0.356197 
        4.77525         3.08691        0.353318 
        4.79096         3.07048        0.350468 
        4.80669         3.04721        0.347648 
         4.8224         3.03263        0.344862 
        4.83809         3.02214         0.34211 
        4.85379         3.00342        0.339387 
         4.8695         2.98306        0.336692 
        4.88521         2.95828        0.334027 
        4.90093         2.94897        0.331391 
        4.91663         2.93363        0.328785 
        4.93234         2.91384        0.326206 
        4.94807          2.8979        0.323652 
        4.96377         2.88565        0.321131 
        4.97943         2.86899        0.318642 
        4.99514         2.84684        0.316174 
        5.01086         2.83152         0.31373 
        5.02654         2.81237        0.311318 
        5.04227         2.80392        0.308924 
          5.058         2.78926        0.306555 
        5.07371          2.7735        0.304216 
        5.08942         2.74778        0.301901 
        5.10513          2.7383         0.29961 
        5.12084         2.72027        0.297342 
        5.13656         2.70922        0.295098 
        5.15225         2.69035        0.292881 
        5.16796         2.67771        0.290683 
        5.18369         2.65775        0.288506 
         5.1994         2.64826        0.286356 
        5.21509         2.63218         0.28423 
        5.23079         2.62519        0.282123 
        5.24649           2.605        0.280039 
        5.26217         2.58673        0.277978 
        5.27788         2.57762        0.275934 
        5.29359         2.56963        0.273912 
        5.30933         2.55252        0.271906 
        5.32504         2.53908        0.269925 
        5.34073         2.52562        0.267965 
        5.35646         2.50711        0.266021 
        5.37218         2.49752        0.264096 
        5.38789          2.4811        0.262194 
        5.40357         2.47155        0.260312 
        5.41929         2.45785        0.258445 
        5.43502         2.44612        0.256596 
         5.4507         2.42673         0.25477 
        5.46639         2.41298        0.252962 
        5.48212         2.40571        0.251167 
        5.49786         2.39242        0.249387 
        5.51353           2.381        0.247634 
        5.52921         2.36728        0.245896 
        5.54495          2.3517        0.244169 
        5.56066         2.34249        0.242462 
        5.57637         2.32918         0.24077 
        5.59207         2.31626        0.239097 
        5.60778         2.31301        0.237439 
        5.62346         2.29364        0.235799 
        5.63916         2.28228        0.234174 
        5.65487         2.26517        0.232562 
         5.6706         2.26113        0.230965 
        5.68633         2.24804        0.229382 
        5.70203         2.23524        0.227817 
        5.71773         2.22273        0.226267 
        5.73344         2.21223         0.22473 
        5.74916         2.20131        0.223207 
        5.76486         2.19263          0.2217 
        5.78054         2.17953         0.22021 
        5.79626         2.16813        0.218729 
          5.812          2.1545         0.21726 
         5.8277         2.14447        0.215809 
        5.84339         2.13823        0.214372 
        5.85911         2.12437        0.212945 
        5.87484         2.11665        0.211531 
        5.89053         2.10625        0.210133 
        5.90623         2.09565        0.208747 
        5.92195         2.08309        0.207371 
        5.93767          2.0771        0.206009 
        5.95336         2.06287        0.204661 
        5.96905         2.05589        0.203326 
        5.98476         2.04228        0.202001 
        6.00048         2.03117        0.200688 
        6.01617         2.02537        0.199388 
        6.03185         2.01385        0.198101 
        6.04756         2.00557        0.196822 
        6.06331         1.99793        0.195553 
        6.07903          1.9854        0.194297 
        6.09473          1.9771        0.193053 
        6.11044         1.96828         0.19182 
        6.12616         1.95983        0.190597 
        6.14186         1.95186        0.189386 
        6.15755         1.93851        0.188186 
        6.17326         1.92802        0.186996 
        6.18898         1.92247        0.185815 
        6.20467         1.91036        0.184647 
        6.22036         1.90158        0.183489 
         6.2361         1.89609        0.182338 
         6.2518         1.88597        0.181199 
        6.26748         1.88086        0.180072 
        6.28319         1.87085        0.178951 
        6.29893         1.85808        0.177839 
        6.31463         1.85003        0.176739 
        6.33033         1.84091        0.175648 
        6.34604         1.83561        0.174566 
        6.36177         1.82927        0.173492 
        6.37747         1.81776         0.17243 
