# k  (h/Mpc)    Pcb(k)  (Mpc/h)^3    Pcb_linear(k) (Mpc/h)^3   ShotnoiseSubtracted = true
      0.0200456         2970.62         3013.35 
      0.0350414          2113.1         2073.05 
      0.0492313         1470.19         1466.39 
      0.0637834         1222.74         1243.85 
      0.0800726         968.318         989.318 
       0.096163         711.024         693.695 
       0.111083         570.633         551.737 
       0.126058         498.523         502.689 
       0.142273         422.527         425.638 
       0.158546         335.256         328.297 
        0.17375         288.002         277.407 
       0.188953         263.931         256.131 
       0.204907         225.881          226.99 
       0.220756         196.935         189.451 
        0.23588         172.419         164.923 
         0.2514         157.126         151.714 
       0.267535         146.465         137.756 
       0.283568         127.901         120.683 
       0.299022         117.259         107.505 
       0.314451         111.393         98.9822 
       0.330372         99.3592         91.1159 
       0.346141         90.9215         82.5237 
       0.361624          83.812         74.9936 
       0.377134         76.7241         69.2867 
       0.392932         74.4145         64.3114 
       0.408854         68.3709         59.2854 
       0.424564          65.182         54.6609 
       0.440253          59.518         50.8008 
       0.455999         54.5108         47.4455 
       0.471626         51.8488         44.2923 
        0.48727         50.3456         41.3286 
       0.502856         46.9073         38.6972 
       0.518488         44.1739         36.3608 
       0.534347         41.6292         34.1655 
       0.550082         40.0747         32.1307 
       0.565732         38.6044         30.2754 
       0.581496         36.1794         28.5817 
       0.597222         34.3574         27.0217 
       0.612804         32.8217         25.5818 
       0.628434         32.2185         24.2391 
       0.644267         30.4738         22.9849 
       0.660051         29.0314         21.8285 
       0.675724         27.7297          20.759 
       0.691403         27.2152         19.7605 
       0.707174         26.1212         18.8223 
       0.722871          25.276         17.9491 
        0.73838          23.988          17.141 
       0.754018         22.7612         16.3769 
       0.769845         22.2587         15.6514 
        0.78569         21.5532         14.9696 
       0.801365         20.7886         14.3357 
       0.817031         20.0115         13.7394 
       0.832809         19.4718         13.1738 
       0.848511         18.8578          12.643 
       0.864097         18.2604         12.1456 
       0.879701         17.9681         11.6749 
       0.895507         17.2992          11.224 
       0.911279         16.6049         10.7982 
        0.92691         16.3002         10.3983 
       0.942635         15.9055         10.0167 
       0.958396         15.3796         9.65379 
       0.974128         15.0029         9.30974 
       0.989692         14.3402         8.98608 
        1.00528          14.253         8.67754 
        1.02113         13.7842         8.37883 
        1.03692         13.4814         8.09546 
        1.05264         13.1782         7.82668 
        1.06832          12.905         7.57067 
        1.08405         12.5548         7.32558 
        1.09979         12.2574         7.09134 
        1.11537         11.9466          6.8698 
        1.13105         11.7503         6.65652 
        1.14679          11.484         6.45159 
        1.16256           11.23         6.25499 
        1.17828         11.0053         6.06735 
        1.19395         10.8053         5.88813 
         1.2097         10.4718         5.71533 
        1.22537         10.2981         5.55039 
          1.241         10.0327         5.39255 
        1.25666         9.99086         5.24052 
        1.27241         9.77719         5.09372 
        1.28819         9.38525         4.95237 
        1.30392         9.36982         4.81686 
        1.31957         9.12894         4.68709 
        1.33529         9.01395         4.56168 
        1.35108         8.83029         4.44043 
        1.36674         8.61983          4.3245 
         1.3824         8.51351         4.21287 
        1.39811          8.3713         4.10485 
        1.41389         8.19112         4.00026 
        1.42964         8.07524         3.89953 
        1.44531          7.9308          3.8028 
        1.46101         7.84431         3.70919 
        1.47667         7.68253         3.61905 
        1.49229         7.48921         3.53218 
        1.50793         7.41276         3.44809 
        1.52367         7.27955         3.36623 
        1.53953          7.1593         3.28652 
        1.55526         7.07876         3.21005 
        1.57092         6.96196         3.13635 
        1.58662         6.84616         3.06483 
        1.60235         6.77064         2.99542 
        1.61809         6.66873         2.92815 
        1.63369         6.53521         2.86356 
        1.64941         6.43684         2.80049 
        1.66519         6.36404          2.7391 
        1.68085         6.25363         2.68002 
        1.69652         6.19584         2.62268 
        1.71228         6.12904         2.56671 
        1.72806         6.01098         2.51235 
        1.74368          5.9516         2.46013 
        1.75933         5.86357          2.4093 
        1.77505         5.75243         2.35968 
        1.79081         5.70918          2.3114 
         1.8065          5.6593         2.26468 
        1.82218         5.56714         2.21931 
        1.83797         5.46714         2.17489 
        1.85367         5.39929         2.13194 
        1.86928         5.36016         2.09042 
        1.88497         5.26791         2.04979 
        1.90073         5.20839         2.01011 
        1.91647         5.11887         1.97152 
        1.93218         5.07483         1.93404 
        1.94787         5.01507         1.89759 
        1.96363         4.96274         1.86196 
        1.97935         4.91755         1.82732 
        1.99499         4.85268         1.79376 
        2.01064         4.79412         1.76101 
         2.0264         4.74213         1.72888 
        2.04216         4.68392         1.69758 
        2.05781         4.63157         1.66726 
        2.07353         4.58858         1.63757 
        2.08928         4.50863         1.60856 
        2.10499          4.4678         1.58033 
        2.12065         4.47278         1.55287 
        2.13633         4.40404         1.52604 
        2.15211          4.3292         1.49968 
        2.16785         4.28135         1.47403 
        2.18349         4.26229         1.44914 
        2.19916         4.20894         1.42478 
        2.21489         4.16635         1.40091 
        2.23063         4.11541         1.37757 
         2.2463         4.06905         1.35487 
        2.26194         4.01922         1.33275 
        2.27765         3.96157         1.31101 
        2.29341         3.92542         1.28971 
        2.30914         3.89544         1.26893 
        2.32486         3.86902         1.24862 
        2.34061         3.83129         1.22873 
        2.35635          3.7909         1.20929 
        2.37203          3.7713         1.19034 
        2.38768         3.74096         1.17185 
        2.40339         3.67691         1.15368 
        2.41914         3.64663         1.13586 
        2.43483          3.6062         1.11848 
         2.4505         3.57845          1.1015 
        2.46622         3.54774         1.08482 
        2.48195         3.52905         1.06848 
        2.49759         3.47898         1.05258 
        2.51328          3.4539         1.03695 
        2.52906         3.41775         1.02155 
        2.54479         3.39123         1.00652 
        2.56049         3.35846         0.99183 
        2.57618         3.32872        0.977445 
        2.59189         3.32625        0.963326 
        2.60758          3.2901        0.949512 
        2.62325         3.22846        0.935987 
        2.63898         3.21079        0.922682 
        2.65468         3.18246        0.909665 
        2.67044         3.17494        0.896846 
        2.68618         3.14793        0.884306 
        2.70184         3.11835        0.872058 
        2.71755         3.07808        0.860014 
        2.73329         3.05837        0.848181 
        2.74897         3.03148        0.836612 
        2.76462         3.00311        0.825286 
        2.78034         2.99042        0.814124 
        2.79607         2.96198         0.80316 
        2.81179         2.93792        0.792411 
        2.82749          2.9051        0.781874 
        2.84321         2.89053        0.771518 
        2.85893         2.86068        0.761354 
        2.87462         2.84768        0.751392 
        2.89033          2.8323        0.741602 
        2.90605         2.80647        0.731979 
        2.92176         2.77348        0.722533 
        2.93747         2.75893         0.71326 
        2.95318         2.73705         0.70415 
        2.96891         2.72434        0.695196 
        2.98456         2.70101        0.686438 
        3.00023         2.68528        0.677821 
        3.01596         2.65312        0.669325 
        3.03164           2.636        0.661001 
        3.04738          2.6233        0.652796 
         3.0631         2.60369        0.644734 
        3.07883         2.58491        0.636809 
        3.09456         2.55808        0.629019 
        3.11026         2.54412        0.621373 
        3.12596          2.5254        0.613856 
        3.14163         2.51632        0.606482 
        3.15734         2.48997        0.599213 
        3.17308         2.47853        0.592047 
        3.18879         2.46422        0.585018 
        3.20447         2.43788        0.578115 
         3.2202          2.4326        0.571303 
         3.2359         2.41401        0.564614 
        3.25157         2.39157        0.558049 
        3.26729         2.37349        0.551569 
        3.28304         2.36005         0.54518 
        3.29877         2.33801        0.538902 
        3.31446         2.32766        0.532737 
        3.33014         2.31569        0.526675 
        3.34585         2.29728        0.520699 
        3.36158         2.27623        0.514808 
        3.37727         2.27361        0.509027 
        3.39294         2.25427         0.50334 
        3.40867          2.2437        0.497721 
        3.42439         2.22313        0.492192 
        3.44008         2.20863        0.486758 
        3.45578         2.19413        0.481403 
        3.47153         2.18603        0.476117 
        3.48724         2.17051        0.470921 
        3.50292         2.15006        0.465815 
        3.51859         2.14354        0.460788 
        3.53431         2.12357         0.45582 
        3.55007         2.12117        0.450914 
        3.56577          2.1022          0.4461 
        3.58146         2.09088        0.441358 
        3.59719          2.0787        0.436676 
        3.61292         2.06537        0.432064 
        3.62859         2.05276        0.427536 
        3.64429         2.04192        0.423065 
        3.66003         2.02659        0.418645 
        3.67578          2.0159         0.41429 
        3.69146         1.99866        0.410014 
        3.70712         1.98907        0.405807 
        3.72284         1.97462        0.401644 
        3.73853         1.96673        0.397546 
        3.75422         1.95341        0.393505 
        3.76993         1.94009        0.389518 
        3.78564         1.92513        0.385587 
        3.80137         1.91692        0.381705 
        3.81707         1.90449        0.377885 
        3.83279         1.90187        0.374114 
        3.84853         1.88552         0.37039 
        3.86424         1.87142        0.366723 
        3.87992         1.86263        0.363113 
        3.89561         1.85004        0.359551 
        3.91134         1.84123         0.35603 
        3.92704          1.8292         0.35256 
        3.94273         1.82207        0.349141 
        3.95845         1.80615        0.345761 
        3.97418         1.79719        0.342426 
        3.98988         1.79154         0.33914 
        4.00554         1.77991        0.335905 
        4.02125         1.76727        0.332705 
        4.03698         1.75777        0.329541 
        4.05268         1.74438        0.326426 
        4.06839         1.73462        0.323349 
         4.0841         1.72037        0.320314 
        4.09983         1.70838        0.317313 
        4.11555         1.69976        0.314352 
        4.13124         1.68852        0.311438 
        4.14693         1.67753        0.308558 
        4.16266         1.67075        0.305709 
        4.17839         1.65954        0.302897 
        4.19408         1.64857        0.300128 
        4.20977         1.63872        0.297392 
        4.22551         1.63314        0.294684 
        4.24123         1.61829        0.292013 
        4.25691         1.60768        0.289382 
        4.27259         1.59694        0.286783 
        4.28831         1.59408        0.284212 
        4.30404         1.57959        0.281669 
        4.31974         1.56979        0.279164 
        4.33543         1.56058        0.276691 
        4.35116         1.55366        0.274242 
        4.36688         1.54435        0.271824 
        4.38255         1.53847        0.269444 
        4.39825          1.5277        0.267088 
        4.41398         1.51953        0.264755 
         4.4297         1.51105        0.262453 
        4.44541         1.49825        0.260179 
        4.46111         1.49307        0.257934 
        4.47683         1.48779        0.255715 
        4.49251         1.47698        0.253526 
        4.50819          1.4711        0.251363 
         4.5239         1.46082        0.249223 
        4.53962         1.45404        0.247105 
        4.55535         1.44879        0.245011 
        4.57106         1.43949        0.242944 
        4.58678          1.4345        0.240901 
         4.6025         1.42677        0.238882 
        4.61821         1.42292        0.236886 
        4.63391          1.4142        0.234915 
         4.6496         1.40174        0.232968 
        4.66532         1.40146        0.231041 
        4.68103         1.39058        0.229136 
        4.69673         1.38776        0.227254 
        4.71241         1.37835        0.225396 
        4.72811         1.37626        0.223555 
        4.74384         1.36804        0.221733 
        4.75955         1.36561        0.219935 
        4.77525         1.35379        0.218157 
        4.79096         1.34598        0.216397 
        4.80669         1.34278        0.214656 
         4.8224         1.33837        0.212936 
        4.83809         1.33223        0.211237 
        4.85379         1.32796        0.209555 
         4.8695         1.31654        0.207891 
        4.88521         1.31565        0.206245 
        4.90093         1.31282        0.204618 
        4.91663         1.30442        0.203009 
        4.93234         1.29935        0.201416 
        4.94807         1.29125         0.19984 
        4.96377         1.28657        0.198283 
        4.97943          1.2839        0.196746 
        4.99514         1.27997        0.195222 
        5.01086         1.27089        0.193713 
        5.02654         1.26618        0.192224 
        5.04227          1.2616        0.190746 
          5.058         1.25796        0.189283 
        5.07371         1.25351        0.187839 
        5.08942         1.24933        0.186409 
        5.10513         1.24569        0.184995 
        5.12084          1.2383        0.183594 
        5.13656         1.23401        0.182209 
        5.15225         1.22837         0.18084 
        5.16796         1.22377        0.179483 
        5.18369         1.22205        0.178139 
         5.1994         1.21764        0.176811 
        5.21509         1.21009        0.175498 
        5.23079         1.20789        0.174197 
        5.24649         1.20327         0.17291 
        5.26217         1.19956        0.171638 
        5.27788           1.192        0.170376 
        5.29359         1.18908        0.169127 
        5.30933         1.18752        0.167889 
        5.32504         1.18062        0.166665 
        5.34073         1.17984        0.165455 
        5.35646         1.17315        0.164255 
        5.37218         1.16997        0.163067 
        5.38789          1.1681        0.161892 
        5.40357          1.1629         0.16073 
        5.41929          1.1626        0.159577 
        5.43502         1.15428        0.158436 
         5.4507         1.14993        0.157308 
        5.46639         1.14883        0.156192 
        5.48212          1.1425        0.155083 
        5.49786         1.13982        0.153985 
        5.51353         1.13764        0.152902 
        5.52921         1.13103        0.151829 
        5.54495         1.13003        0.150763 
        5.56066         1.12678        0.149708 
        5.57637         1.12487        0.148664 
        5.59207         1.11925        0.147631 
        5.60778         1.11747        0.146607 
        5.62346         1.11256        0.145595 
        5.63916         1.11108        0.144591 
        5.65487         1.10561        0.143596 
         5.6706         1.10278         0.14261 
        5.68633         1.09938        0.141632 
        5.70203         1.09775        0.140666 
        5.71773         1.09353        0.139709 
        5.73344            1.09         0.13876 
        5.74916          1.0871         0.13782 
        5.76486         1.08226        0.136889 
        5.78054         1.08208        0.135969 
        5.79626         1.07871        0.135054 
          5.812          1.0752        0.134147 
         5.8277         1.07102        0.133252 
        5.84339          1.0717        0.132364 
        5.85911         1.06604        0.131483 
        5.87484         1.06381         0.13061 
        5.89053         1.05903        0.129747 
        5.90623         1.05804        0.128891 
        5.92195         1.05587        0.128042 
        5.93767         1.05275        0.127201 
        5.95336         1.04762        0.126368 
        5.96905         1.04449        0.125544 
        5.98476         1.04331        0.124726 
        6.00048         1.04156        0.123915 
        6.01617         1.03705        0.123112 
        6.03185         1.03572        0.122318 
        6.04756         1.03474        0.121528 
        6.06331         1.02919        0.120744 
        6.07903         1.02908        0.119969 
        6.09473         1.02537        0.119201 
        6.11044         1.02384        0.118439 
        6.12616         1.01963        0.117684 
        6.14186         1.01643        0.116937 
        6.15755         1.01418        0.116196 
        6.17326         1.01269        0.115461 
        6.18898         1.01017        0.114732 
        6.20467         1.00573        0.114011 
        6.22036         1.00395        0.113296 
         6.2361          1.0013        0.112585 
         6.2518         1.00078        0.111881 
        6.26748         0.99742        0.111186 
        6.28319        0.995198        0.110494 
        6.29893        0.990354        0.109807 
        6.31463        0.989906        0.109128 
        6.33033        0.986892        0.108454 
        6.34604        0.985282        0.107786 
        6.36177        0.982577        0.107123 
        6.37747        0.979793        0.106467 
