# k  (h/Mpc)    Pcb(k)  (Mpc/h)^3    Pcb_linear(k) (Mpc/h)^3   ShotnoiseSubtracted = true
      0.0200456         6951.91          7078.3 
      0.0350414         4775.05         4869.55 
      0.0492313         3439.01         3444.52 
      0.0637834         2971.13         2921.78 
      0.0800726         2357.15         2323.88 
       0.096163         1610.73         1629.47 
       0.111083         1275.03         1296.02 
       0.126058         1193.76          1180.8 
       0.142273         1028.31         999.814 
       0.158546         825.351         771.161 
        0.17375         668.396         651.623 
       0.188953         643.796         601.645 
       0.204907          601.54         533.195 
       0.220756         501.222         445.016 
        0.23588         438.989           387.4 
         0.2514         389.298         356.372 
       0.267535         370.547         323.585 
       0.283568         334.387         283.481 
       0.299022          307.96         252.526 
       0.314451         283.132         232.507 
       0.330372         262.807         214.029 
       0.346141         236.168         193.846 
       0.361624         225.209         176.158 
       0.377134         211.285         162.753 
       0.392932          193.62         151.066 
       0.408854         185.884          139.26 
       0.424564         178.047         128.397 
       0.440253         167.831          119.33 
       0.455999         157.811         111.448 
       0.471626         146.203         104.042 
        0.48727         141.743         97.0799 
       0.502856         135.744         90.8989 
       0.518488          131.95         85.4108 
       0.534347         126.132         80.2541 
       0.550082         116.719         75.4742 
       0.565732          112.39         71.1161 
       0.581496         108.004         67.1378 
       0.597222         104.474         63.4733 
       0.612804         99.4859          60.091 
       0.628434          97.307          56.937 
       0.644267          94.028         53.9911 
       0.660051         91.6718         51.2747 
       0.675724         88.3304         48.7625 
       0.691403          85.691          46.417 
       0.707174         82.6387         44.2132 
       0.722871         80.8269         42.1621 
        0.73838         79.1306         40.2639 
       0.754018         75.2181          38.469 
       0.769845         73.7847         36.7648 
        0.78569         71.8986         35.1633 
       0.801365         69.5613         33.6742 
       0.817031         67.4506         32.2735 
       0.832809         66.6832         30.9448 
       0.848511         63.6865         29.6981 
       0.864097         62.2378         28.5298 
       0.879701         61.3527         27.4241 
       0.895507         60.3047         26.3649 
       0.911279         58.9883         25.3646 
        0.92691          57.542         24.4253 
       0.942635          55.538         23.5291 
       0.958396         55.3586         22.6765 
       0.974128          53.904         21.8684 
       0.989692         52.8946         21.1081 
        1.00528          51.781         20.3833 
        1.02113         50.4531         19.6817 
        1.03692         49.2445         19.0161 
        1.05264         48.9429         18.3847 
        1.06832         47.5636         17.7833 
        1.08405          46.996         17.2076 
        1.09979         46.3318         16.6574 
        1.11537         44.6424          16.137 
        1.13105         44.9321          15.636 
        1.14679          43.998         15.1546 
        1.16256         43.0348         14.6928 
        1.17828          42.088         14.2521 
        1.19395         41.5462         13.8311 
         1.2097         40.9354         13.4252 
        1.22537         40.6339         13.0377 
          1.241         39.5952          12.667 
        1.25666         38.7589         12.3099 
        1.27241         38.4251          11.965 
        1.28819         37.4102          11.633 
        1.30392         37.0023         11.3147 
        1.31957         36.7499         11.0099 
        1.33529         36.3601         10.7153 
        1.35108         35.7561         10.4305 
        1.36674         35.1195         10.1581 
         1.3824         34.2956         9.89592 
        1.39811          34.226          9.6422 
        1.41389         33.7057         9.39651 
        1.42964          33.085          9.1599 
        1.44531          32.839          8.9327 
        1.46101         32.0247          8.7128 
        1.47667         31.9174         8.50106 
        1.49229         31.6033           8.297 
        1.50793         31.0625         8.09949 
        1.52367         30.7582         7.90721 
        1.53953         30.5085         7.71995 
        1.55526         29.8824         7.54033 
        1.57092         29.5572         7.36722 
        1.58662         29.1648         7.19921 
        1.60235         28.8656         7.03616 
        1.61809         28.4699         6.87815 
        1.63369         28.1417         6.72644 
        1.64941         27.6688         6.57828 
        1.66519         27.4918         6.43409 
        1.68085         27.1233          6.2953 
        1.69652         26.8241         6.16061 
        1.71228         26.6191         6.02915 
        1.72806         26.1838         5.90145 
        1.74368         25.8319         5.77878 
        1.75933         25.5478         5.65939 
        1.77505           25.42         5.54284 
        1.79081         25.0085         5.42942 
         1.8065         24.7936         5.31968 
        1.82218          24.562         5.21311 
        1.83797         24.1726         5.10876 
        1.85367         23.9194         5.00787 
        1.86928         23.6915         4.91035 
        1.88497         23.3313         4.81492 
        1.90073         23.3604         4.72169 
        1.91647         22.9309         4.63105 
        1.93218         22.7572           4.543 
        1.94787         22.5389          4.4574 
        1.96363         22.3894         4.37369 
        1.97935         22.1239         4.29232 
        1.99499           21.84         4.21351 
        2.01064         21.6986         4.13658 
         2.0264         21.3109          4.0611 
        2.04216         21.1417         3.98757 
        2.05781         20.9239         3.91634 
        2.07353         20.7264         3.84662 
        2.08928         20.6638         3.77846 
        2.10499         20.3875         3.71215 
        2.12065         20.0408         3.64765 
        2.13633         20.0131         3.58464 
        2.15211         19.6465         3.52272 
        2.16785          19.588         3.46246 
        2.18349         19.3899           3.404 
        2.19916         19.1963         3.34678 
        2.21489         18.9912          3.2907 
        2.23063         18.8244         3.23588 
         2.2463         18.6524         3.18257 
        2.26194         18.5542          3.1306 
        2.27765         18.2797         3.07954 
        2.29341         18.0635          3.0295 
        2.30914         17.9717         2.98068 
        2.32486         17.8493         2.93298 
        2.34061         17.6487         2.88625 
        2.35635         17.3971         2.84059 
        2.37203         17.3075         2.79609 
        2.38768         17.1747         2.75264 
        2.40339         16.9599         2.70997 
        2.41914          16.819         2.66811 
        2.43483         16.6822         2.62729 
         2.4505         16.4755          2.5874 
        2.46622         16.3548         2.54822 
        2.48195         16.2088         2.50984 
        2.49759         16.0467         2.47248 
        2.51328         15.9054         2.43578 
        2.52906         15.8234          2.3996 
        2.54479         15.6615          2.3643 
        2.56049         15.5412         2.32979 
        2.57618          15.415           2.296 
        2.59189         15.2633         2.26283 
        2.60758         15.1449         2.23038 
        2.62325         15.0347         2.19861 
        2.63898         14.8647         2.16736 
        2.65468         14.7825         2.13678 
        2.67044         14.6005         2.10667 
        2.68618         14.5089         2.07721 
        2.70184         14.3672         2.04844 
        2.71755         14.2149         2.02015 
        2.73329         14.1276         1.99236 
        2.74897           13.97         1.96518 
        2.76462         13.9626         1.93858 
        2.78034         13.7364         1.91236 
        2.79607         13.6172          1.8866 
        2.81179         13.5116         1.86136 
        2.82749         13.4115          1.8366 
        2.84321           13.26         1.81228 
        2.85893         13.1873          1.7884 
        2.87462         13.0907           1.765 
        2.89033         12.9195         1.74201 
        2.90605         12.8505          1.7194 
        2.92176         12.7492         1.69721 
        2.93747         12.6656         1.67543 
        2.95318         12.4982         1.65403 
        2.96891         12.4007           1.633 
        2.98456         12.3261         1.61243 
        3.00023         12.2406         1.59218 
        3.01596         12.1325         1.57223 
        3.03164         12.0404         1.55268 
        3.04738         11.9098          1.5334 
         3.0631         11.8291         1.51446 
        3.07883         11.7001         1.49585 
        3.09456         11.6455         1.47755 
        3.11026         11.4918         1.45959 
        3.12596         11.4648         1.44193 
        3.14163         11.3522         1.42461 
        3.15734         11.2444         1.40754 
        3.17308         11.1677          1.3907 
        3.18879         11.1298         1.37419 
        3.20447         10.9694         1.35798 
         3.2202         10.8937         1.34198 
         3.2359         10.8521         1.32626 
        3.25157         10.7593         1.31084 
        3.26729         10.6475         1.29562 
        3.28304         10.5559         1.28062 
        3.29877         10.4597         1.26587 
        3.31446         10.4003         1.25139 
        3.33014         10.3022         1.23715 
        3.34585         10.2642         1.22311 
        3.36158         10.1902         1.20927 
        3.37727         10.0662         1.19569 
        3.39294          9.9981         1.18233 
        3.40867         9.88488         1.16914 
        3.42439         9.82801         1.15615 
        3.44008         9.76474         1.14338 
        3.45578         9.68683          1.1308 
        3.47153         9.64105         1.11839 
        3.48724          9.5675         1.10618 
        3.50292         9.46976         1.09419 
        3.51859         9.41847         1.08238 
        3.53431         9.32308         1.07071 
        3.55007         9.25412         1.05919 
        3.56577         9.20423         1.04788 
        3.58146         9.12799         1.03674 
        3.59719         9.04728         1.02574 
        3.61292         8.97587         1.01491 
        3.62859         8.90018         1.00427 
        3.64429         8.85598         0.99377 
        3.66003         8.76142        0.983387 
        3.67578          8.6739        0.973158 
        3.69146         8.64853        0.963113 
        3.70712         8.57993        0.953231 
        3.72284         8.50843        0.943451 
        3.73853         8.44294        0.933827 
        3.75422         8.39259        0.924335 
        3.76993         8.32039        0.914968 
        3.78564         8.24323        0.905735 
        3.80137         8.19655        0.896616 
        3.81707         8.12026        0.887642 
        3.83279         8.08973        0.878786 
        3.84853         8.01453        0.870036 
        3.86424         7.94053        0.861425 
        3.87992         7.86959        0.852943 
        3.89561         7.83631        0.844576 
        3.91134         7.77621        0.836306 
        3.92704         7.70815        0.828156 
        3.94273         7.66215        0.820124 
        3.95845           7.615        0.812185 
        3.97418         7.53061        0.804351 
        3.98988         7.48787        0.796631 
        4.00554         7.42948        0.789034 
        4.02125         7.37533        0.781516 
        4.03698         7.32734        0.774084 
        4.05268         7.27835        0.766767 
        4.06839         7.20963         0.75954 
         4.0841         7.15803         0.75241 
        4.09983         7.13481        0.745361 
        4.11555         7.07424        0.738407 
        4.13124         7.03001         0.73156 
        4.14693         6.95222        0.724796 
        4.16266         6.90619        0.718103 
        4.17839         6.84887        0.711498 
        4.19408         6.79366        0.704993 
        4.20977         6.74346        0.698566 
        4.22551         6.70019        0.692205 
        4.24123         6.64412        0.685931 
        4.25691         6.59338        0.679752 
        4.27259         6.56057        0.673648 
        4.28831          6.5064        0.667607 
        4.30404         6.45109        0.661635 
        4.31974         6.40331         0.65575 
        4.33543         6.36232         0.64994 
        4.35116         6.31151        0.644187 
        4.36688         6.26653        0.638507 
        4.38255         6.21908        0.632917 
        4.39825          6.1654        0.627383 
        4.41398         6.14305        0.621904 
         4.4297         6.10235        0.616497 
        4.44541         6.04341        0.611155 
        4.46111         6.03225        0.605882 
        4.47683         5.95128        0.600668 
        4.49251         5.93648        0.595526 
        4.50819         5.87777        0.590446 
         4.5239         5.83598        0.585418 
        4.53962         5.80903        0.580444 
        4.55535         5.74711        0.575525 
        4.57106         5.71649        0.570671 
        4.58678          5.6833        0.565872 
         4.6025         5.62549        0.561128 
        4.61821         5.59653        0.556439 
        4.63391         5.56168        0.551811 
         4.6496         5.51818        0.547237 
        4.66532         5.49829        0.542709 
        4.68103         5.43228        0.538234 
        4.69673         5.41581        0.533815 
        4.71241          5.3682         0.52945 
        4.72811         5.32871        0.525127 
        4.74384         5.29522        0.520847 
        4.75955         5.24927        0.516622 
        4.77525         5.22075        0.512446 
        4.79096         5.18248        0.508312 
        4.80669         5.15107        0.504221 
         4.8224         5.12565        0.500181 
        4.83809         5.07773         0.49619 
        4.85379         5.03173         0.49224 
         4.8695         5.01307        0.488331 
        4.88521         4.98174        0.484466 
        4.90093         4.92913        0.480642 
        4.91663         4.91006        0.476864 
        4.93234         4.88521        0.473122 
        4.94807         4.83764        0.469418 
        4.96377         4.80651        0.465762 
        4.97943         4.77154        0.462152 
        4.99514         4.73599        0.458572 
        5.01086         4.70719        0.455027 
        5.02654         4.68826        0.451529 
        5.04227         4.65353        0.448058 
          5.058          4.6155        0.444622 
        5.07371         4.59259        0.441229 
        5.08942         4.55845        0.437871 
        5.10513         4.53273        0.434548 
        5.12084         4.50679        0.431258 
        5.13656         4.47422        0.428004 
        5.15225         4.44797        0.424788 
        5.16796         4.41156        0.421601 
        5.18369         4.38282        0.418444 
         5.1994         4.35907        0.415325 
        5.21509         4.32815        0.412241 
        5.23079         4.30738        0.409185 
        5.24649         4.26746        0.406163 
        5.26217         4.24694        0.403173 
        5.27788         4.21464         0.40021 
        5.29359         4.18627        0.397276 
        5.30933         4.16146        0.394367 
        5.32504         4.13949        0.391493 
        5.34073         4.10604        0.388651 
        5.35646         4.08017        0.385831 
        5.37218         4.05423         0.38304 
        5.38789         4.03383         0.38028 
        5.40357         4.00718        0.377551 
        5.41929         3.97492        0.374844 
        5.43502         3.95968        0.372162 
         5.4507         3.92577        0.369514 
        5.46639         3.90265        0.366891 
        5.48212         3.88655        0.364287 
        5.49786         3.86809        0.361706 
        5.51353         3.83299        0.359163 
        5.52921         3.80789        0.356642 
        5.54495         3.77499        0.354138 
        5.56066         3.76514        0.351661 
        5.57637         3.73641        0.349208 
        5.59207         3.71462        0.346781 
        5.60778         3.69127        0.344377 
        5.62346         3.66102        0.341998 
        5.63916         3.64259        0.339641 
        5.65487         3.62407        0.337304 
         5.6706         3.60574        0.334987 
        5.68633         3.58122         0.33269 
        5.70203         3.54888        0.330421 
        5.71773          3.5407        0.328173 
        5.73344         3.51966        0.325944 
        5.74916         3.49737        0.323735 
        5.76486         3.47364        0.321549 
        5.78054         3.45158        0.319387 
        5.79626         3.43409        0.317239 
          5.812         3.41622        0.315109 
         5.8277         3.39891        0.313005 
        5.84339          3.3739         0.31092 
        5.85911         3.35753         0.30885 
        5.87484         3.33563          0.3068 
        5.89053         3.31212        0.304773 
        5.90623         3.29177        0.302763 
        5.92195         3.27353        0.300767 
        5.93767         3.26091        0.298791 
        5.95336         3.24079        0.296837 
        5.96905          3.2207          0.2949 
        5.98476         3.20025        0.292978 
        6.00048         3.17868        0.291073 
        6.01617         3.16466        0.289188 
        6.03185         3.13875        0.287321 
        6.04756         3.12838        0.285467 
        6.06331         3.09974        0.283625 
        6.07903         3.08844        0.281804 
        6.09473          3.0717            0.28 
        6.11044         3.05153        0.278211 
        6.12616         3.03485        0.276438 
        6.14186         3.02328        0.274682 
        6.15755         2.99839        0.272941 
        6.17326         2.98878        0.271215 
        6.18898         2.96716        0.269503 
        6.20467         2.94868        0.267808 
        6.22036          2.9291        0.266129 
         6.2361           2.919        0.264459 
         6.2518         2.89991        0.262807 
        6.26748          2.8815        0.261172 
        6.28319         2.86698        0.259547 
        6.29893          2.8519        0.257935 
        6.31463         2.83728        0.256339 
        6.33033         2.82587        0.254757 
        6.34604         2.80527        0.253187 
        6.36177         2.78763         0.25163 
        6.37747           2.773        0.250088 
