# k  (h/Mpc)    Pcb(k)  (Mpc/h)^3    Pcb_linear(k) (Mpc/h)^3   ShotnoiseSubtracted = true
      0.0200456          5323.6         5402.46 
      0.0350414          3802.8         3716.65 
      0.0492313         2629.17            2629 
      0.0637834         2178.91         2230.03 
      0.0800726         1723.62         1773.69 
       0.096163         1281.96         1243.68 
       0.111083         1032.18         989.176 
       0.126058         892.757          901.24 
       0.142273         759.927           763.1 
       0.158546         607.658         588.583 
        0.17375         524.787         497.346 
       0.188953         483.543         459.201 
       0.204907         412.178         406.957 
       0.220756         362.927         339.655 
        0.23588         319.284         295.681 
         0.2514         289.077         271.998 
       0.267535          274.05         246.974 
       0.283568         238.537         216.365 
       0.299022         222.374         192.739 
       0.314451         214.791         177.459 
       0.330372          188.44         163.356 
       0.346141         173.573         147.952 
       0.361624         162.282         134.451 
       0.377134         148.485          124.22 
       0.392932         144.558           115.3 
       0.408854         135.262         106.289 
       0.424564         128.893         97.9982 
       0.440253         117.226         91.0777 
       0.455999         108.631         85.0622 
       0.471626         104.766         79.4089 
        0.48727         101.446         74.0955 
       0.502856         93.3819         69.3779 
       0.518488         90.3925         65.1891 
       0.534347         85.1453         61.2533 
       0.550082         82.5956         57.6051 
       0.565732         80.1929         54.2789 
       0.581496         74.1854         51.2424 
       0.597222         71.7466         48.4455 
       0.612804          69.218          45.864 
       0.628434         67.7123         43.4567 
       0.644267         64.0779         41.2083 
       0.660051         61.7485          39.135 
       0.675724         59.7427         37.2176 
       0.691403         58.7438         35.4274 
       0.707174         56.6657         33.7454 
       0.722871          55.115         32.1799 
        0.73838         52.8227         30.7311 
       0.754018         50.0401         29.3612 
       0.769845         49.4952         28.0605 
        0.78569         47.7831         26.8382 
       0.801365         46.4738         25.7016 
       0.817031         44.6964         24.6325 
       0.832809         43.9792         23.6184 
       0.848511         42.6897         22.6669 
       0.864097         41.7661         21.7751 
       0.879701         40.9436         20.9313 
       0.895507         39.4684         20.1228 
       0.911279         38.4711         19.3594 
        0.92691         37.6866         18.6424 
       0.942635          36.888         17.9584 
       0.958396         36.3506         17.3077 
       0.974128         35.3778         16.6909 
       0.989692         34.1297         16.1106 
        1.00528         33.7239         15.5574 
        1.02113         32.8793         15.0219 
        1.03692         32.4187         14.5139 
        1.05264         31.7084          14.032 
        1.06832          31.103          13.573 
        1.08405         30.2857         13.1336 
        1.09979         30.0388         12.7136 
        1.11537         29.0968         12.3164 
        1.13105         28.5786         11.9341 
        1.14679         27.9655         11.5667 
        1.16256         27.5978         11.2142 
        1.17828         27.2041         10.8778 
        1.19395         26.6316         10.5565 
         1.2097         26.2524         10.2467 
        1.22537         25.7319         9.95096 
          1.241          25.254         9.66797 
        1.25666          24.894         9.39541 
        1.27241         24.5641         9.13222 
        1.28819         23.6784          8.8788 
        1.30392         23.8994         8.63585 
        1.31957         23.3521         8.40319 
        1.33529          22.888         8.17836 
        1.35108         22.6565         7.96097 
        1.36674         22.3089         7.75313 
         1.3824           21.88         7.55299 
        1.39811          21.428         7.35934 
        1.41389         21.2289         7.17182 
        1.42964         21.0328         6.99123 
        1.44531         20.6514         6.81781 
        1.46101         20.3952         6.64998 
        1.47667         20.1173         6.48837 
        1.49229         19.6782         6.33262 
        1.50793         19.5432         6.18187 
        1.52367         19.2606         6.03512 
        1.53953         19.0537         5.89219 
        1.55526          18.684          5.7551 
        1.57092         18.6309         5.62298 
        1.58662         18.3582         5.49474 
        1.60235         18.0496          5.3703 
        1.61809         17.8663         5.24969 
        1.63369         17.6317         5.13391 
        1.64941         17.4227         5.02082 
        1.66519         17.1663         4.91077 
        1.68085         16.8246         4.80484 
        1.69652         16.8637         4.70204 
        1.71228         16.5614          4.6017 
        1.72806         16.3113         4.50424 
        1.74368         16.1967         4.41061 
        1.75933         16.0025         4.31948 
        1.77505         15.8224         4.23053 
        1.79081         15.6381         4.14396 
         1.8065         15.4957         4.06021 
        1.82218         15.3646         3.97887 
        1.83797          15.229         3.89922 
        1.85367         15.0973         3.82222 
        1.86928         14.9128         3.74779 
        1.88497         14.7246         3.67495 
        1.90073         14.5332          3.6038 
        1.91647         14.2362         3.53461 
        1.93218         14.2871         3.46741 
        1.94787         14.0034         3.40208 
        1.96363         13.9469         3.33819 
        1.97935         13.7555         3.27608 
        1.99499         13.6008         3.21593 
        2.01064         13.4697         3.15721 
         2.0264         13.2992         3.09961 
        2.04216         13.3055         3.04348 
        2.05781         13.1254         2.98912 
        2.07353         12.9946          2.9359 
        2.08928         12.8294         2.88388 
        2.10499          12.687         2.83327 
        2.12065         12.6003         2.78404 
        2.13633         12.4661         2.73595 
        2.15211          12.343         2.68869 
        2.16785         12.2358          2.6427 
        2.18349         12.0682         2.59808 
        2.19916         11.9849         2.55441 
        2.21489          11.859          2.5116 
        2.23063         11.8208         2.46976 
         2.2463         11.6133         2.42907 
        2.26194         11.5366         2.38941 
        2.27765         11.3894         2.35044 
        2.29341         11.2933         2.31224 
        2.30914         11.2123         2.27498 
        2.32486         11.1331         2.23857 
        2.34061         11.0365         2.20291 
        2.35635         10.9364         2.16806 
        2.37203         10.7976         2.13409 
        2.38768         10.6695         2.10093 
        2.40339          10.652         2.06836 
        2.41914          10.498         2.03641 
        2.43483         10.4519         2.00526 
         2.4505         10.3417         1.97482 
        2.46622         10.2617         1.94491 
        2.48195         10.2114         1.91562 
        2.49759         10.0439          1.8871 
        2.51328         10.0236         1.85909 
        2.52906         9.89102         1.83148 
        2.54479         9.81522         1.80453 
        2.56049         9.70291         1.77819 
        2.57618          9.6647          1.7524 
        2.59189         9.65337         1.72709 
        2.60758         9.48818         1.70232 
        2.62325         9.41712         1.67807 
        2.63898          9.4031         1.65422 
        2.65468         9.25742         1.63088 
        2.67044         9.22853          1.6079 
        2.68618         9.12185         1.58542 
        2.70184         9.06307         1.56346 
        2.71755         8.98664         1.54187 
        2.73329         8.87187         1.52065 
        2.74897         8.82108         1.49991 
        2.76462         8.78573          1.4796 
        2.78034         8.67952         1.45959 
        2.79607         8.65639         1.43994 
        2.81179         8.55035         1.42067 
        2.82749         8.48616         1.40177 
        2.84321         8.43776         1.38321 
        2.85893         8.38144         1.36498 
        2.87462         8.31229         1.34713 
        2.89033         8.22337         1.32957 
        2.90605         8.18529         1.31232 
        2.92176          8.1071         1.29539 
        2.93747         8.03573         1.27876 
        2.95318         7.97472         1.26243 
        2.96891         7.92199         1.24637 
        2.98456         7.85453         1.23067 
        3.00023         7.80045         1.21522 
        3.01596         7.70501         1.19999 
        3.03164         7.69631         1.18507 
        3.04738         7.61504         1.17036 
         3.0631         7.54763          1.1559 
        3.07883         7.50314          1.1417 
        3.09456         7.42975         1.12773 
        3.11026         7.38035         1.11402 
        3.12596         7.31071         1.10055 
        3.14163         7.29712         1.08732 
        3.15734         7.21693         1.07429 
        3.17308         7.20525         1.06144 
        3.18879         7.11684         1.04884 
        3.20447          7.0541         1.03647 
         3.2202         7.01167         1.02425 
         3.2359         6.96198         1.01226 
        3.25157         6.92773         1.00049 
        3.26729         6.86551        0.988874 
        3.28304         6.81108         0.97742 
        3.29877         6.77868        0.966165 
        3.31446         6.73917        0.955112 
        3.33014         6.67064        0.944244 
        3.34585         6.63955         0.93353 
        3.36158         6.57395        0.922967 
        3.37727         6.53457        0.912603 
        3.39294         6.47975        0.902408 
        3.40867         6.44919        0.892334 
        3.42439         6.38352        0.882421 
        3.44008         6.35222        0.872679 
        3.45578         6.30525        0.863078 
        3.47153         6.24187        0.853601 
        3.48724         6.20464        0.844285 
        3.50292         6.14705        0.835131 
        3.51859         6.13438        0.826118 
        3.53431         6.07698        0.817211 
        3.55007         6.03231        0.808415 
        3.56577         5.97281        0.799785 
        3.58146          5.9544        0.791285 
        3.59719         5.90597         0.78289 
        3.61292         5.86624        0.774621 
        3.62859         5.83221        0.766503 
        3.64429         5.79202        0.758487 
        3.66003         5.74891        0.750563 
        3.67578         5.71764        0.742755 
        3.69146         5.68019        0.735089 
        3.70712         5.64035        0.727546 
        3.72284         5.59951        0.720082 
        3.73853         5.56436        0.712737 
        3.75422         5.50621        0.705492 
        3.76993         5.50524        0.698342 
        3.78564         5.45059        0.691295 
        3.80137         5.41736        0.684335 
        3.81707         5.35602        0.677486 
        3.83279         5.33891        0.670727 
        3.84853         5.28527        0.664049 
        3.86424         5.25129        0.657476 
        3.87992         5.23156        0.651002 
        3.89561         5.21321        0.644617 
        3.91134         5.15754        0.638304 
        3.92704         5.12534        0.632084 
        3.94273         5.09383        0.625954 
        3.95845         5.06749        0.619894 
        3.97418         5.01408        0.613915 
        3.98988         4.98713        0.608022 
        4.00554         4.95931        0.602224 
        4.02125         4.91582        0.596486 
        4.03698         4.89459        0.590814 
        4.05268         4.84285        0.585229 
        4.06839         4.81414        0.579713 
         4.0841         4.78388        0.574271 
        4.09983         4.75235        0.568891 
        4.11555         4.71919        0.563583 
        4.13124         4.67824        0.558358 
        4.14693         4.66003        0.553195 
        4.16266         4.62752        0.548086 
        4.17839         4.60466        0.543046 
        4.19408         4.57324         0.53808 
        4.20977         4.53718        0.533176 
        4.22551         4.50253        0.528321 
        4.24123         4.46098        0.523532 
        4.25691         4.43931        0.518816 
        4.27259         4.40636        0.514156 
        4.28831         4.37083        0.509546 
        4.30404         4.34702        0.504988 
        4.31974         4.31629        0.500496 
        4.33543         4.28503        0.496062 
        4.35116         4.26513        0.491671 
        4.36688         4.24213        0.487336 
        4.38255         4.21827        0.483069 
        4.39825         4.18639        0.478845 
        4.41398         4.16298        0.474663 
         4.4297         4.14717        0.470536 
        4.44541         4.10962         0.46646 
        4.46111         4.07389        0.462435 
        4.47683         4.05518        0.458455 
        4.49251         4.02685         0.45453 
        4.50819         4.00079        0.450653 
         4.5239         3.97472        0.446816 
        4.53962         3.94281        0.443019 
        4.55535          3.9245        0.439265 
        4.57106         3.90308         0.43556 
        4.58678         3.87452        0.431898 
         4.6025         3.85592        0.428277 
        4.61821         3.82086        0.424698 
        4.63391         3.79307        0.421165 
         4.6496         3.76933        0.417675 
        4.66532         3.75263        0.414218 
        4.68103         3.72775        0.410803 
        4.69673         3.70857         0.40743 
        4.71241         3.68198        0.404098 
        4.72811         3.66164        0.400799 
        4.74384         3.64528        0.397532 
        4.75955         3.61316        0.394308 
        4.77525         3.59235         0.39112 
        4.79096         3.57243        0.387965 
        4.80669         3.54779        0.384843 
         4.8224           3.523         0.38176 
        4.83809          3.5065        0.378713 
        4.85379         3.48423        0.375699 
         4.8695         3.46379        0.372715 
        4.88521         3.44025        0.369765 
        4.90093         3.42636        0.366846 
        4.91663          3.4014        0.363963 
        4.93234         3.38037        0.361107 
        4.94807         3.36575         0.35828 
        4.96377         3.34533        0.355489 
        4.97943         3.32445        0.352734 
        4.99514         3.30764        0.350001 
        5.01086         3.28291        0.347296 
        5.02654         3.26111        0.344626 
        5.04227          3.2464        0.341977 
          5.058         3.22932        0.339354 
        5.07371         3.21072        0.336764 
        5.08942         3.17924        0.334202 
        5.10513         3.16299        0.331666 
        5.12084         3.14722        0.329155 
        5.13656         3.13153         0.32667 
        5.15225         3.11641        0.324216 
        5.16796         3.09496        0.321784 
        5.18369         3.06853        0.319374 
         5.1994           3.058        0.316994 
        5.21509         3.03626         0.31464 
        5.23079         3.02419        0.312307 
        5.24649          3.0025        0.310001 
        5.26217         2.98473        0.307719 
        5.27788         2.96948        0.305457 
        5.29359         2.96013        0.303218 
        5.30933          2.9399        0.300998 
        5.32504         2.92553        0.298804 
        5.34073          2.9078        0.296635 
        5.35646         2.88501        0.294483 
        5.37218          2.8785        0.292352 
        5.38789         2.85861        0.290246 
        5.40357         2.84239        0.288163 
        5.41929         2.82101        0.286097 
        5.43502         2.81122         0.28405 
         5.4507         2.79022        0.282028 
        5.46639         2.77843        0.280026 
        5.48212         2.75908        0.278039 
        5.49786         2.74674        0.276069 
        5.51353         2.72933        0.274129 
        5.52921         2.71613        0.272204 
        5.54495         2.69949        0.270293 
        5.56066         2.68753        0.268403 
        5.57637         2.67574        0.266531 
        5.59207         2.65602        0.264678 
        5.60778          2.6458        0.262843 
        5.62346         2.62651        0.261028 
        5.63916         2.61473        0.259228 
        5.65487         2.59502        0.257445 
         5.6706         2.58626        0.255676 
        5.68633           2.571        0.253923 
        5.70203         2.55856        0.252191 
        5.71773         2.54158        0.250475 
        5.73344         2.52911        0.248775 
        5.74916         2.51722        0.247088 
        5.76486          2.5063         0.24542 
        5.78054         2.48884         0.24377 
        5.79626         2.47459        0.242131 
          5.812         2.45752        0.240505 
         5.8277         2.44938        0.238899 
        5.84339         2.43829        0.237308 
        5.85911         2.42402        0.235728 
        5.87484         2.40997        0.234163 
        5.89053         2.39977        0.232615 
        5.90623         2.38683        0.231081 
        5.92195         2.37402        0.229558 
        5.93767         2.36338         0.22805 
        5.95336         2.34694        0.226558 
        5.96905          2.3365         0.22508 
        5.98476         2.32322        0.223614 
        6.00048         2.31369        0.222159 
        6.01617          2.2985         0.22072 
        6.03185         2.28327        0.219296 
        6.04756         2.27927        0.217881 
        6.06331         2.26849        0.216475 
        6.07903         2.25481        0.215085 
        6.09473         2.24054        0.213708 
        6.11044         2.23088        0.212343 
        6.12616         2.22194        0.210989 
        6.14186          2.2125        0.209649 
        6.15755         2.19962        0.208321 
        6.17326          2.1874        0.207003 
        6.18898         2.17684        0.205696 
        6.20467         2.16563        0.204403 
        6.22036         2.15227        0.203121 
         6.2361         2.14788        0.201846 
         6.2518         2.13623        0.200585 
        6.26748          2.1251        0.199338 
        6.28319         2.11394        0.198097 
        6.29893         2.10532        0.196867 
        6.31463         2.09381        0.195649 
        6.33033         2.08055        0.194441 
        6.34604         2.07366        0.193243 
        6.36177         2.06199        0.192055 
        6.37747         2.05291        0.190878 
