# k  (h/Mpc)    Pcb(k)  (Mpc/h)^3    Pcb_linear(k) (Mpc/h)^3   ShotnoiseSubtracted = true
      0.0200456         8118.52         8270.26 
      0.0350414         5565.85         5689.56 
      0.0492313         4012.92         4024.56 
      0.0637834         3474.08          3413.8 
      0.0800726         2755.46         2715.22 
       0.096163         1879.28         1903.87 
       0.111083         1488.41         1514.26 
       0.126058          1395.5         1379.65 
       0.142273         1203.38         1168.18 
       0.158546         972.025         901.022 
        0.17375         784.967         761.354 
       0.188953         758.976         702.959 
       0.204907         710.337         622.982 
       0.220756         593.863         519.955 
        0.23588         520.848         452.637 
         0.2514         460.384         416.384 
       0.267535         440.994         378.075 
       0.283568         398.526         331.218 
       0.299022         368.255         295.051 
       0.314451         340.653          271.66 
       0.330372         315.683         250.071 
       0.346141         283.776         226.489 
       0.361624         271.836         205.823 
       0.377134         254.363          190.16 
       0.392932         235.219         176.505 
       0.408854         225.693         162.711 
       0.424564         216.046         150.019 
       0.440253         205.012         139.425 
       0.455999         192.723         130.216 
       0.471626         178.714         121.562 
        0.48727         173.351         113.428 
       0.502856         166.557         106.206 
       0.518488         162.783         99.7936 
       0.534347         154.957         93.7685 
       0.550082         143.883         88.1838 
       0.565732         139.446         83.0918 
       0.581496          133.48         78.4435 
       0.597222         129.284         74.1619 
       0.612804         123.582         70.2101 
       0.628434         120.728          66.525 
       0.644267          116.57         63.0829 
       0.660051         114.319         59.9091 
       0.675724          110.67         56.9739 
       0.691403         107.315         54.2334 
       0.707174         103.135         51.6586 
       0.722871         101.531          49.262 
        0.73838         99.5219         47.0441 
       0.754018         94.8474          44.947 
       0.769845         93.0517         42.9559 
        0.78569          90.762         41.0847 
       0.801365         88.0554         39.3448 
       0.817031         85.0431         37.7082 
       0.832809         84.1545         36.1558 
       0.848511         80.9455         34.6992 
       0.864097         78.9579         33.3341 
       0.879701         77.8887         32.0422 
       0.895507         76.3113         30.8046 
       0.911279         75.0001         29.6359 
        0.92691         73.2423         28.5385 
       0.942635          70.933         27.4913 
       0.958396         70.7041         26.4952 
       0.974128         68.8618         25.5509 
       0.989692         67.3654         24.6626 
        1.00528         65.9797         23.8158 
        1.02113         64.7297          22.996 
        1.03692         62.8452         22.2183 
        1.05264         62.6913         21.4806 
        1.06832         60.9042          20.778 
        1.08405          60.186         20.1053 
        1.09979         59.6105         19.4624 
        1.11537         57.3636         18.8544 
        1.13105         57.8119          18.269 
        1.14679         56.4926         17.7066 
        1.16256         55.5244          17.167 
        1.17828         54.1788          16.652 
        1.19395         53.6698         16.1602 
         1.2097         52.5264         15.6859 
        1.22537         52.4786         15.2332 
          1.241          51.082            14.8 
        1.25666         50.1168         14.3828 
        1.27241         49.6471         13.9799 
        1.28819         48.5044         13.5919 
        1.30392          47.884           13.22 
        1.31957         47.4999         12.8639 
        1.33529         46.7968         12.5197 
        1.35108         46.3773         12.1869 
        1.36674         45.6634         11.8687 
         1.3824         44.4837         11.5624 
        1.39811         44.3506         11.2659 
        1.41389         43.6688         10.9788 
        1.42964         42.9482         10.7024 
        1.44531         42.4581         10.4369 
        1.46101          41.546           10.18 
        1.47667         41.5133          9.9326 
        1.49229         41.0398         9.69418 
        1.50793          40.308         9.46341 
        1.52367         39.7785         9.23875 
        1.53953         39.5646         9.01996 
        1.55526         38.8246         8.81009 
        1.57092         38.4594         8.60783 
        1.58662          37.938         8.41152 
        1.60235         37.5602         8.22103 
        1.61809         36.9258          8.0364 
        1.63369         36.4682         7.85915 
        1.64941         35.9567         7.68603 
        1.66519         35.5539         7.51757 
        1.68085         35.2776         7.35541 
        1.69652         34.8108         7.19804 
        1.71228         34.6014         7.04443 
        1.72806         34.0648         6.89523 
        1.74368          33.563          6.7519 
        1.75933         33.1741          6.6124 
        1.77505         33.0315         6.47624 
        1.79081         32.4751         6.34371 
         1.8065         32.1152         6.21549 
        1.82218         31.8854         6.09098 
        1.83797         31.4116         5.96905 
        1.85367         30.9912         5.85118 
        1.86928         30.7859         5.73723 
        1.88497         30.3786         5.62573 
        1.90073         30.2149         5.51681 
        1.91647         29.7732          5.4109 
        1.93218         29.5662         5.30803 
        1.94787         29.1547         5.20801 
        1.96363         29.0109          5.1102 
        1.97935         28.6176         5.01513 
        1.99499         28.2896         4.92304 
        2.01064         28.1076         4.83316 
         2.0264         27.5962         4.74498 
        2.04216         27.3283         4.65906 
        2.05781         27.0536         4.57584 
        2.07353         26.8235         4.49438 
        2.08928         26.8003         4.41474 
        2.10499         26.4639         4.33726 
        2.12065         26.0017          4.2619 
        2.13633         25.9122         4.18828 
        2.15211         25.4042         4.11594 
        2.16785         25.2562         4.04553 
        2.18349         25.0613         3.97722 
        2.19916         24.8384         3.91037 
        2.21489         24.5204         3.84484 
        2.23063         24.3139         3.78079 
         2.2463         24.1522          3.7185 
        2.26194         23.9613         3.65778 
        2.27765         23.6396         3.59812 
        2.29341           23.37         3.53965 
        2.30914         23.2754         3.48262 
        2.32486         22.9799         3.42688 
        2.34061         22.7839         3.37228 
        2.35635         22.4962         3.31894 
        2.37203         22.3364         3.26694 
        2.38768         22.0934         3.21617 
        2.40339         21.9792         3.16632 
        2.41914         21.7429         3.11741 
        2.43483         21.4993         3.06972 
         2.4505         21.2721         3.02311 
        2.46622         21.0677         2.97733 
        2.48195         20.9004         2.93249 
        2.49759         20.6187         2.88883 
        2.51328         20.4531         2.84595 
        2.52906         20.3548         2.80368 
        2.54479         20.0982         2.76244 
        2.56049         19.8755         2.72211 
        2.57618         19.6921         2.68263 
        2.59189         19.6173         2.64388 
        2.60758          19.421         2.60597 
        2.62325          19.245         2.56885 
        2.63898         19.1239         2.53233 
        2.65468         18.9134         2.49661 
        2.67044         18.7299         2.46143 
        2.68618         18.5562         2.42701 
        2.70184         18.4255         2.39339 
        2.71755           18.24         2.36034 
        2.73329         18.0785         2.32786 
        2.74897          17.842         2.29611 
        2.76462         17.9052         2.26503 
        2.78034         17.6133         2.23439 
        2.79607         17.4581          2.2043 
        2.81179         17.3289          2.1748 
        2.82749         17.1616         2.14588 
        2.84321         17.0494         2.11746 
        2.85893          16.858         2.08956 
        2.87462         16.7087         2.06222 
        2.89033         16.5644         2.03535 
        2.90605         16.4996         2.00894 
        2.92176         16.2331         1.98302 
        2.93747         16.1749         1.95757 
        2.95318          15.988         1.93256 
        2.96891         15.8571         1.90799 
        2.98456         15.7353         1.88395 
        3.00023         15.5611          1.8603 
        3.01596         15.5181         1.83699 
        3.03164         15.3537         1.81414 
        3.04738         15.1608         1.79162 
         3.0631         15.0378         1.76949 
        3.07883         14.9203         1.74774 
        3.09456         14.8209         1.72636 
        3.11026         14.6861         1.70538 
        3.12596         14.5277         1.68475 
        3.14163         14.4595         1.66451 
        3.15734         14.2902         1.64456 
        3.17308         14.1797         1.62489 
        3.18879          14.071          1.6056 
        3.20447         13.9512         1.58666 
         3.2202         13.8149         1.56796 
         3.2359         13.7422          1.5496 
        3.25157         13.6309         1.53158 
        3.26729         13.4878          1.5138 
        3.28304         13.3807         1.49627 
        3.29877         13.2485         1.47904 
        3.31446         13.1403         1.46212 
        3.33014         13.0344         1.44548 
        3.34585          12.923         1.42908 
        3.36158         12.8614         1.41291 
        3.37727         12.6732         1.39704 
        3.39294         12.6108         1.38144 
        3.40867         12.5158         1.36601 
        3.42439          12.404         1.35084 
        3.44008         12.3366         1.33592 
        3.45578         12.2194         1.32123 
        3.47153         12.1357         1.30672 
        3.48724         12.0228         1.29246 
        3.50292         11.9023         1.27845 
        3.51859         11.8404         1.26465 
        3.53431         11.7431         1.25101 
        3.55007         11.6549         1.23755 
        3.56577         11.5633         1.22434 
        3.58146         11.5026         1.21132 
        3.59719         11.3609         1.19847 
        3.61292         11.2635         1.18581 
        3.62859         11.1542         1.17339 
        3.64429         11.1082         1.16112 
        3.66003         10.9891         1.14899 
        3.67578         10.9181         1.13703 
        3.69146         10.8187          1.1253 
        3.70712         10.7379         1.11375 
        3.72284         10.6589         1.10232 
        3.73853         10.5627         1.09108 
        3.75422         10.5203         1.07999 
        3.76993         10.4316         1.06904 
        3.78564         10.3156         1.05826 
        3.80137         10.2507          1.0476 
        3.81707         10.1544         1.03712 
        3.83279         10.0707         1.02677 
        3.84853          9.9931         1.01655 
        3.86424         9.91734         1.00649 
        3.87992         9.82912        0.996575 
        3.89561         9.77166          0.9868 
        3.91134         9.69975        0.977136 
        3.92704         9.59737        0.967614 
        3.94273         9.55744         0.95823 
        3.95845         9.47576        0.948954 
        3.97418         9.38683          0.9398 
        3.98988         9.30544         0.93078 
        4.00554         9.26767        0.921904 
        4.02125         9.17433         0.91312 
        4.03698         9.11618        0.904437 
        4.05268         9.04576        0.895888 
        4.06839         8.94553        0.887444 
         4.0841         8.91019        0.879112 
        4.09983         8.83229        0.870877 
        4.11555         8.75338        0.862751 
        4.13124         8.70309        0.854752 
        4.14693         8.61002        0.846849 
        4.16266         8.56114        0.839028 
        4.17839         8.48986        0.831312 
        4.19408         8.43595        0.823711 
        4.20977         8.37392        0.816202 
        4.22551         8.29802         0.80877 
        4.24123          8.2397        0.801439 
        4.25691         8.17288        0.794219 
        4.27259           8.101        0.787087 
        4.28831           8.042        0.780029 
        4.30404          7.9998        0.773052 
        4.31974         7.93187        0.766175 
        4.33543           7.857        0.759387 
        4.35116         7.80132        0.752666 
        4.36688         7.74059        0.746029 
        4.38255         7.68933        0.739498 
        4.39825          7.6073        0.733031 
        4.41398         7.58311         0.72663 
         4.4297         7.51689        0.720312 
        4.44541         7.46351        0.714071 
        4.46111         7.39639         0.70791 
        4.47683         7.34562        0.701818 
        4.49251         7.30363         0.69581 
        4.50819         7.23046        0.689874 
         4.5239         7.19337           0.684 
        4.53962         7.13818        0.678188 
        4.55535         7.07844        0.672441 
        4.57106         7.03491         0.66677 
        4.58678         6.98105        0.661163 
         4.6025         6.92225        0.655619 
        4.61821         6.86134        0.650141 
        4.63391         6.83918        0.644733 
         4.6496         6.77165         0.63939 
        4.66532         6.74947        0.634099 
        4.68103         6.65428        0.628871 
        4.69673         6.62797        0.623707 
        4.71241         6.58556        0.618607 
        4.72811         6.51649        0.613556 
        4.74384         6.47754        0.608555 
        4.75955          6.4152        0.603619 
        4.77525         6.39541         0.59874 
        4.79096         6.33626        0.593909 
        4.80669         6.30801         0.58913 
         4.8224         6.25292         0.58441 
        4.83809         6.20775        0.579746 
        4.85379         6.14511        0.575132 
         4.8695         6.11606        0.570564 
        4.88521         6.07327        0.566048 
        4.90093         6.01065         0.56158 
        4.91663         5.99032        0.557166 
        4.93234         5.95037        0.552794 
        4.94807          5.9116        0.548467 
        4.96377         5.86904        0.544194 
        4.97943         5.81047        0.539977 
        4.99514         5.76971        0.535793 
        5.01086         5.74474        0.531652 
        5.02654         5.69808        0.527565 
        5.04227         5.65381        0.523509 
          5.058         5.62307        0.519494 
        5.07371          5.5823         0.51553 
        5.08942         5.53498        0.511607 
        5.10513         5.50773        0.507724 
        5.12084          5.4647         0.50388 
        5.13656         5.43271        0.500078 
        5.15225         5.41332        0.496321 
        5.16796         5.36133        0.492597 
        5.18369         5.32029        0.488908 
         5.1994         5.28869        0.485264 
        5.21509         5.25221        0.481661 
        5.23079         5.21949         0.47809 
        5.24649         5.17972        0.474559 
        5.26217         5.15177        0.471066 
        5.27788         5.10651        0.467603 
        5.29359         5.07147        0.464175 
        5.30933          5.0486        0.460777 
        5.32504          4.9992        0.457419 
        5.34073         4.97434        0.454098 
        5.35646         4.93124        0.450804 
        5.37218         4.90369        0.447542 
        5.38789         4.87434        0.444318 
        5.40357         4.83665         0.44113 
        5.41929         4.80621        0.437966 
        5.43502         4.77338        0.434833 
         5.4507         4.74569        0.431738 
        5.46639         4.70423        0.428674 
        5.48212         4.67416        0.425632 
        5.49786         4.65093        0.422616 
        5.51353         4.61917        0.419645 
        5.52921         4.58337        0.416699 
        5.54495         4.56893        0.413774 
        5.56066         4.53133         0.41088 
        5.57637         4.49549        0.408014 
        5.59207         4.46407        0.405178 
        5.60778         4.45051        0.402369 
        5.62346         4.41832         0.39959 
        5.63916         4.38666        0.396835 
        5.65487         4.34562        0.394104 
         5.6706         4.32461        0.391397 
        5.68633          4.2987        0.388714 
        5.70203         4.27001        0.386062 
        5.71773         4.24759        0.383436 
        5.73344          4.2225        0.380832 
        5.74916         4.19335        0.378251 
        5.76486         4.17032        0.375697 
        5.78054         4.13774        0.373171 
        5.79626         4.10982        0.370661 
          5.812         4.09671        0.368172 
         5.8277         4.06002        0.365714 
        5.84339         4.03338        0.363278 
        5.85911         4.01499         0.36086 
        5.87484         3.99002        0.358464 
        5.89053         3.96546        0.356095 
        5.90623         3.94285        0.353747 
        5.92195         3.90729        0.351415 
        5.93767         3.89773        0.349107 
        5.95336          3.8717        0.346823 
        5.96905         3.83236         0.34456 
        5.98476         3.82026        0.342315 
        6.00048         3.78816        0.340089 
        6.01617         3.77336        0.337886 
        6.03185         3.75414        0.335705 
        6.04756         3.72965        0.333539 
        6.06331         3.69986        0.331387 
        6.07903         3.67517        0.329259 
        6.09473         3.66147        0.327151 
        6.11044         3.63304        0.325061 
        6.12616         3.62476        0.322989 
        6.14186         3.59523        0.320937 
        6.15755         3.57448        0.318904 
        6.17326         3.54897        0.316886 
        6.18898         3.53015        0.314886 
        6.20467         3.51262        0.312906 
        6.22036         3.48796        0.310944 
         6.2361         3.46441        0.308993 
         6.2518         3.44957        0.307062 
        6.26748         3.42796        0.305153 
        6.28319         3.40281        0.303254 
        6.29893         3.38682         0.30137 
        6.31463          3.3554        0.299505 
        6.33033         3.35712        0.297657 
        6.34604         3.32397        0.295823 
        6.36177         3.30658        0.294003 
        6.37747         3.28299        0.292202 
