# k  (h/Mpc)    Pcb(k)  (Mpc/h)^3    Pcb_linear(k) (Mpc/h)^3   ShotnoiseSubtracted = true
      0.0200456         16836.1         17132.1 
      0.0350414           12172         11786.1 
      0.0492313         8231.82         8336.99 
      0.0637834         6767.16         7071.78 
      0.0800726         5327.88         5624.65 
       0.096163         4120.43         3943.92 
       0.111083         3339.59         3136.84 
       0.126058         2820.02         2857.98 
       0.142273         2449.01         2419.91 
       0.158546         1984.11         1866.49 
        0.17375          1752.8         1577.17 
       0.188953         1655.09          1456.2 
       0.204907         1417.91         1290.53 
       0.220756         1271.84          1077.1 
        0.23588         1132.69         937.651 
         0.2514         1019.47         862.551 
       0.267535         990.173         783.193 
       0.283568         870.724         686.128 
       0.299022         831.328         611.206 
       0.314451         855.651         562.751 
       0.330372         739.818         518.029 
       0.346141         682.955         469.179 
       0.361624         654.513         426.367 
       0.377134         620.817         393.921 
       0.392932         597.355         365.635 
       0.408854         570.652          337.06 
       0.424564         554.451         310.768 
       0.440253         506.309         288.822 
       0.455999         484.774         269.746 
       0.471626         492.848         251.819 
        0.48727         465.167         234.969 
       0.502856         434.521         220.008 
       0.518488         431.458         206.725 
       0.534347         405.412         194.244 
       0.550082         389.315         182.675 
       0.565732         386.983         172.127 
       0.581496         374.872         162.498 
       0.597222         364.122         153.628 
       0.612804         355.037         145.442 
       0.628434         341.644         137.808 
       0.644267         328.661         130.678 
       0.660051         324.526         124.103 
       0.675724         318.713         118.023 
       0.691403         311.887         112.346 
       0.707174         299.895         107.012 
       0.722871           295.5         102.048 
        0.73838         291.625         97.4533 
       0.754018          280.45          93.109 
       0.769845         279.477         88.9843 
        0.78569         272.643         85.1081 
       0.801365         264.618         81.5038 
       0.817031          261.41         78.1136 
       0.832809         256.492         74.8978 
       0.848511         250.421         71.8803 
       0.864097         244.194         69.0525 
       0.879701         243.182         66.3764 
       0.895507         237.149         63.8127 
       0.911279         231.005         61.3917 
        0.92691         228.502         59.1182 
       0.942635          226.55          56.949 
       0.958396         220.795         54.8855 
       0.974128         217.793         52.9294 
       0.989692         210.221         51.0893 
        1.00528         209.828         49.3351 
        1.02113         206.602         47.6368 
        1.03692         202.005         46.0258 
        1.05264         198.796         44.4976 
        1.06832         198.478         43.0422 
        1.08405         192.836         41.6487 
        1.09979         191.517          40.317 
        1.11537         188.089         39.0574 
        1.13105         184.633         37.8448 
        1.14679           183.1         36.6797 
        1.16256         180.014          35.562 
        1.17828         178.158         34.4952 
        1.19395         173.588         33.4762 
         1.2097         172.727         32.4938 
        1.22537         171.536         31.5561 
          1.241         166.898         30.6587 
        1.25666         165.234         29.7944 
        1.27241         161.607         28.9598 
        1.28819         160.119         28.1561 
        1.30392         158.063         27.3857 
        1.31957         154.453         26.6479 
        1.33529         152.625         25.9349 
        1.35108          151.21         25.2455 
        1.36674         148.463         24.5864 
         1.3824         147.699         23.9518 
        1.39811         144.705         23.3377 
        1.41389         142.391          22.743 
        1.42964         140.484         22.1703 
        1.44531         139.276         21.6204 
        1.46101         136.353         21.0882 
        1.47667         136.063         20.5757 
        1.49229         134.036         20.0818 
        1.50793         131.557         19.6037 
        1.52367         130.017         19.1383 
        1.53953         127.976         18.6851 
        1.55526         127.302         18.2503 
        1.57092         125.715         17.8314 
        1.58662          123.32         17.4247 
        1.60235         121.851         17.0301 
        1.61809         120.753         16.6476 
        1.63369         118.626         16.2804 
        1.64941          118.14         15.9218 
        1.66519         116.261         15.5729 
        1.68085         114.118         15.2369 
        1.69652         113.208         14.9109 
        1.71228         112.156         14.5927 
        1.72806         110.907         14.2837 
        1.74368         109.087         13.9868 
        1.75933         108.353         13.6978 
        1.77505         106.404         13.4157 
        1.79081         105.115         13.1412 
         1.8065         103.375         12.8756 
        1.82218         102.425         12.6176 
        1.83797         102.032         12.3651 
        1.85367         99.9126         12.1209 
        1.86928         99.5287         11.8848 
        1.88497         97.7729         11.6539 
        1.90073         97.1629         11.4282 
        1.91647         95.5193         11.2088 
        1.93218         94.3911         10.9957 
        1.94787         93.0391         10.7885 
        1.96363         92.3093         10.5859 
        1.97935         91.4945          10.389 
        1.99499         90.6689         10.1982 
        2.01064         88.6052          10.012 
         2.0264         88.0948         9.82936 
        2.04216         86.4383         9.65138 
        2.05781         85.9405         9.47898 
        2.07353         84.9414         9.31023 
        2.08928         83.7904         9.14525 
        2.10499         82.8285         8.98476 
        2.12065         82.3271         8.82864 
        2.13633          81.264         8.67613 
        2.15211         79.9287         8.52628 
        2.16785         78.7631         8.38042 
        2.18349         78.0101         8.23893 
        2.19916         77.1293         8.10043 
        2.21489         76.2267          7.9647 
        2.23063         75.2444         7.83201 
         2.2463         74.7673         7.70298 
        2.26194         73.8087          7.5772 
        2.27765          72.922         7.45361 
        2.29341         72.0985         7.33249 
        2.30914         71.3167         7.21433 
        2.32486         69.9155         7.09888 
        2.34061         69.4429         6.98578 
        2.35635         68.8289         6.87527 
        2.37203         67.7824         6.76755 
        2.38768         67.2182         6.66239 
        2.40339         66.5491         6.55911 
        2.41914         65.3478          6.4578 
        2.43483           65.13           6.359 
         2.4505         64.2378         6.26246 
        2.46622         63.7001         6.16761 
        2.48195         62.7751         6.07474 
        2.49759         62.1835          5.9843 
        2.51328         61.5178         5.89547 
        2.52906          60.842         5.80791 
        2.54479         60.1813         5.72247 
        2.56049         59.3098         5.63893 
        2.57618         58.6876         5.55715 
        2.59189         58.1924         5.47688 
        2.60758         57.4957         5.39834 
        2.62325         56.9092         5.32144 
        2.63898         56.3955          5.2458 
        2.65468         55.8045         5.17179 
        2.67044         55.1969         5.09891 
        2.68618         54.7148         5.02762 
        2.70184          53.996         4.95798 
        2.71755         53.2017         4.88951 
        2.73329         52.9287         4.82223 
        2.74897         52.4658         4.75646 
        2.76462         51.9603         4.69206 
        2.78034         51.3055         4.62861 
        2.79607          50.574         4.56627 
        2.81179         50.0815         4.50516 
        2.82749         49.6554         4.44525 
        2.84321         49.3269         4.38637 
        2.85893         48.6569         4.32859 
        2.87462         47.9615         4.27195 
        2.89033         47.5229         4.21629 
        2.90605         46.9935         4.16158 
        2.92176         46.7151         4.10787 
        2.93747         46.1768         4.05516 
        2.95318         45.6663         4.00336 
        2.96891         45.1748         3.95245 
        2.98456         44.8073         3.90266 
        3.00023         44.1491         3.85367 
        3.01596         43.8227         3.80537 
        3.03164         43.3776         3.75804 
        3.04738         42.9186         3.71139 
         3.0631         42.6589         3.66556 
        3.07883         42.1343          3.6205 
        3.09456         41.6703         3.57621 
        3.11026         41.1627         3.53274 
        3.12596         40.8132         3.49001 
        3.14163         40.4285         3.44808 
        3.15734         40.0318         3.40675 
        3.17308          39.745         3.36601 
        3.18879         39.3528         3.32605 
        3.20447         38.7903         3.28681 
         3.2202         38.4587         3.24808 
         3.2359         38.1797         3.21005 
        3.25157         37.6411         3.17272 
        3.26729         37.4429         3.13588 
        3.28304         37.0923         3.09956 
        3.29877         36.5257         3.06386 
        3.31446         36.3049         3.02881 
        3.33014         35.8102         2.99435 
        3.34585         35.4491         2.96037 
        3.36158         35.1932         2.92688 
        3.37727         34.8148         2.89401 
        3.39294         34.5469         2.86168 
        3.40867         34.2655         2.82974 
        3.42439         33.8763          2.7983 
        3.44008         33.5765          2.7674 
        3.45578         33.2613         2.73696 
        3.47153         33.0533         2.70691 
        3.48724         32.6511         2.67736 
        3.50292         32.4024         2.64833 
        3.51859         32.0611         2.61975 
        3.53431         31.7586         2.59151 
        3.55007         31.3212         2.56362 
        3.56577         31.1128         2.53625 
        3.58146         30.7512         2.50929 
        3.59719         30.5668         2.48267 
        3.61292         30.3349         2.45645 
        3.62859         29.9481          2.4307 
        3.64429         29.6915         2.40529 
        3.66003         29.3835         2.38016 
        3.67578         29.1891          2.3554 
        3.69146         28.9583         2.33109 
        3.70712         28.5735         2.30717 
        3.72284         28.4036          2.2835 
        3.73853         28.1429          2.2602 
        3.75422         27.9209         2.23723 
        3.76993         27.6234         2.21456 
        3.78564         27.3058         2.19221 
        3.80137         27.1279         2.17014 
        3.81707         26.8705         2.14842 
        3.83279         26.5927         2.12698 
        3.84853         26.3965         2.10581 
        3.86424         26.0512         2.08496 
        3.87992         25.8575         2.06443 
        3.89561         25.7345         2.04418 
        3.91134         25.3905         2.02416 
        3.92704         25.1801         2.00444 
        3.94273         24.9042           1.985 
        3.95845         24.7566         1.96578 
        3.97418         24.5803         1.94682 
        3.98988         24.3327         1.92814 
        4.00554         24.0585         1.90975 
        4.02125          23.862         1.89155 
        4.03698         23.6722         1.87357 
        4.05268         23.4836         1.85586 
        4.06839         23.2555         1.83836 
         4.0841         23.0565         1.82111 
        4.09983         22.8388         1.80405 
        4.11555          22.672         1.78721 
        4.13124          22.562         1.77064 
        4.14693         22.3268         1.75427 
        4.16266         22.1269         1.73807 
        4.17839         21.9369         1.72209 
        4.19408         21.6796         1.70634 
        4.20977         21.5492         1.69079 
        4.22551         21.4077         1.67539 
        4.24123         21.1688          1.6602 
        4.25691         21.0195         1.64525 
        4.27259         20.8453         1.63047 
        4.28831         20.6512         1.61585 
        4.30404         20.4694          1.6014 
        4.31974         20.3415         1.58715 
        4.33543         20.1616         1.57309 
        4.35116         19.9876         1.55917 
        4.36688          19.793         1.54542 
        4.38255         19.6216         1.53189 
        4.39825         19.5103         1.51849 
        4.41398         19.2887         1.50523 
         4.4297          19.214         1.49215 
        4.44541          19.008         1.47922 
        4.46111         18.7671         1.46646 
        4.47683         18.6579         1.45383 
        4.49251         18.5518         1.44139 
        4.50819         18.3742         1.42909 
         4.5239         18.2356         1.41693 
        4.53962         18.1421         1.40489 
        4.55535         17.9487         1.39298 
        4.57106         17.8304         1.38123 
        4.58678         17.6294         1.36962 
         4.6025         17.4914         1.35813 
        4.61821         17.3887         1.34679 
        4.63391         17.2249         1.33558 
         4.6496          17.081         1.32451 
        4.66532         16.9337         1.31355 
        4.68103         16.8178         1.30272 
        4.69673         16.6708         1.29203 
        4.71241         16.5831         1.28146 
        4.72811         16.4007           1.271 
        4.74384         16.2777         1.26064 
        4.75955         16.1458         1.25041 
        4.77525         16.0258         1.24031 
        4.79096          15.888          1.2303 
        4.80669         15.8087          1.2204 
         4.8224         15.7088         1.21062 
        4.83809         15.5167         1.20096 
        4.85379         15.4048          1.1914 
         4.8695         15.3184         1.18194 
        4.88521         15.1592         1.17258 
        4.90093         15.0359         1.16333 
        4.91663         14.9586         1.15418 
        4.93234         14.8349         1.14513 
        4.94807         14.7164         1.13616 
        4.96377         14.6093         1.12731 
        4.97943         14.5045         1.11858 
        4.99514         14.3926         1.10991 
        5.01086          14.272         1.10133 
        5.02654         14.1825         1.09286 
        5.04227         14.0611         1.08446 
          5.058         13.9373         1.07615 
        5.07371         13.8436         1.06793 
        5.08942         13.7439         1.05981 
        5.10513         13.6362         1.05176 
        5.12084         13.5452          1.0438 
        5.13656         13.4328         1.03592 
        5.15225         13.3415         1.02814 
        5.16796         13.2366         1.02043 
        5.18369          13.127         1.01279 
         5.1994         13.0374         1.00524 
        5.21509         12.9398        0.997774 
        5.23079         12.8592        0.990377 
        5.24649         12.7647        0.983062 
        5.26217         12.6636        0.975826 
        5.27788         12.5575        0.968654 
        5.29359         12.4508        0.961552 
        5.30933         12.3787        0.954513 
        5.32504         12.2844        0.947556 
        5.34073         12.2107        0.940677 
        5.35646         12.1417        0.933853 
        5.37218         12.0264        0.927096 
        5.38789         11.9224        0.920417 
        5.40357         11.8539        0.913812 
        5.41929         11.7601        0.907258 
        5.43502         11.6986        0.900768 
         5.4507          11.608        0.894358 
        5.46639         11.4874        0.888009 
        5.48212         11.4349        0.881708 
        5.49786         11.3598        0.875461 
        5.51353         11.2686        0.869306 
        5.52921         11.1999        0.863204 
        5.54495         11.1148        0.857144 
        5.56066         11.0301        0.851148 
        5.57637           10.96        0.845212 
        5.59207         10.8718        0.839338 
        5.60778         10.8121        0.833518 
        5.62346         10.7164        0.827761 
        5.63916         10.6505        0.822054 
        5.65487         10.5801        0.816398 
         5.6706         10.4954         0.81079 
        5.68633         10.4149        0.805232 
        5.70203         10.3496        0.799738 
        5.71773         10.2825        0.794297 
        5.73344         10.2248        0.788905 
        5.74916         10.1625        0.783557 
        5.76486         10.0727        0.778267 
        5.78054         10.0075        0.773034 
        5.79626         9.92502        0.767835 
          5.812         9.86481         0.76268 
         5.8277         9.79987        0.757586 
        5.84339         9.70331         0.75254 
        5.85911         9.66807        0.747531 
        5.87484         9.58187        0.742568 
        5.89053         9.52933        0.737661 
        5.90623         9.47988        0.732796 
        5.92195         9.39758        0.727967 
        5.93767         9.36205        0.723184 
        5.95336          9.2592        0.718453 
        5.96905         9.22358        0.713766 
        5.98476         9.13811        0.709114 
        6.00048         9.09138        0.704503 
        6.01617         9.03211         0.69994 
        6.03185         8.96577        0.695423 
        6.04756         8.90806        0.690935 
        6.06331         8.85588        0.686477 
        6.07903         8.79351        0.682069 
        6.09473         8.72565        0.677703 
        6.11044         8.67579        0.673372 
        6.12616         8.62226         0.66908 
        6.14186          8.5782         0.66483 
        6.15755         8.52311        0.660618 
        6.17326         8.45014        0.656439 
        6.18898         8.40307        0.652295 
        6.20467         8.34856        0.648194 
        6.22036         8.27827        0.644128 
         6.2361          8.2333        0.640087 
         6.2518         8.17981        0.636088 
        6.26748         8.12253        0.632132 
        6.28319         8.08501        0.628199 
        6.29893         8.02484        0.624296 
        6.31463         7.96653        0.620433 
        6.33033         7.91214        0.616605 
        6.34604         7.86493        0.612806 
        6.36177         7.82224        0.609036 
        6.37747         7.76239        0.605305 
