# k  (h/Mpc)    Pcb(k)  (Mpc/h)^3    Pcb_linear(k) (Mpc/h)^3   ShotnoiseSubtracted = true
      0.0200456          758.01          768.76 
      0.0350414         535.768         528.872 
      0.0492313         375.915         374.102 
      0.0637834         314.511         317.329 
      0.0800726         249.356         252.392 
       0.096163         179.795         176.974 
       0.111083         143.572         140.758 
       0.126058         127.393         128.245 
       0.142273         107.652         108.588 
       0.158546         84.4087         83.7543 
        0.17375         71.9372         70.7715 
       0.188953         65.7111         65.3434 
       0.204907         56.9872         57.9092 
       0.220756         48.7509         48.3323 
        0.23588         42.4796         42.0748 
         0.2514         38.9646         38.7049 
       0.267535         35.5906         35.1439 
       0.283568         31.1978         30.7883 
       0.299022         27.9833         27.4264 
       0.314451         26.1552         25.2521 
       0.330372         23.7543         23.2453 
       0.346141         21.5703         21.0533 
       0.361624         19.6014         19.1322 
       0.377134         18.0218         17.6763 
       0.392932         17.2128          16.407 
       0.408854         15.5663         15.1247 
       0.424564         14.7057          13.945 
       0.440253         13.4843         12.9602 
       0.455999         12.4059         12.1042 
       0.471626         11.6305         11.2997 
        0.48727         11.1241         10.5437 
       0.502856         10.4368         9.87234 
       0.518488         9.63087         9.27629 
       0.534347         9.00937         8.71623 
       0.550082         8.63031         8.19711 
       0.565732         8.24504         7.72378 
       0.581496         7.74031          7.2917 
       0.597222         7.30026          6.8937 
       0.612804         6.88572         6.52637 
       0.628434         6.61357         6.18381 
       0.644267         6.29006         5.86386 
       0.660051         5.96591         5.56884 
       0.675724         5.63484         5.29599 
       0.691403         5.41474         5.04126 
       0.707174         5.15269         4.80191 
       0.722871         5.02747         4.57914 
        0.73838         4.69394         4.37298 
       0.754018         4.48708         4.17804 
       0.769845         4.25933         3.99295 
        0.78569         4.14818         3.81902 
       0.801365          3.9721         3.65728 
       0.817031         3.83197         3.50516 
       0.832809         3.63578         3.36086 
       0.848511         3.52503         3.22546 
       0.864097         3.40104         3.09856 
       0.879701         3.30169         2.97848 
       0.895507          3.1471         2.86344 
       0.911279         3.04415          2.7548 
        0.92691         2.95923         2.65279 
       0.942635         2.81573         2.55545 
       0.958396          2.7294         2.46285 
       0.974128         2.64976         2.37508 
       0.989692         2.54195         2.29251 
        1.00528         2.46733         2.21379 
        1.02113         2.40217         2.13759 
        1.03692         2.33819          2.0653 
        1.05264         2.23406         1.99672 
        1.06832         2.17798         1.93141 
        1.08405          2.1004         1.86889 
        1.09979          2.0527         1.80913 
        1.11537         1.98356         1.75261 
        1.13105         1.91139          1.6982 
        1.14679         1.86666         1.64591 
        1.16256         1.80819         1.59576 
        1.17828         1.77639         1.54789 
        1.19395         1.71329         1.50217 
         1.2097         1.66275         1.45808 
        1.22537         1.60864           1.416 
          1.241         1.57428         1.37573 
        1.25666         1.54641         1.33695 
        1.27241         1.50156          1.2995 
        1.28819         1.44669         1.26344 
        1.30392         1.41366         1.22887 
        1.31957         1.38634         1.19576 
        1.33529         1.33317         1.16377 
        1.35108         1.30768         1.13283 
        1.36674         1.27117         1.10326 
         1.3824          1.2544         1.07478 
        1.39811         1.21749         1.04722 
        1.41389          1.1866         1.02054 
        1.42964         1.15762        0.994839 
        1.44531          1.1349        0.970162 
        1.46101         1.10122         0.94628 
        1.47667         1.08278        0.923283 
        1.49229         1.04719        0.901121 
        1.50793         1.02565        0.879669 
        1.52367         1.00061        0.858786 
        1.53953        0.977019        0.838448 
        1.55526        0.965595         0.81894 
        1.57092        0.948954        0.800139 
        1.58662        0.932683        0.781891 
        1.60235        0.902333        0.764184 
        1.61809        0.883992        0.747022 
        1.63369        0.858565        0.730545 
        1.64941        0.847307        0.714454 
        1.66519        0.833247        0.698794 
        1.68085        0.810804        0.683721 
        1.69652        0.795095        0.669092 
        1.71228        0.777228        0.654813 
        1.72806        0.763119        0.640945 
        1.74368        0.748715        0.627622 
        1.75933        0.735827        0.614655 
        1.77505         0.72381        0.601997 
        1.79081        0.700991        0.589678 
         1.8065        0.695371         0.57776 
        1.82218        0.676637        0.566186 
        1.83797        0.660245        0.554852 
        1.85367        0.654835        0.543895 
        1.86928        0.641392        0.533303 
        1.88497        0.625483        0.522938 
        1.90073        0.619811        0.512814 
        1.91647        0.603726        0.502969 
        1.93218        0.594815        0.493407 
        1.94787         0.58408         0.48411 
        1.96363        0.574824        0.475018 
        1.97935        0.563023        0.466181 
        1.99499        0.553931        0.457621 
        2.01064        0.545028        0.449265 
         2.0264        0.531194        0.441068 
        2.04216        0.523999        0.433082 
        2.05781        0.516586        0.425346 
        2.07353        0.506583        0.417774 
        2.08928        0.499408        0.410371 
        2.10499        0.489637        0.403169 
        2.12065        0.481771        0.396164 
        2.13633        0.474762         0.38932 
        2.15211        0.464987        0.382596 
        2.16785        0.459351        0.376051 
        2.18349        0.452027        0.369702 
        2.19916        0.443731        0.363487 
        2.21489        0.435832        0.357396 
        2.23063        0.428503        0.351443 
         2.2463        0.422734        0.345652 
        2.26194         0.41739        0.340008 
        2.27765        0.409665        0.334463 
        2.29341        0.403444        0.329028 
        2.30914        0.395239        0.323726 
        2.32486        0.390446        0.318545 
        2.34061        0.383092         0.31347 
        2.35635        0.378423        0.308511 
        2.37203        0.374836        0.303678 
        2.38768        0.368048        0.298959 
        2.40339        0.362154        0.294324 
        2.41914        0.357579        0.289778 
        2.43483        0.351473        0.285345 
         2.4505        0.346477        0.281013 
        2.46622        0.341955        0.276757 
        2.48195        0.335475        0.272589 
        2.49759         0.33417        0.268531 
        2.51328        0.326301        0.264545 
        2.52906        0.321486        0.260616 
        2.54479        0.317299        0.256782 
        2.56049        0.312064        0.253033 
        2.57618        0.309834        0.249363 
        2.59189        0.303524        0.245762 
        2.60758        0.301466        0.242237 
        2.62325        0.296794        0.238787 
        2.63898        0.293775        0.235392 
        2.65468        0.287105        0.232072 
        2.67044         0.28439        0.228801 
        2.68618        0.280674        0.225602 
        2.70184        0.276921        0.222478 
        2.71755        0.272611        0.219405 
        2.73329        0.271088        0.216386 
        2.74897         0.26512        0.213434 
        2.76462        0.263229        0.210545 
        2.78034        0.258608        0.207697 
        2.79607        0.256495          0.2049 
        2.81179        0.251235        0.202158 
        2.82749        0.249508         0.19947 
        2.84321        0.246517        0.196828 
        2.85893        0.243058        0.194235 
        2.87462        0.239559        0.191693 
        2.89033        0.237027        0.189196 
        2.90605        0.234157        0.186741 
        2.92176        0.232479        0.184331 
        2.93747        0.228297        0.181965 
        2.95318        0.225923        0.179641 
        2.96891         0.22351        0.177357 
        2.98456         0.22146        0.175123 
        3.00023        0.217891        0.172924 
        3.01596        0.215248        0.170757 
        3.03164        0.212717        0.168633 
        3.04738        0.210892         0.16654 
         3.0631        0.208409        0.164483 
        3.07883        0.205808        0.162461 
        3.09456        0.203663        0.160474 
        3.11026        0.200689        0.158523 
        3.12596        0.198083        0.156606 
        3.14163        0.196659        0.154724 
        3.15734         0.19484         0.15287 
        3.17308        0.192357        0.151042 
        3.18879        0.190144        0.149249 
        3.20447        0.187654        0.147487 
         3.2202        0.186412         0.14575 
         3.2359        0.183906        0.144043 
        3.25157        0.181239        0.142368 
        3.26729        0.180305        0.140715 
        3.28304        0.178421        0.139085 
        3.29877        0.175908        0.137483 
        3.31446        0.175059        0.135911 
        3.33014        0.172838        0.134364 
        3.34585        0.170333         0.13284 
        3.36158        0.169052        0.131337 
        3.37727        0.167872        0.129862 
        3.39294        0.166266        0.128411 
        3.40867         0.16402        0.126978 
        3.42439        0.163001        0.125567 
        3.44008        0.161414        0.124181 
        3.45578         0.15961        0.122814 
        3.47153        0.158429        0.121466 
        3.48724        0.156833         0.12014 
        3.50292        0.155758        0.118838 
        3.51859        0.153876        0.117555 
        3.53431        0.152226        0.116288 
        3.55007           0.151        0.115036 
        3.56577        0.150206        0.113808 
        3.58146        0.148434        0.112598 
        3.59719         0.14703        0.111404 
        3.61292        0.145879        0.110227 
        3.62859        0.144918        0.109072 
        3.64429        0.142833        0.107931 
        3.66003        0.142236        0.106804 
        3.67578         0.14075        0.105693 
        3.69146        0.139687        0.104602 
        3.70712        0.138511        0.103528 
        3.72284        0.137616        0.102466 
        3.73853        0.136557        0.101421 
        3.75422        0.135151         0.10039 
        3.76993        0.134002       0.0993728 
        3.78564           0.133       0.0983701 
        3.80137        0.132251       0.0973797 
        3.81707        0.130505       0.0964051 
        3.83279         0.12979       0.0954432 
        3.84853        0.128767       0.0944929 
        3.86424        0.127581       0.0935576 
        3.87992        0.126621       0.0926365 
        3.89561        0.125779       0.0917277 
        3.91134        0.124434       0.0908295 
        3.92704        0.123437       0.0899444 
        3.94273        0.122526       0.0890721 
        3.95845        0.121267       0.0882098 
        3.97418        0.120572       0.0873589 
        3.98988        0.118927       0.0865205 
        4.00554        0.118269       0.0856954 
        4.02125        0.116963       0.0848789 
        4.03698        0.115346       0.0840718 
        4.05268         0.11451       0.0832771 
        4.06839        0.112852       0.0824922 
         4.0841        0.111538       0.0817177 
        4.09983        0.110356       0.0809522 
        4.11555        0.108958       0.0801969 
        4.13124        0.107589       0.0794533 
        4.14693        0.106522       0.0787187 
        4.16266        0.105152       0.0779917 
        4.17839        0.104066       0.0772744 
        4.19408        0.102831       0.0765679 
        4.20977        0.101887       0.0758699 
        4.22551           0.101        0.075179 
        4.24123        0.099659       0.0744976 
        4.25691       0.0988563       0.0738265 
        4.27259       0.0978607       0.0731635 
        4.28831       0.0973587       0.0725074 
        4.30404       0.0958088       0.0718588 
        4.31974       0.0952561       0.0712197 
        4.33543        0.094539       0.0705887 
        4.35116       0.0939325       0.0699639 
        4.36688       0.0929156        0.069347 
        4.38255        0.092324       0.0687399 
        4.39825       0.0918042       0.0681388 
        4.41398       0.0909829       0.0675437 
         4.4297       0.0905825       0.0669565 
        4.44541       0.0898211       0.0663764 
        4.46111       0.0891435       0.0658036 
        4.47683        0.088712       0.0652373 
        4.49251       0.0882797       0.0646788 
        4.50819       0.0880244       0.0641271 
         4.5239       0.0873289       0.0635811 
        4.53962        0.086855       0.0630408 
        4.55535       0.0868279       0.0625066 
        4.57106       0.0863394       0.0619794 
        4.58678       0.0859289       0.0614582 
         4.6025       0.0858594        0.060943 
        4.61821       0.0856045       0.0604337 
        4.63391       0.0854078       0.0599311 
         4.6496       0.0851419       0.0594343 
        4.66532       0.0850213       0.0589425 
        4.68103       0.0849423       0.0584566 
        4.69673       0.0847543       0.0579766 
        4.71241       0.0849863       0.0575025 
        4.72811       0.0847705        0.057033 
        4.74384       0.0844096       0.0565681 
        4.75955       0.0845869       0.0561092 
        4.77525        0.084754       0.0556557 
        4.79096       0.0848188       0.0552067 
        4.80669       0.0844639       0.0547625 
         4.8224       0.0849237       0.0543237 
        4.83809       0.0850126       0.0538902 
        4.85379       0.0851249       0.0534612 
         4.8695       0.0853416       0.0530366 
        4.88521        0.085677       0.0526168 
        4.90093       0.0860753       0.0522016 
        4.91663       0.0861152       0.0517912 
        4.93234       0.0862733       0.0513848 
        4.94807       0.0866082       0.0509826 
        4.96377       0.0870915       0.0505855 
        4.97943       0.0878643       0.0501934 
        4.99514       0.0879073       0.0498046 
        5.01086        0.088123       0.0494196 
        5.02654       0.0890959       0.0490397 
        5.04227       0.0894379       0.0486627 
          5.058       0.0896891       0.0482895 
        5.07371        0.090429        0.047921 
        5.08942       0.0913018       0.0475563 
        5.10513       0.0919013       0.0471954 
        5.12084       0.0924282       0.0468381 
        5.13656        0.092948       0.0464846 
        5.15225        0.093885       0.0461354 
        5.16796        0.094677       0.0457892 
        5.18369       0.0953653       0.0454463 
         5.1994       0.0961942       0.0451076 
        5.21509       0.0971679       0.0447727 
        5.23079       0.0979525       0.0444408 
        5.24649       0.0989336       0.0441125 
        5.26217       0.0999931       0.0437878 
        5.27788        0.100924        0.043466 
        5.29359        0.102005       0.0431473 
        5.30933        0.102993       0.0428315 
        5.32504        0.104194       0.0425193 
        5.34073        0.104952       0.0422106 
        5.35646        0.106431       0.0419044 
        5.37218        0.107628       0.0416012 
        5.38789         0.10884       0.0413015 
        5.40357        0.109792       0.0410051 
        5.41929         0.11106        0.040711 
        5.43502        0.112915       0.0404198 
         5.4507        0.114365       0.0401321 
        5.46639        0.115599       0.0398473 
        5.48212        0.116872       0.0395645 
        5.49786        0.118667       0.0392842 
        5.51353        0.121058        0.039008 
        5.52921        0.121452       0.0387342 
        5.54495        0.123989       0.0384622 
        5.56066        0.125476       0.0381932 
        5.57637        0.127118       0.0379268 
        5.59207        0.128051       0.0376632 
        5.60778        0.130488       0.0374021 
        5.62346        0.132127       0.0371438 
        5.63916         0.13396       0.0368877 
        5.65487        0.136597       0.0366339 
         5.6706        0.137628       0.0363822 
        5.68633        0.140163       0.0361328 
        5.70203        0.142223       0.0358863 
        5.71773        0.144574       0.0356422 
        5.73344        0.147272       0.0354002 
        5.74916        0.149498       0.0351602 
        5.76486        0.151463       0.0349228 
        5.78054        0.153364        0.034688 
        5.79626        0.156347       0.0344547 
          5.812        0.158317       0.0342234 
         5.8277          0.1605       0.0339949 
        5.84339        0.163392       0.0337684 
        5.85911        0.165422       0.0335436 
        5.87484        0.168439       0.0333209 
        5.89053        0.170616       0.0331007 
        5.90623        0.174927       0.0328824 
        5.92195        0.176107       0.0326657 
        5.93767        0.179331       0.0324511 
        5.95336        0.182252       0.0322388 
        5.96905        0.185051       0.0320285 
        5.98476        0.187299       0.0318198 
        6.00048        0.191005       0.0316129 
        6.01617        0.193919       0.0314081 
        6.03185         0.19691       0.0312054 
        6.04756        0.199757        0.031004 
        6.06331        0.204137        0.030804 
        6.07903        0.207485       0.0306062 
        6.09473        0.209338       0.0304103 
        6.11044        0.215117        0.030216 
        6.12616        0.215274       0.0300234 
        6.14186        0.219669       0.0298327 
        6.15755        0.223786       0.0296436 
        6.17326        0.227537       0.0294561 
        6.18898        0.230164       0.0292701 
        6.20467        0.233646       0.0290861 
        6.22036        0.236925       0.0289037 
         6.2361        0.239029       0.0287224 
         6.2518        0.244048       0.0285429 
        6.26748        0.248678       0.0283654 
        6.28319        0.253222       0.0281889 
        6.29893        0.256862       0.0280138 
        6.31463        0.260682       0.0278404 
        6.33033        0.263047       0.0276686 
        6.34604        0.268152       0.0274982 
        6.36177        0.271749        0.027329 
        6.37747        0.275016       0.0271616 
