# k  (h/Mpc)    Pcb(k)  (Mpc/h)^3    Pcb_linear(k) (Mpc/h)^3   ShotnoiseSubtracted = true
      0.0200456         22868.8         23305.9 
      0.0350414         16604.1         16033.4 
      0.0492313         11126.2         11341.4 
      0.0637834         9130.42         9620.23 
      0.0800726         7173.42          7651.6 
       0.096163         5628.28         5365.19 
       0.111083         4565.48         4267.26 
       0.126058          3834.5          3887.9 
       0.142273         3358.25         3291.98 
       0.158546         2722.83         2539.12 
        0.17375         2435.56         2145.53 
       0.188953         2324.64         1980.97 
       0.204907         1997.68         1755.59 
       0.220756         1804.63         1465.26 
        0.23588         1609.54         1275.55 
         0.2514         1459.58         1173.39 
       0.267535         1410.27         1065.43 
       0.283568         1255.97         933.387 
       0.299022         1197.07         831.466 
       0.314451         1248.92          765.55 
       0.330372         1101.73          704.71 
       0.346141         1012.39         638.256 
       0.361624         972.095         580.017 
       0.377134         933.196         535.878 
       0.392932         888.842         497.398 
       0.408854         854.111         458.526 
       0.424564         835.294         422.759 
       0.440253         774.023         392.905 
       0.455999         740.118         366.954 
       0.471626         755.603         342.566 
        0.48727         712.103         319.644 
       0.502856         683.881         299.293 
       0.518488         663.787         281.223 
       0.534347         637.786         264.244 
       0.550082         608.023         248.506 
       0.565732         600.216         234.156 
       0.581496          588.34         221.057 
       0.597222         575.459         208.991 
       0.612804         561.583         197.855 
       0.628434         539.224          187.47 
       0.644267         524.184          177.77 
       0.660051         518.767         168.827 
       0.675724          507.67         160.555 
       0.691403           495.1         152.832 
       0.707174         479.684         145.576 
       0.722871         475.404         138.823 
        0.73838         464.488         132.572 
       0.754018         453.033         126.663 
       0.769845         448.396         121.051 
        0.78569         439.203         115.778 
       0.801365          424.19         110.875 
       0.817031         421.574         106.263 
       0.832809         414.977         101.889 
       0.848511         408.653         97.7838 
       0.864097         398.126         93.9369 
       0.879701         397.513         90.2964 
       0.895507         382.552         86.8088 
       0.911279         377.155         83.5154 
        0.92691         373.918         80.4226 
       0.942635          369.49         77.4716 
       0.958396         357.488         74.6645 
       0.974128         353.738         72.0036 
       0.989692          343.27         69.5003 
        1.00528         340.704          67.114 
        1.02113         335.892         64.8037 
        1.03692         330.622         62.6121 
        1.05264         325.983         60.5332 
        1.06832         319.754         58.5532 
        1.08405         317.759         56.6577 
        1.09979         311.479          54.846 
        1.11537         303.895         53.1325 
        1.13105         300.323         51.4829 
        1.14679         296.238          49.898 
        1.16256         294.712         48.3775 
        1.17828         289.658         46.9262 
        1.19395         282.749         45.5401 
         1.2097         282.057         44.2036 
        1.22537         277.831         42.9279 
          1.241         270.731         41.7071 
        1.25666         268.945         40.5313 
        1.27241         265.506          39.396 
        1.28819         259.482         38.3027 
        1.30392         259.812         37.2546 
        1.31957         252.099          36.251 
        1.33529         248.775          35.281 
        1.35108         248.325         34.3432 
        1.36674         241.102         33.4466 
         1.3824         239.759         32.5832 
        1.39811         237.678         31.7478 
        1.41389         231.708         30.9389 
        1.42964         228.759         30.1598 
        1.44531         227.419         29.4117 
        1.46101         223.157         28.6877 
        1.47667         220.717         27.9905 
        1.49229         217.914         27.3186 
        1.50793         214.765         26.6683 
        1.52367         211.664         26.0352 
        1.53953         208.112         25.4186 
        1.55526         206.311         24.8272 
        1.57092         204.781         24.2572 
        1.58662         200.169          23.704 
        1.60235         198.351         23.1672 
        1.61809         195.888         22.6469 
        1.63369          192.34         22.1474 
        1.64941         190.145         21.6596 
        1.66519         187.821         21.1848 
        1.68085         184.981         20.7279 
        1.69652         183.113         20.2844 
        1.71228         179.988         19.8515 
        1.72806         178.642         19.4311 
        1.74368         176.189         19.0271 
        1.75933         175.018          18.634 
        1.77505         172.796         18.2503 
        1.79081         168.955         17.8768 
         1.8065         167.922         17.5155 
        1.82218         164.109         17.1646 
        1.83797         163.361         16.8211 
        1.85367         160.808         16.4889 
        1.86928         159.053         16.1678 
        1.88497         157.797         15.8535 
        1.90073         156.174         15.5466 
        1.91647         153.179         15.2481 
        1.93218         151.021         14.9583 
        1.94787         149.254         14.6764 
        1.96363         148.638         14.4008 
        1.97935         147.065         14.1329 
        1.99499         144.695         13.8733 
        2.01064         141.841         13.6201 
         2.0264         141.321         13.3716 
        2.04216         139.097         13.1294 
        2.05781         136.878         12.8949 
        2.07353         135.985         12.6653 
        2.08928         134.097         12.4409 
        2.10499         133.023         12.2226 
        2.12065         131.456         12.0102 
        2.13633         129.978         11.8027 
        2.15211         127.684         11.5989 
        2.16785         126.477         11.4005 
        2.18349          124.98          11.208 
        2.19916         123.809         11.0196 
        2.21489         122.066         10.8349 
        2.23063          120.54         10.6544 
         2.2463         119.056         10.4789 
        2.26194         118.097         10.3078 
        2.27765          116.37         10.1397 
        2.29341         115.415         9.97489 
        2.30914         114.053         9.81416 
        2.32486          112.32         9.65709 
        2.34061         111.182         9.50323 
        2.35635         110.212          9.3529 
        2.37203         108.331         9.20637 
        2.38768         107.737         9.06332 
        2.40339         106.112         8.92281 
        2.41914         104.923         8.78499 
        2.43483         104.255         8.65059 
         2.4505         102.672         8.51926 
        2.46622         101.524         8.39023 
        2.48195         100.745         8.26389 
        2.49759         99.2679         8.14085 
        2.51328         98.4514         8.02002 
        2.52906         97.2213          7.9009 
        2.54479         95.9953         7.78467 
        2.56049         94.7462         7.67103 
        2.57618         93.9941         7.55977 
        2.59189         92.7968         7.45058 
        2.60758         91.4546         7.34373 
        2.62325         91.1008         7.23913 
        2.63898         90.0514         7.13622 
        2.65468         89.0553         7.03555 
        2.67044         87.7391          6.9364 
        2.68618         86.8183         6.83942 
        2.70184         85.8941         6.74469 
        2.71755         85.2623         6.65154 
        2.73329         83.9619         6.56002 
        2.74897         83.1947         6.47054 
        2.76462         82.5928         6.38294 
        2.78034         81.0964         6.29661 
        2.79607         80.3529         6.21181 
        2.81179         79.7486         6.12868 
        2.82749         79.0589         6.04718 
        2.84321         77.9694         5.96708 
        2.85893         76.9314         5.88848 
        2.87462         76.3485         5.81143 
        2.89033         75.5581         5.73571 
        2.90605         74.8867         5.66128 
        2.92176         74.1364         5.58823 
        2.93747         73.5489         5.51651 
        2.95318         72.2274         5.44605 
        2.96891          71.806         5.37679 
        2.98456         70.9007         5.30906 
        3.00023         70.3897         5.24241 
        3.01596         69.8122         5.17671 
        3.03164         68.9292         5.11233 
        3.04738         68.6681         5.04886 
         3.0631         67.5019         4.98651 
        3.07883           66.85         4.92522 
        3.09456         66.0729         4.86497 
        3.11026         65.6566         4.80583 
        3.12596         64.8848          4.7477 
        3.14163         64.0778         4.69066 
        3.15734         63.3533         4.63444 
        3.17308         62.9168         4.57902 
        3.18879         62.3105         4.52466 
        3.20447         61.8712         4.47127 
         3.2202           61.01         4.41858 
         3.2359         60.3005         4.36685 
        3.25157         59.9267         4.31607 
        3.26729         59.3233         4.26595 
        3.28304         58.6067         4.21654 
        3.29877         58.1652         4.16799 
        3.31446         57.6037         4.12031 
        3.33014         56.9808         4.07342 
        3.34585         56.4366          4.0272 
        3.36158         56.0136         3.98163 
        3.37727         55.2433         3.93692 
        3.39294         54.8766         3.89294 
        3.40867         54.4234         3.84948 
        3.42439         53.7237         3.80672 
        3.44008         53.1823         3.76469 
        3.45578         52.7757         3.72327 
        3.47153         52.1865         3.68239 
        3.48724         51.6968          3.6422 
        3.50292         51.3492         3.60271 
        3.51859         50.7101         3.56383 
        3.53431         50.1853         3.52541 
        3.55007         49.7357         3.48746 
        3.56577         49.3313         3.45023 
        3.58146         48.7961         3.41356 
        3.59719         48.4252         3.37735 
        3.61292         47.8611         3.34167 
        3.62859         47.5395         3.30666 
        3.64429          47.125         3.27208 
        3.66003         46.7653         3.23789 
        3.67578          46.243         3.20421 
        3.69146         45.8638         3.17114 
        3.70712         45.4588          3.1386 
        3.72284         44.9718          3.1064 
        3.73853         44.5792         3.07471 
        3.75422         44.1269         3.04346 
        3.76993         43.7829         3.01261 
        3.78564         43.3488         2.98221 
        3.80137         43.1161         2.95219 
        3.81707         42.4586         2.92264 
        3.83279         42.3292         2.89348 
        3.84853         41.8673         2.86467 
        3.86424         41.3854         2.83632 
        3.87992         41.1278         2.80839 
        3.89561         40.7622         2.78084 
        3.91134         40.4604         2.75361 
        3.92704         40.1131         2.72678 
        3.94273         39.6809         2.70033 
        3.95845         39.3747         2.67419 
        3.97418         39.0032          2.6484 
        3.98988         38.6189         2.62298 
        4.00554         38.3492         2.59797 
        4.02125         38.0804         2.57321 
        4.03698          37.665         2.54874 
        4.05268         37.4061         2.52465 
        4.06839         37.0014         2.50085 
         4.0841         36.7625         2.47738 
        4.09983         36.3941         2.45417 
        4.11555         36.0925         2.43127 
        4.13124         35.7899         2.40873 
        4.14693         35.4405         2.38646 
        4.16266         35.1705         2.36442 
        4.17839         34.8425         2.34267 
        4.19408         34.6257         2.32125 
        4.20977         34.3479         2.30009 
        4.22551         33.9235         2.27915 
        4.24123            33.7         2.25849 
        4.25691         33.4405         2.23814 
        4.27259         33.2047         2.21805 
        4.28831         32.8548         2.19816 
        4.30404         32.6052         2.17849 
        4.31974         32.3095         2.15911 
        4.33543         32.1076         2.13999 
        4.35116         31.8329         2.12104 
        4.36688         31.5017         2.10234 
        4.38255         31.3237         2.08394 
        4.39825         31.0026         2.06571 
        4.41398         30.7619         2.04767 
         4.4297         30.5565         2.02987 
        4.44541         30.3544         2.01228 
        4.46111         29.9912         1.99492 
        4.47683         29.8116         1.97775 
        4.49251         29.5849         1.96082 
        4.50819         29.3662          1.9441 
         4.5239         29.0871         1.92754 
        4.53962         28.9093         1.91116 
        4.55535         28.6178         1.89497 
        4.57106         28.3705         1.87898 
        4.58678         28.1904         1.86318 
         4.6025         27.9496         1.84756 
        4.61821         27.7172         1.83213 
        4.63391          27.413         1.81689 
         4.6496         27.2717         1.80183 
        4.66532         27.0744         1.78692 
        4.68103         26.8244         1.77218 
        4.69673         26.6075         1.75763 
        4.71241         26.4407         1.74326 
        4.72811         26.2153         1.72903 
        4.74384         25.9404         1.71493 
        4.75955          25.818         1.70102 
        4.77525         25.5845         1.68727 
        4.79096         25.3892         1.67366 
        4.80669         25.2029         1.66019 
         4.8224         24.9802         1.64689 
        4.83809         24.7658         1.63375 
        4.85379         24.5531         1.62075 
         4.8695         24.4447         1.60787 
        4.88521         24.2207         1.59515 
        4.90093         24.0126         1.58256 
        4.91663         23.8288         1.57012 
        4.93234         23.6909          1.5578 
        4.94807         23.4997          1.5456 
        4.96377         23.3334         1.53356 
        4.97943          23.118         1.52168 
        4.99514         22.9316         1.50989 
        5.01086          22.801         1.49822 
        5.02654         22.6249          1.4867 
        5.04227         22.4458         1.47527 
          5.058         22.2614         1.46396 
        5.07371         22.0611         1.45278 
        5.08942         21.8905         1.44173 
        5.10513         21.7716         1.43079 
        5.12084         21.6266         1.41996 
        5.13656         21.4115         1.40924 
        5.15225         21.2775         1.39865 
        5.16796         21.1123         1.38816 
        5.18369         20.9783         1.37776 
         5.1994         20.8072         1.36749 
        5.21509         20.6641         1.35734 
        5.23079         20.5264         1.34728 
        5.24649         20.3732         1.33733 
        5.26217         20.2294         1.32748 
        5.27788         20.0586         1.31773 
        5.29359         19.9015         1.30807 
        5.30933         19.7446         1.29849 
        5.32504         19.6171         1.28903 
        5.34073         19.4749         1.27967 
        5.35646         19.3438         1.27038 
        5.37218         19.1602         1.26119 
        5.38789         19.0478         1.25211 
        5.40357         18.8986         1.24312 
        5.41929         18.7557         1.23421 
        5.43502         18.6075         1.22538 
         5.4507         18.4931         1.21666 
        5.46639         18.3492         1.20802 
        5.48212         18.2324         1.19945 
        5.49786         18.1337         1.19095 
        5.51353         18.0136         1.18258 
        5.52921         17.8725         1.17428 
        5.54495          17.713         1.16603 
        5.56066         17.5831         1.15788 
        5.57637          17.489          1.1498 
        5.59207         17.3426         1.14181 
        5.60778          17.203         1.13389 
        5.62346         17.1035         1.12606 
        5.63916         16.9903          1.1183 
        5.65487         16.8463          1.1106 
         5.6706         16.7278         1.10297 
        5.68633         16.6319         1.09541 
        5.70203         16.4862         1.08794 
        5.71773         16.4032         1.08054 
        5.73344         16.2733          1.0732 
        5.74916         16.1567         1.06593 
        5.76486         16.0645         1.05873 
        5.78054         15.9621         1.05161 
        5.79626         15.8152         1.04454 
          5.812         15.7433         1.03753 
         5.8277         15.6057          1.0306 
        5.84339         15.4894         1.02373 
        5.85911         15.3877         1.01692 
        5.87484         15.2867         1.01017 
        5.89053         15.1624         1.00349 
        5.90623         15.0708        0.996873 
        5.92195         14.9521        0.990303 
        5.93767         14.8582        0.983797 
        5.95336         14.7723        0.977361 
        5.96905         14.6759        0.970985 
        5.98476         14.5832        0.964657 
        6.00048         14.4722        0.958385 
        6.01617         14.4036        0.952176 
        6.03185         14.2471        0.946031 
        6.04756         14.1806        0.939926 
        6.06331         14.0945        0.933862 
        6.07903         13.9825        0.927865 
        6.09473          13.889        0.921926 
        6.11044         13.7837        0.916035 
        6.12616         13.6932        0.910196 
        6.14186         13.6198        0.904415 
        6.15755         13.5064        0.898684 
        6.17326         13.4184        0.892999 
        6.18898         13.3428        0.887361 
        6.20467         13.2258        0.881783 
        6.22036         13.1563        0.876252 
         6.2361         13.0717        0.870755 
         6.2518         12.9889        0.865315 
        6.26748         12.8978        0.859933 
        6.28319         12.8388        0.854582 
        6.29893         12.7291        0.849273 
        6.31463         12.6611        0.844018 
        6.33033         12.5654         0.83881 
        6.34604         12.4811        0.833642 
        6.36177          12.404        0.828514 
        6.37747         12.3336        0.823438 
