# k  (h/Mpc)    Pcb(k)  (Mpc/h)^3    Pcb_linear(k) (Mpc/h)^3   ShotnoiseSubtracted = true
      0.0200456         553.819         561.893 
      0.0350414         432.532         428.878 
      0.0492313         324.216         323.183 
      0.0637834         275.002          277.44 
      0.0800726         221.597         223.862 
       0.096163         166.551          164.54 
       0.111083         136.593         134.448 
       0.126058         120.627         121.401 
       0.142273         102.279         103.059 
       0.158546         82.3807         81.9672 
        0.17375         71.3685         70.4765 
       0.188953         64.8689         64.6504 
       0.204907         56.2846         57.1884 
       0.220756         48.8193         48.5572 
        0.23588         43.1005         42.8671 
         0.2514         39.5565         39.3951 
       0.267535         36.0546         35.6778 
       0.283568         31.8594         31.5348 
       0.299022         28.8119         28.3845 
       0.314451         26.9678         26.1812 
       0.330372          24.521         24.0811 
       0.346141         22.3562         21.9015 
       0.361624         20.4321         20.0379 
       0.377134         18.8493         18.5717 
       0.392932         18.0177         17.2492 
       0.408854         16.3309         15.9394 
       0.424564         15.4699         14.7583 
       0.440253         14.2464         13.7595 
       0.455999         13.1458         12.8701 
       0.471626         12.3392         12.0352 
        0.48727         11.8232         11.2606 
       0.502856         11.1077         10.5716 
       0.518488         10.2841         9.95059 
       0.534347         9.63988         9.36546 
       0.550082         9.25016         8.82503 
       0.565732         8.85111         8.33303 
       0.581496         8.32604         7.88046 
       0.597222         7.86601         7.46195 
       0.612804         7.44142         7.07556 
       0.628434          7.1413         6.71547 
       0.644267         6.81308         6.37831 
       0.660051           6.479         6.06618 
       0.675724         6.12452         5.77699 
       0.691403         5.88605         5.50664 
       0.707174         5.61555         5.25228 
       0.722871         5.48873         5.01522 
        0.73838          5.1295         4.79553 
       0.754018         4.91667         4.58751 
       0.769845         4.66731         4.38974 
        0.78569         4.54867         4.20363 
       0.801365         4.36487         4.03033 
       0.817031         4.22008         3.86711 
       0.832809         4.00643         3.71207 
       0.848511         3.88976         3.56639 
       0.864097         3.75945         3.42969 
       0.879701          3.6522         3.30016 
       0.895507         3.48402         3.17591 
       0.911279         3.37791         3.05844 
        0.92691         3.28804           2.948 
       0.942635         3.13149          2.8425 
       0.958396         3.03493         2.74204 
       0.974128         2.95079          2.6467 
       0.989692         2.83938         2.55692 
        1.00528         2.75438         2.47125 
        1.02113         2.69046         2.38822 
        1.03692         2.61402         2.30939 
        1.05264         2.50259         2.23454 
        1.06832         2.44227         2.16318 
        1.08405         2.35932          2.0948 
        1.09979          2.3077         2.02939 
        1.11537         2.23166         1.96748 
        1.13105         2.15238         1.90782 
        1.14679         2.10447         1.85045 
        1.16256         2.04119         1.79536 
        1.17828         2.00685         1.74274 
        1.19395         1.93883         1.69244 
         1.2097         1.88399         1.64391 
        1.22537         1.82447         1.59755 
          1.241          1.7862         1.55314 
        1.25666         1.75611         1.51035 
        1.27241         1.70572         1.46899 
        1.28819          1.6484         1.42913 
        1.30392         1.61245          1.3909 
        1.31957         1.58017         1.35426 
        1.33529         1.52441         1.31883 
        1.35108         1.49423         1.28454 
        1.36674         1.45333         1.25174 
         1.3824         1.43521         1.22014 
        1.39811          1.3941         1.18954 
        1.41389         1.36227         1.15988 
        1.42964         1.33009         1.13131 
        1.44531         1.30487         1.10385 
        1.46101          1.2661         1.07727 
        1.47667         1.24657         1.05165 
        1.49229         1.20612         1.02694 
        1.50793         1.18507         1.00302 
        1.52367          1.1539        0.979712 
        1.53953         1.13098        0.957002 
        1.55526         1.11633        0.935206 
        1.57092         1.09971        0.914189 
        1.58662         1.07914        0.893778 
        1.60235         1.04738        0.873961 
        1.61809         1.02615        0.854745 
        1.63369        0.998971        0.836286 
        1.64941        0.985417        0.818248 
        1.66519        0.970023        0.800686 
        1.68085        0.944931        0.783772 
        1.69652        0.927121        0.767349 
        1.71228        0.907696        0.751311 
        1.72806        0.891307        0.735726 
        1.74368         0.87674        0.720746 
        1.75933         0.86115         0.70616 
        1.77505        0.847945        0.691915 
        1.79081        0.822763        0.678044 
         1.8065        0.815909        0.664619 
        1.82218        0.794946        0.651574 
        1.83797        0.776908        0.638795 
        1.85367        0.770154        0.626435 
        1.86928        0.755557        0.614481 
        1.88497        0.737246        0.602779 
        1.90073        0.730119        0.591342 
        1.91647        0.713958        0.580217 
        1.93218         0.70329        0.569406 
        1.94787        0.690601        0.558891 
        1.96363        0.680679        0.548603 
        1.97935        0.667233        0.538599 
        1.99499        0.656507        0.528905 
        2.01064        0.647034        0.519439 
         2.0264        0.631065        0.510149 
        2.04216        0.622759        0.501093 
        2.05781         0.61538        0.492318 
        2.07353        0.604344        0.483725 
        2.08928        0.595457        0.475321 
        2.10499        0.583812        0.467142 
        2.12065        0.575458        0.459183 
        2.13633        0.567557        0.451406 
        2.15211        0.556724         0.44376 
        2.16785        0.549381        0.436316 
        2.18349        0.542436        0.429092 
        2.19916        0.531968        0.422018 
        2.21489        0.523162        0.415083 
        2.23063        0.514504        0.408301 
         2.2463        0.508711        0.401703 
        2.26194        0.502544         0.39527 
        2.27765        0.492641        0.388946 
        2.29341        0.486551        0.382746 
        2.30914        0.477125        0.376696 
        2.32486        0.471008        0.370783 
        2.34061        0.463632        0.364988 
        2.35635        0.457756        0.359323 
        2.37203        0.454624        0.353801 
        2.38768        0.445525        0.348407 
        2.40339        0.439246        0.343108 
        2.41914        0.433838        0.337908 
        2.43483        0.426797        0.332836 
         2.4505        0.421178        0.327878 
        2.46622        0.416266        0.323006 
        2.48195        0.408431        0.318233 
        2.49759        0.407746        0.313584 
        2.51328        0.398024        0.309016 
        2.52906        0.392048        0.304512 
        2.54479        0.387694        0.300116 
        2.56049        0.381393        0.295817 
        2.57618        0.379385        0.291606 
        2.59189        0.371895        0.287472 
        2.60758        0.369445        0.283426 
        2.62325        0.363993        0.279464 
        2.63898        0.360785        0.275565 
        2.65468        0.352866        0.271749 
        2.67044        0.349508         0.26799 
        2.68618        0.345449        0.264312 
        2.70184        0.341141        0.260719 
        2.71755        0.335554        0.257184 
        2.73329         0.33456         0.25371 
        2.74897        0.327634        0.250313 
        2.76462        0.324945        0.246986 
        2.78034        0.319744        0.243707 
        2.79607        0.317376        0.240485 
        2.81179        0.311172        0.237325 
        2.82749        0.309177        0.234227 
        2.84321        0.306206        0.231181 
        2.85893        0.301417         0.22819 
        2.87462        0.297609        0.225259 
        2.89033        0.293956        0.222377 
        2.90605        0.291405        0.219544 
        2.92176        0.289292        0.216762 
        2.93747        0.284223         0.21403 
        2.95318        0.281539        0.211346 
        2.96891        0.278437        0.208707 
        2.98456        0.276383        0.206125 
        3.00023        0.272222        0.203584 
        3.01596        0.268956        0.201078 
        3.03164        0.266133        0.198622 
        3.04738        0.263892          0.1962 
         3.0631        0.261125        0.193821 
        3.07883        0.258104        0.191481 
        3.09456        0.255152         0.18918 
        3.11026        0.251493        0.186922 
        3.12596        0.248624        0.184701 
        3.14163        0.247095        0.182521 
        3.15734        0.244871        0.180373 
        3.17308         0.24148        0.178254 
        3.18879        0.239226        0.176175 
        3.20447        0.236474        0.174133 
         3.2202        0.234537        0.172118 
         3.2359        0.231701        0.170138 
        3.25157         0.22901        0.168195 
        3.26729        0.227206        0.166276 
        3.28304        0.225081        0.164384 
        3.29877        0.222388        0.162524 
        3.31446        0.220829        0.160698 
        3.33014        0.218452        0.158901 
        3.34585         0.21557         0.15713 
        3.36158        0.213973        0.155383 
        3.37727        0.212702        0.153669 
        3.39294        0.210578        0.151982 
        3.40867        0.208131        0.150315 
        3.42439        0.206645        0.148675 
        3.44008        0.204914        0.147062 
        3.45578        0.202218        0.145472 
        3.47153        0.201115        0.143903 
        3.48724        0.199225        0.142359 
        3.50292        0.197722        0.140843 
        3.51859        0.195439        0.139349 
        3.53431        0.193756        0.137873 
        3.55007        0.191758        0.136415 
        3.56577        0.190967        0.134983 
        3.58146        0.189015        0.133574 
        3.59719        0.187082        0.132181 
        3.61292        0.185774        0.130809 
        3.62859        0.184305        0.129462 
        3.64429        0.182026        0.128131 
        3.66003        0.181336        0.126816 
        3.67578        0.179589        0.125519 
        3.69146        0.178141        0.124246 
        3.70712        0.176655        0.122993 
        3.72284        0.175751        0.121753 
        3.73853        0.174116        0.120532 
        3.75422        0.172548        0.119328 
        3.76993         0.17105        0.118139 
        3.78564        0.169956        0.116968 
        3.80137        0.168887         0.11581 
        3.81707        0.166472        0.114671 
        3.83279        0.165638        0.113546 
        3.84853        0.164529        0.112435 
        3.86424        0.163373        0.111341 
        3.87992        0.162011        0.110264 
        3.89561        0.160934          0.1092 
        3.91134          0.1594        0.108149 
        3.92704        0.158044        0.107113 
        3.94273        0.156883        0.106092 
        3.95845        0.155254        0.105082 
        3.97418         0.15436        0.104086 
        3.98988        0.152367        0.103104 
        4.00554        0.151702        0.102137 
        4.02125         0.15043        0.101181 
        4.03698         0.14816        0.100235 
        4.05268        0.147354       0.0993032 
        4.06839        0.145268        0.098383 
         4.0841        0.143624       0.0974749 
        4.09983        0.142184       0.0965772 
        4.11555         0.14058       0.0956913 
        4.13124        0.139009        0.094819 
        4.14693        0.137573        0.093957 
        4.16266        0.136004       0.0931039 
        4.17839        0.134533        0.092262 
        4.19408        0.133501       0.0914325 
        4.20977        0.131855       0.0906131 
        4.22551        0.131016       0.0898018 
        4.24123        0.129407       0.0890014 
        4.25691        0.128354       0.0882131 
        4.27259        0.127165       0.0874342 
        4.28831        0.126588       0.0866632 
        4.30404        0.124557       0.0859009 
        4.31974        0.124059       0.0851496 
        4.33543        0.123072       0.0844078 
        4.35116        0.122319       0.0836731 
        4.36688        0.121052       0.0829476 
        4.38255        0.120508       0.0822335 
        4.39825        0.119747       0.0815264 
        4.41398        0.118793       0.0808262 
         4.4297        0.118081       0.0801352 
        4.44541        0.117397       0.0794524 
        4.46111        0.116457       0.0787782 
        4.47683        0.115814       0.0781115 
        4.49251        0.115405       0.0774539 
        4.50819         0.11476       0.0768041 
         4.5239          0.1141        0.076161 
        4.53962        0.113632       0.0755245 
        4.55535         0.11362       0.0748951 
        4.57106        0.112681       0.0742738 
        4.58678        0.112448       0.0736595 
         4.6025         0.11185       0.0730522 
        4.61821         0.11161       0.0724518 
        4.63391        0.111308       0.0718591 
         4.6496        0.111112       0.0712733 
        4.66532        0.110912       0.0706932 
        4.68103         0.11075         0.07012 
        4.69673        0.110316       0.0695536 
        4.71241        0.110833       0.0689942 
        4.72811        0.110258       0.0684401 
        4.74384        0.109904       0.0678915 
        4.75955        0.109936       0.0673497 
        4.77525        0.110165       0.0668143 
        4.79096        0.110173       0.0662841 
        4.80669        0.109781       0.0657594 
         4.8224        0.110173       0.0652412 
        4.83809         0.11003       0.0647291 
        4.85379        0.110303       0.0642222 
         4.8695         0.11056       0.0637205 
        4.88521        0.110618       0.0632243 
        4.90093        0.111066       0.0627335 
        4.91663        0.111234       0.0622484 
        4.93234        0.111204       0.0617679 
        4.94807        0.111589       0.0612922 
        4.96377        0.111997       0.0608226 
        4.97943        0.112728       0.0603588 
        4.99514        0.113031       0.0598988 
        5.01086        0.113142       0.0594433 
        5.02654        0.114039       0.0589938 
        5.04227        0.114409       0.0585476 
          5.058        0.114676       0.0581059 
        5.07371        0.115465       0.0576696 
        5.08942        0.116123       0.0572379 
        5.10513        0.116798       0.0568105 
        5.12084        0.117475       0.0563874 
        5.13656        0.118197       0.0559687 
        5.15225        0.119089        0.055555 
        5.16796        0.119853       0.0551449 
        5.18369        0.120455       0.0547387 
         5.1994         0.12143       0.0543372 
        5.21509        0.122353       0.0539403 
        5.23079        0.123135       0.0535468 
        5.24649        0.124281       0.0531577 
        5.26217        0.125166       0.0527727 
        5.27788        0.126487       0.0523911 
        5.29359        0.127252       0.0520132 
        5.30933        0.128333       0.0516385 
        5.32504        0.129675       0.0512682 
        5.34073        0.130351        0.050902 
        5.35646        0.131876       0.0505386 
        5.37218        0.133218       0.0501788 
        5.38789        0.134382       0.0498231 
        5.40357        0.135696       0.0494713 
        5.41929        0.136897       0.0491222 
        5.43502        0.138653       0.0487764 
         5.4507        0.140315       0.0484348 
        5.46639        0.141312       0.0480965 
        5.48212        0.142711       0.0477607 
        5.49786         0.14493       0.0474277 
        5.51353        0.146888       0.0470996 
        5.52921        0.147574       0.0467743 
        5.54495        0.150227       0.0464511 
        5.56066        0.151394       0.0461314 
        5.57637        0.153761       0.0458148 
        5.59207         0.15449       0.0455014 
        5.60778        0.156585       0.0451909 
        5.62346        0.158352       0.0448838 
        5.63916        0.160521       0.0445793 
        5.65487        0.162885       0.0442774 
         5.6706        0.163982       0.0439781 
        5.68633        0.166785       0.0436814 
        5.70203        0.168722       0.0433881 
        5.71773        0.171232       0.0430976 
        5.73344        0.173523       0.0428096 
        5.74916        0.176207       0.0425241 
        5.76486        0.178488       0.0422415 
        5.78054        0.180349        0.041962 
        5.79626        0.183248       0.0416843 
          5.812        0.184611       0.0414088 
         5.8277        0.187483       0.0411366 
        5.84339        0.190025        0.040867 
        5.85911        0.192552       0.0405992 
        5.87484        0.194695       0.0403339 
        5.89053        0.197173       0.0400716 
        5.90623        0.201492       0.0398115 
        5.92195        0.203069       0.0395533 
        5.93767        0.205493       0.0392975 
        5.95336        0.207919       0.0390445 
        5.96905        0.212193       0.0387938 
        5.98476        0.213856       0.0385449 
        6.00048         0.21723       0.0382982 
        6.01617        0.220269       0.0380541 
        6.03185        0.223126       0.0378123 
        6.04756        0.224916       0.0375721 
        6.06331        0.230116       0.0373336 
        6.07903        0.232861       0.0370976 
        6.09473        0.234787       0.0368639 
        6.11044        0.239959        0.036632 
        6.12616        0.241173       0.0364022 
        6.14186        0.245117       0.0361746 
        6.15755        0.248147       0.0359489 
        6.17326        0.252049       0.0357251 
        6.18898        0.254675       0.0355031 
        6.20467        0.257481       0.0352834 
        6.22036        0.260328       0.0350655 
         6.2361        0.263594        0.034849 
         6.2518        0.268457       0.0346347 
        6.26748         0.27199       0.0344226 
        6.28319        0.275719       0.0342118 
        6.29893        0.279728       0.0340026 
        6.31463        0.282708       0.0337955 
        6.33033        0.285056       0.0335902 
        6.34604        0.290476       0.0333865 
        6.36177        0.291554       0.0331843 
        6.37747        0.297651       0.0329841 
