# k  (h/Mpc)    Pcb(k)  (Mpc/h)^3    Pcb_linear(k) (Mpc/h)^3   ShotnoiseSubtracted = true
      0.0200456         752.155         763.106 
      0.0350414         587.952         582.459 
      0.0492313         440.197         438.915 
      0.0637834         373.005          376.79 
      0.0800726         300.526         304.027 
       0.096163         226.419         223.462 
       0.111083         185.843         182.593 
       0.126058         163.728         164.874 
       0.142273         138.841         139.964 
       0.158546             112          111.32 
        0.17375         97.1536          95.714 
       0.188953         88.3013         87.8016 
       0.204907         76.4193         77.6675 
       0.220756         66.4835         65.9455 
        0.23588         58.7135         58.2177 
         0.2514           53.87         53.5025 
       0.267535          49.221          48.454 
       0.283568         43.4758         42.8274 
       0.299022         39.4046          38.549 
       0.314451         36.9738         35.5566 
       0.330372         33.5511         32.7046 
       0.346141         30.6151         29.7444 
       0.361624         28.0096         27.2134 
       0.377134         25.8241         25.2222 
       0.392932         24.7803         23.4261 
       0.408854         22.4566         21.6473 
       0.424564         21.3435         20.0433 
       0.440253         19.6263         18.6867 
       0.455999         18.0778         17.4789 
       0.471626         16.9972          16.345 
        0.48727         16.3511          15.293 
       0.502856         15.3589         14.3572 
       0.518488         14.2247         13.5139 
       0.534347         13.3431         12.7192 
       0.550082         12.8207         11.9853 
       0.565732         12.2837         11.3171 
       0.581496         11.5746         10.7024 
       0.597222         10.9282         10.1341 
       0.612804         10.3435         9.60931 
       0.628434         9.97705         9.12026 
       0.644267         9.50985         8.66237 
       0.660051         9.04046         8.23847 
       0.675724         8.55394         7.84572 
       0.691403         8.25234         7.47856 
       0.707174         7.87603         7.13312 
       0.722871         7.70069         6.81116 
        0.73838         7.20137          6.5128 
       0.754018         6.90381         6.23029 
       0.769845         6.56887          5.9617 
        0.78569         6.41015         5.70895 
       0.801365         6.14681         5.47359 
       0.817031         5.95361         5.25192 
       0.832809         5.65507         5.04136 
       0.848511         5.50331         4.84351 
       0.864097         5.31649         4.65786 
       0.879701         5.17615         4.48194 
       0.895507         4.95312          4.3132 
       0.911279         4.79163         4.15367 
        0.92691         4.66515         4.00368 
       0.942635         4.46092          3.8604 
       0.958396         4.32145         3.72396 
       0.974128         4.21272         3.59448 
       0.989692         4.04316         3.47255 
        1.00528         3.94508          3.3562 
        1.02113         3.84696         3.24344 
        1.03692         3.74126         3.13637 
        1.05264         3.58756         3.03472 
        1.06832          3.5049         2.93781 
        1.08405         3.39817         2.84495 
        1.09979         3.32385         2.75612 
        1.11537         3.22198         2.67203 
        1.13105         3.11351           2.591 
        1.14679         3.04068         2.51309 
        1.16256         2.94729         2.43828 
        1.17828         2.91007         2.36681 
        1.19395         2.80683         2.29851 
         1.2097         2.73178         2.23259 
        1.22537         2.64676         2.16963 
          1.241         2.59637         2.10932 
        1.25666         2.55685          2.0512 
        1.27241         2.49193         1.99503 
        1.28819         2.40304         1.94091 
        1.30392         2.35092         1.88898 
        1.31957         2.31396         1.83922 
        1.33529         2.22658          1.7911 
        1.35108         2.18777         1.74454 
        1.36674         2.13089         1.69999 
         1.3824         2.10671         1.65707 
        1.39811         2.04848         1.61551 
        1.41389         2.00217         1.57524 
        1.42964         1.95837         1.53643 
        1.44531         1.92705         1.49914 
        1.46101         1.87211         1.46303 
        1.47667         1.84423         1.42824 
        1.49229          1.7837         1.39469 
        1.50793         1.74868          1.3622 
        1.52367         1.71073         1.33054 
        1.53953         1.67525          1.2997 
        1.55526         1.66421          1.2701 
        1.57092         1.63359         1.24156 
        1.58662         1.61072         1.21384 
        1.60235         1.55748         1.18693 
        1.61809         1.53285         1.16083 
        1.63369         1.49322         1.13576 
        1.64941         1.47365         1.11126 
        1.66519         1.45273         1.08741 
        1.68085         1.41684         1.06444 
        1.69652         1.39172         1.04214 
        1.71228         1.36297         1.02035 
        1.72806         1.34048        0.999189 
        1.74368         1.32061        0.978844 
        1.75933         1.29896        0.959035 
        1.77505         1.27895        0.939689 
        1.79081         1.24329        0.920851 
         1.8065         1.23346        0.902618 
        1.82218         1.20388        0.884902 
        1.83797         1.18079        0.867547 
        1.85367         1.16766         0.85076 
        1.86928         1.14815        0.834526 
        1.88497         1.12256        0.818633 
        1.90073         1.11416        0.803101 
        1.91647         1.08627        0.787992 
        1.93218         1.07207         0.77331 
        1.94787         1.05484        0.759028 
        1.96363         1.04231        0.745057 
        1.97935         1.02173        0.731471 
        1.99499         1.00713        0.718305 
        2.01064        0.992917        0.705449 
         2.0264        0.969169        0.692832 
        2.04216        0.960508        0.680534 
        2.05781        0.946965        0.668617 
        2.07353        0.932228        0.656946 
        2.08928        0.917916        0.645533 
        2.10499        0.902675        0.634425 
        2.12065        0.889355        0.623616 
        2.13633        0.878585        0.613053 
        2.15211        0.861179         0.60267 
        2.16785        0.852769         0.59256 
        2.18349        0.840677        0.582749 
        2.19916        0.828229        0.573142 
        2.21489         0.81514        0.563723 
        2.23063        0.801266        0.554513 
         2.2463        0.792945        0.545552 
        2.26194        0.783855        0.536815 
        2.27765        0.770702        0.528227 
        2.29341        0.761068        0.519807 
        2.30914        0.747047        0.511591 
        2.32486        0.739106        0.503559 
        2.34061        0.727689        0.495689 
        2.35635          0.7196        0.487997 
        2.37203        0.712923        0.480496 
        2.38768         0.70209        0.473171 
        2.40339        0.693058        0.465974 
        2.41914        0.684575        0.458913 
        2.43483        0.674625        0.452024 
         2.4505        0.666444        0.445291 
        2.46622        0.658868        0.438673 
        2.48195        0.647217        0.432192 
        2.49759        0.645892        0.425878 
        2.51328        0.632431        0.419675 
        2.52906        0.623527        0.413558 
        2.54479        0.616238        0.407587 
        2.56049        0.609107        0.401748 
        2.57618        0.603845         0.39603 
        2.59189        0.594007        0.390416 
        2.60758        0.590864        0.384921 
        2.62325        0.581655         0.37954 
        2.63898        0.577419        0.374244 
        2.65468        0.566326        0.369062 
        2.67044          0.5612        0.363957 
        2.68618        0.555653        0.358962 
        2.70184         0.54743        0.354082 
        2.71755        0.540572        0.349281 
        2.73329        0.539461        0.344564 
        2.74897        0.528654         0.33995 
        2.76462        0.524154        0.335432 
        2.78034        0.516642        0.330978 
        2.79607        0.513534        0.326602 
        2.81179        0.505008        0.322311 
        2.82749        0.501248        0.318103 
        2.84321        0.495936        0.313966 
        2.85893        0.489865        0.309905 
        2.87462        0.483423        0.305924 
        2.89033        0.480787         0.30201 
        2.90605        0.474916        0.298162 
        2.92176        0.472384        0.294384 
        2.93747        0.464216        0.290674 
        2.95318        0.460074        0.287028 
        2.96891        0.455993        0.283444 
        2.98456        0.451578        0.279938 
        3.00023        0.446262        0.276487 
        3.01596        0.441907        0.273083 
        3.03164        0.437275        0.269748 
        3.04738        0.433622         0.26646 
         3.0631        0.429653        0.263228 
        3.07883        0.425459         0.26005 
        3.09456        0.421488        0.256926 
        3.11026        0.415669        0.253858 
        3.12596        0.410911        0.250842 
        3.14163         0.40976        0.247882 
        3.15734        0.405361        0.244964 
        3.17308        0.401439        0.242086 
        3.18879        0.397416        0.239263 
        3.20447        0.392714         0.23649 
         3.2202        0.390482        0.233753 
         3.2359        0.386078        0.231064 
        3.25157         0.38036        0.228425 
        3.26729        0.379818        0.225819 
        3.28304        0.375509         0.22325 
        3.29877        0.371846        0.220724 
        3.31446        0.369803        0.218243 
        3.33014        0.365578        0.215804 
        3.34585        0.361616        0.213398 
        3.36158        0.359785        0.211026 
        3.37727        0.357383        0.208697 
        3.39294         0.35401        0.206407 
        3.40867        0.349841        0.204143 
        3.42439        0.348128        0.201915 
        3.44008        0.345165        0.199724 
        3.45578        0.340715        0.197565 
        3.47153        0.339184        0.195434 
        3.48724        0.336495        0.193338 
        3.50292        0.333709        0.191278 
        3.51859        0.331067         0.18925 
        3.53431        0.327998        0.187245 
        3.55007        0.325033        0.185264 
        3.56577        0.323553        0.183321 
        3.58146        0.320651        0.181406 
        3.59719        0.317925        0.179515 
        3.61292        0.316311        0.177651 
        3.62859        0.313374        0.175822 
        3.64429        0.310408        0.174015 
        3.66003        0.308334        0.172228 
        3.67578        0.306089        0.170467 
        3.69146        0.303069        0.168738 
        3.70712        0.301725        0.167037 
        3.72284         0.30084        0.165352 
        3.73853        0.298102        0.163694 
        3.75422        0.295262        0.162059 
        3.76993        0.292867        0.160445 
        3.78564        0.290567        0.158854 
        3.80137        0.288794        0.157282 
        3.81707        0.286253        0.155734 
        3.83279        0.284585        0.154207 
        3.84853         0.28279        0.152698 
        3.86424        0.280613        0.151212 
        3.87992        0.278272        0.149749 
        3.89561        0.277078        0.148305 
        3.91134        0.274612        0.146877 
        3.92704        0.272599         0.14547 
        3.94273        0.271156        0.144083 
        3.95845        0.268333        0.142712 
        3.97418        0.266885        0.141359 
        3.98988        0.264129        0.140025 
        4.00554        0.262616        0.138712 
        4.02125        0.259818        0.137413 
        4.03698        0.256765        0.136129 
        4.05268        0.255556        0.134864 
        4.06839        0.252277        0.133614 
         4.0841        0.249925        0.132381 
        4.09983        0.247585        0.131161 
        4.11555        0.245449        0.129958 
        4.13124        0.243123        0.128774 
        4.14693        0.240775        0.127603 
        4.16266        0.238125        0.126444 
        4.17839        0.235769        0.125301 
        4.19408        0.234002        0.124174 
        4.20977        0.232124        0.123061 
        4.22551        0.230607         0.12196 
        4.24123        0.227657        0.120873 
        4.25691        0.226266        0.119802 
        4.27259        0.224384        0.118744 
        4.28831        0.223325        0.117697 
        4.30404        0.220311        0.116662 
        4.31974        0.219414        0.115642 
        4.33543        0.217676        0.114634 
        4.35116         0.21618        0.113636 
        4.36688        0.214727        0.112651 
        4.38255        0.213157        0.111681 
        4.39825        0.212437        0.110721 
        4.41398        0.210546         0.10977 
         4.4297        0.209919        0.108831 
        4.44541        0.207901        0.107904 
        4.46111        0.207123        0.106989 
        4.47683        0.205873        0.106083 
        4.49251        0.204604         0.10519 
        4.50819        0.203994        0.104308 
         4.5239        0.202887        0.103434 
        4.53962        0.201792         0.10257 
        4.55535        0.201391        0.101715 
        4.57106        0.200347        0.100871 
        4.58678        0.199209        0.100037 
         4.6025        0.198969        0.099212 
        4.61821        0.197953       0.0983967 
        4.63391        0.197426       0.0975917 
         4.6496         0.19676       0.0967962 
        4.66532        0.196075       0.0960084 
        4.68103         0.19577       0.0952298 
        4.69673        0.195137       0.0944607 
        4.71241        0.195488       0.0937009 
        4.72811        0.194652       0.0929484 
        4.74384        0.194034       0.0922033 
        4.75955        0.193943       0.0914676 
        4.77525        0.194006       0.0907404 
        4.79096        0.193605       0.0900203 
        4.80669        0.192555       0.0893078 
         4.8224        0.193175       0.0886039 
        4.83809        0.193123       0.0879084 
        4.85379        0.192882       0.0872201 
         4.8695        0.192677       0.0865386 
        4.88521        0.192978       0.0858649 
        4.90093        0.193479       0.0851982 
        4.91663        0.192681       0.0845394 
        4.93234        0.193172       0.0838869 
        4.94807        0.193102       0.0832409 
        4.96377        0.193849        0.082603 
        4.97943        0.194479       0.0819733 
        4.99514         0.19392       0.0813485 
        5.01086        0.194063       0.0807299 
        5.02654        0.195191       0.0801193 
        5.04227        0.195648       0.0795134 
          5.058        0.195912       0.0789135 
        5.07371        0.196532        0.078321 
        5.08942         0.19716       0.0777347 
        5.10513        0.197605       0.0771543 
        5.12084        0.198285       0.0765796 
        5.13656        0.198938        0.076011 
        5.15225        0.199398       0.0754492 
        5.16796        0.200776       0.0748923 
        5.18369         0.20121       0.0743405 
         5.1994         0.20192       0.0737953 
        5.21509        0.202974       0.0732562 
        5.23079        0.203577       0.0727219 
        5.24649        0.204514       0.0721934 
        5.26217        0.205937       0.0716706 
        5.27788         0.20642       0.0711523 
        5.29359        0.207568        0.070639 
        5.30933        0.208617       0.0701302 
        5.32504        0.210216       0.0696273 
        5.34073        0.210812       0.0691299 
        5.35646        0.212516       0.0686364 
        5.37218        0.214439       0.0681478 
        5.38789        0.214536       0.0676647 
        5.40357        0.215936       0.0671869 
        5.41929        0.216574       0.0667128 
        5.43502         0.21906       0.0662432 
         5.4507        0.220886       0.0657793 
        5.46639        0.221818       0.0653198 
        5.48212        0.222892       0.0648637 
        5.49786         0.22503       0.0644115 
        5.51353         0.22796       0.0639659 
        5.52921        0.227731        0.063524 
        5.54495        0.230342       0.0630852 
        5.56066        0.232089       0.0626509 
        5.57637        0.233636       0.0622209 
        5.59207        0.234672       0.0617954 
        5.60778        0.237674       0.0613737 
        5.62346        0.239128       0.0609566 
        5.63916        0.240718        0.060543 
        5.65487        0.242961       0.0601331 
         5.6706        0.244291       0.0597265 
        5.68633        0.246684       0.0593236 
        5.70203        0.248859       0.0589253 
        5.71773        0.251531       0.0585308 
        5.73344        0.253821       0.0581397 
        5.74916        0.255128       0.0577519 
        5.76486        0.257664       0.0573681 
        5.78054         0.25859       0.0569885 
        5.79626        0.262049       0.0566113 
          5.812        0.264116       0.0562372 
         5.8277        0.265704       0.0558676 
        5.84339        0.268835       0.0555014 
        5.85911        0.271148       0.0551377 
        5.87484         0.27337       0.0547775 
        5.89053        0.275073       0.0544212 
        5.90623        0.279218       0.0540679 
        5.92195         0.28069       0.0537172 
        5.93767        0.282709       0.0533699 
        5.95336         0.28479       0.0530262 
        5.96905        0.287583       0.0526857 
        5.98476        0.289164       0.0523478 
        6.00048        0.293061       0.0520128 
        6.01617         0.29534       0.0516812 
        6.03185        0.297717       0.0513529 
        6.04756        0.299785       0.0510267 
        6.06331           0.303       0.0507026 
        6.07903        0.306631       0.0503821 
        6.09473        0.307657       0.0500647 
        6.11044        0.312209       0.0497498 
        6.12616        0.312992       0.0494377 
        6.14186        0.315665       0.0491286 
        6.15755        0.318567       0.0488222 
        6.17326        0.322111       0.0485182 
        6.18898        0.324373       0.0482167 
        6.20467        0.325773       0.0479183 
        6.22036        0.329389       0.0476225 
         6.2361        0.330164       0.0473284 
         6.2518         0.33327       0.0470373 
        6.26748         0.33635       0.0467493 
        6.28319        0.339888        0.046463 
        6.29893        0.343679       0.0461788 
        6.31463        0.345126       0.0458976 
        6.33033        0.348263       0.0456188 
        6.34604        0.351485       0.0453421 
        6.36177        0.352427       0.0450675 
        6.37747        0.354912       0.0447957 
