# k  (h/Mpc)    Pcb(k)  (Mpc/h)^3    Pcb_linear(k) (Mpc/h)^3   ShotnoiseSubtracted = true
      0.0200456         6956.52         7065.83 
      0.0350414         5501.58         5393.16 
      0.0492313         4037.82         4064.04 
      0.0637834         3378.42         3488.81 
      0.0800726          2711.3         2815.07 
       0.096163         2115.81          2069.1 
       0.111083         1754.12         1690.68 
       0.126058         1497.29         1526.62 
       0.142273         1284.47         1295.97 
       0.158546         1057.62         1030.74 
        0.17375         932.252         886.244 
       0.188953         860.288         812.981 
       0.204907          734.65         719.147 
       0.220756         657.909         610.609 
        0.23588         586.809         539.055 
         0.2514         530.926         495.395 
       0.267535         510.485          448.65 
       0.283568         446.711         396.552 
       0.299022         423.435         356.937 
       0.314451         418.755         329.229 
       0.330372         363.857         302.821 
       0.346141          338.12         275.412 
       0.361624         321.323         251.977 
       0.377134         296.442          233.54 
       0.392932         290.244         216.909 
       0.408854         274.599         200.439 
       0.424564         263.712         185.587 
       0.440253         238.818         173.026 
       0.455999         226.791         161.842 
       0.471626         222.455         151.343 
        0.48727         214.316         141.603 
       0.502856         196.339         132.938 
       0.518488         194.693         125.129 
       0.534347         182.353         117.771 
       0.550082         178.417         110.975 
       0.565732           175.4         104.788 
       0.581496         162.907         99.0971 
       0.597222         159.369         93.8343 
       0.612804         154.966         88.9754 
       0.628434         150.424         84.4472 
       0.644267         143.316         80.2074 
       0.660051         138.987         76.2824 
       0.675724         137.407         72.6459 
       0.691403         134.147         69.2462 
       0.707174         129.938         66.0477 
       0.722871          127.47         63.0665 
        0.73838         124.509         60.3039 
       0.754018         117.242         57.6881 
       0.769845         116.714         55.2011 
        0.78569         113.492         52.8608 
       0.801365          110.44         50.6816 
       0.817031          106.84         48.6291 
       0.832809         105.154         46.6794 
       0.848511         102.751         44.8475 
       0.864097         101.182         43.1285 
       0.879701         99.4318         41.4996 
       0.895507         95.7473         39.9372 
       0.911279         94.7054           38.46 
        0.92691         91.6823         37.0712 
       0.942635         90.0843         35.7446 
       0.958396         89.5087         34.4812 
       0.974128         87.5045         33.2824 
       0.989692         85.7729         32.1534 
        1.00528         84.1137          31.076 
        1.02113         82.2799          30.032 
        1.03692         81.9975         29.0406 
        1.05264         80.5022         28.0994 
        1.06832         78.0501          27.202 
        1.08405         77.2921         26.3422 
        1.09979         76.7745         25.5197 
        1.11537         74.7684         24.7411 
        1.13105         73.1815         23.9909 
        1.14679         72.3086         23.2694 
        1.16256         71.1699         22.5767 
        1.17828         70.3166          21.915 
        1.19395         68.6265         21.2825 
         1.2097          68.709         20.6722 
        1.22537          67.201         20.0892 
          1.241         66.3388         19.5308 
        1.25666         64.7981         18.9927 
        1.27241         64.6508         18.4726 
        1.28819         63.4708         17.9714 
        1.30392         62.6023         17.4906 
        1.31957         62.1185         17.0299 
        1.33529         61.0467         16.5843 
        1.35108         60.0304         16.1532 
        1.36674         59.4486         15.7407 
         1.3824         58.4618         15.3433 
        1.39811         57.6199         14.9585 
        1.41389          56.804         14.5856 
        1.42964         56.3235         14.2263 
        1.44531         55.1803          13.881 
        1.46101         54.8918         13.5466 
        1.47667         54.1579         13.2245 
        1.49229         53.4194         12.9138 
        1.50793         52.7271          12.613 
        1.52367         52.1064         12.3199 
        1.53953         51.5527         12.0343 
        1.55526         50.8977         11.7602 
        1.57092         50.2951          11.496 
        1.58662         49.5852         11.2393 
        1.60235         49.0611         10.9901 
        1.61809         48.3763         10.7484 
        1.63369         47.8427         10.5163 
        1.64941         47.2366         10.2895 
        1.66519          46.514         10.0687 
        1.68085         46.0586         9.85596 
        1.69652         45.3542         9.64945 
        1.71228         45.1876         9.44777 
        1.72806         44.3503         9.25178 
        1.74368         43.9508         9.06341 
        1.75933         43.5563         8.87999 
        1.77505         43.2529         8.70086 
        1.79081         42.6208         8.52643 
         1.8065         41.8545          8.3576 
        1.82218         41.3906         8.19357 
        1.83797         41.0968         8.03287 
        1.85367         40.5032         7.87744 
        1.86928         40.5478         7.72712 
        1.88497         39.5607         7.57996 
        1.90073         39.3167         7.43615 
        1.91647         39.0774         7.29625 
        1.93218         38.9566          7.1603 
        1.94787         38.3495         7.02807 
        1.96363         37.6593          6.8987 
        1.97935         37.3529          6.7729 
        1.99499         37.0952           6.651 
        2.01064         36.4932         6.53196 
         2.0264         36.1216         6.41514 
        2.04216         35.9027         6.30127 
        2.05781          35.467         6.19092 
        2.07353         35.1492         6.08286 
        2.08928         34.7431         5.97718 
        2.10499         34.5299         5.87433 
        2.12065         34.0726         5.77425 
        2.13633         33.7646         5.67644 
        2.15211         33.1917          5.5803 
        2.16785         32.9744         5.48669 
        2.18349         32.5935         5.39584 
        2.19916         32.3077         5.30689 
        2.21489         31.9797         5.21968 
        2.23063         31.8199          5.1344 
         2.2463         31.4342         5.05143 
        2.26194         31.0486         4.97053 
        2.27765          30.712         4.89101 
        2.29341         30.4447         4.81305 
        2.30914          30.142         4.73697 
        2.32486         29.8434          4.6626 
        2.34061         29.6011         4.58973 
        2.35635         29.2069          4.5185 
        2.37203         29.0121         4.44906 
        2.38768         28.8118         4.38123 
        2.40339         28.5837          4.3146 
        2.41914         28.1707         4.24921 
        2.43483         28.0385         4.18543 
         2.4505          27.542         4.12308 
        2.46622         27.3196         4.06181 
        2.48195         27.0435         4.00179 
        2.49759         26.6941         3.94333 
        2.51328         26.6058         3.88589 
        2.52906         26.4016         3.82925 
        2.54479          26.083         3.77397 
        2.56049         25.9435          3.7199 
        2.57618          25.753         3.66696 
        2.59189         25.2399         3.61497 
        2.60758          25.189         3.56409 
        2.62325         24.8559         3.51427 
        2.63898         24.6336         3.46524 
        2.65468         24.4458         3.41725 
        2.67044         24.1273         3.36999 
        2.68618         23.9174         3.32373 
        2.70184         23.6821         3.27855 
        2.71755         23.5378          3.2341 
        2.73329         23.2272         3.19042 
        2.74897         23.1254          3.1477 
        2.76462         22.8999         3.10586 
        2.78034         22.5732         3.06462 
        2.79607         22.4246          3.0241 
        2.81179         22.1947         2.98437 
        2.82749         22.0078         2.94541 
        2.84321         21.8585          2.9071 
        2.85893         21.4987          2.8695 
        2.87462         21.4231         2.83264 
        2.89033          21.231          2.7964 
        2.90605         20.9876         2.76077 
        2.92176         20.7441         2.72579 
        2.93747         20.5746         2.69144 
        2.95318         20.4643         2.65768 
        2.96891         20.2197         2.62449 
        2.98456         20.1415         2.59203 
        3.00023         19.8414         2.56007 
        3.01596         19.6833         2.52856 
        3.03164         19.4648         2.49768 
        3.04738         19.3265         2.46723 
         3.0631         19.1858          2.4373 
        3.07883          19.022         2.40788 
        3.09456         18.8471         2.37895 
        3.11026         18.7192         2.35055 
        3.12596         18.4795         2.32262 
        3.14163         18.3177         2.29521 
        3.15734         18.1523         2.26819 
        3.17308          18.036         2.24155 
        3.18879         17.8086         2.21541 
        3.20447         17.7014         2.18973 
         3.2202         17.5673         2.16439 
         3.2359         17.3772         2.13949 
        3.25157         17.2797         2.11505 
        3.26729         17.0748         2.09093 
        3.28304         16.9818         2.06713 
        3.29877         16.8659         2.04375 
        3.31446         16.6694         2.02078 
        3.33014         16.5475         1.99819 
        3.34585         16.3554         1.97591 
        3.36158         16.2184         1.95395 
        3.37727         16.0789         1.93239 
        3.39294         15.9803         1.91118 
        3.40867         15.7655         1.89022 
        3.42439         15.6683         1.86959 
        3.44008         15.5783         1.84931 
        3.45578         15.3803         1.82932 
        3.47153         15.2631         1.80958 
        3.48724         15.1762         1.79017 
        3.50292         15.0468          1.7711 
        3.51859         14.9048         1.75232 
        3.53431          14.737         1.73375 
        3.55007         14.6479         1.71542 
        3.56577          14.534         1.69742 
        3.58146         14.3649         1.67969 
        3.59719         14.2658         1.66218 
        3.61292         14.1625         1.64493 
        3.62859         14.0098         1.62799 
        3.64429         13.9063         1.61126 
        3.66003         13.7973         1.59471 
        3.67578         13.6859         1.57841 
        3.69146         13.5979          1.5624 
        3.70712         13.4383         1.54664 
        3.72284         13.3812         1.53105 
        3.73853         13.2199          1.5157 
        3.75422         13.1072         1.50055 
        3.76993         12.9906         1.48561 
        3.78564         12.9021         1.47087 
        3.80137         12.7878         1.45632 
        3.81707         12.7097         1.44199 
        3.83279         12.5934         1.42785 
        3.84853         12.4862         1.41387 
        3.86424         12.3663         1.40012 
        3.87992         12.3055         1.38657 
        3.89561         12.1872          1.3732 
        3.91134         12.0853         1.35998 
        3.92704         11.9817         1.34695 
        3.94273         11.8759         1.33411 
        3.95845         11.7889         1.32141 
        3.97418         11.6935         1.30888 
        3.98988         11.6262         1.29653 
        4.00554          11.533         1.28438 
        4.02125         11.4185         1.27235 
        4.03698         11.3124         1.26045 
        4.05268         11.2484         1.24874 
        4.06839         11.1378         1.23717 
         4.0841         11.0371         1.22575 
        4.09983         10.9662         1.21446 
        4.11555         10.8616         1.20332 
        4.13124         10.7768         1.19235 
        4.14693         10.6642         1.18151 
        4.16266         10.6168         1.17078 
        4.17839         10.5006          1.1602 
        4.19408         10.4453         1.14977 
        4.20977         10.3215         1.13946 
        4.22551         10.2617         1.12926 
        4.24123         10.2088          1.1192 
        4.25691         10.1149         1.10928 
        4.27259          10.029         1.09949 
        4.28831         9.93504         1.08979 
        4.30404         9.89727         1.08021 
        4.31974         9.79524         1.07076 
        4.33543         9.73748         1.06143 
        4.35116          9.6205         1.05219 
        4.36688         9.55948         1.04307 
        4.38255         9.50043         1.03409 
        4.39825         9.39798          1.0252 
        4.41398         9.34175         1.01639 
         4.4297         9.27204          1.0077 
        4.44541         9.20848        0.999117 
        4.46111          9.1303        0.990639 
        4.47683         9.06561        0.982254 
        4.49251         8.98647        0.973985 
        4.50819         8.91848        0.965814 
         4.5239         8.84809        0.957727 
        4.53962         8.76836        0.949723 
        4.55535         8.72113        0.941808 
        4.57106         8.65139        0.933996 
        4.58678         8.57835        0.926271 
         4.6025         8.51273        0.918633 
        4.61821         8.45496        0.911084 
        4.63391         8.39278        0.903631 
         4.6496         8.32622        0.896264 
        4.66532         8.25787         0.88897 
        4.68103         8.19633        0.881761 
        4.69673         8.12203        0.874639 
        4.71241         8.08013        0.867605 
        4.72811         8.00977        0.860637 
        4.74384         7.98313        0.853738 
        4.75955         7.90608        0.846925 
        4.77525          7.8368        0.840192 
        4.79096         7.78552        0.833525 
        4.80669         7.71932        0.826927 
         4.8224         7.68068         0.82041 
        4.83809          7.6101         0.81397 
        4.85379         7.55071        0.807597 
         4.8695         7.51089        0.801287 
        4.88521         7.43858        0.795048 
        4.90093         7.38441        0.788876 
        4.91663         7.34102        0.782775 
        4.93234         7.28945        0.776733 
        4.94807         7.21818        0.770752 
        4.96377         7.17724        0.764846 
        4.97943         7.10538        0.759015 
        4.99514         7.07176         0.75323 
        5.01086          7.0331        0.747502 
        5.02654         6.97099        0.741849 
        5.04227         6.92374        0.736238 
          5.058         6.86703        0.730683 
        5.07371         6.82549        0.725198 
        5.08942         6.76627        0.719768 
        5.10513         6.73734        0.714394 
        5.12084         6.67971        0.709074 
        5.13656         6.60688        0.703809 
        5.15225         6.58729        0.698607 
        5.16796         6.52842         0.69345 
        5.18369         6.48643         0.68834 
         5.1994         6.43173        0.683293 
        5.21509         6.38875        0.678301 
        5.23079          6.3597        0.673353 
        5.24649         6.30833         0.66846 
        5.26217         6.26947        0.663619 
        5.27788         6.21076         0.65882 
        5.29359          6.1812        0.654068 
        5.30933         6.13857        0.649356 
        5.32504         6.08127        0.644699 
        5.34073         6.05054        0.640094 
        5.35646         6.00052        0.635525 
        5.37218         5.97082           0.631 
        5.38789         5.91308        0.626527 
        5.40357         5.87528        0.622104 
        5.41929         5.83574        0.617713 
        5.43502         5.78686        0.613365 
         5.4507         5.77574         0.60907 
        5.46639          5.7282        0.604815 
        5.48212         5.68563        0.600592 
        5.49786          5.6536        0.596405 
        5.51353         5.61679        0.592279 
        5.52921         5.57087        0.588188 
        5.54495          5.5297        0.584124 
        5.56066         5.48199        0.580104 
        5.57637         5.45106        0.576122 
        5.59207         5.41132        0.572182 
        5.60778         5.38556        0.568277 
        5.62346         5.34352        0.564415 
        5.63916         5.30873        0.560586 
        5.65487         5.27588         0.55679 
         5.6706          5.2494        0.553026 
        5.68633         5.21062        0.549295 
        5.70203         5.17183        0.545607 
        5.71773         5.13512        0.541954 
        5.73344         5.09651        0.538333 
        5.74916         5.07642        0.534741 
        5.76486         5.03058        0.531188 
        5.78054         5.01903        0.527673 
        5.79626         4.96829        0.524181 
          5.812         4.93876        0.520717 
         5.8277         4.91843        0.517295 
        5.84339         4.86654        0.513903 
        5.85911         4.84176        0.510536 
        5.87484           4.811        0.507201 
        5.89053         4.78849        0.503902 
        5.90623         4.75122        0.500631 
        5.92195         4.72337        0.497384 
        5.93767         4.68509        0.494168 
        5.95336         4.66064        0.490985 
        5.96905         4.63422        0.487833 
        5.98476         4.59585        0.484704 
        6.00048         4.57687        0.481602 
        6.01617         4.53132        0.478531 
        6.03185          4.5127        0.475491 
        6.04756         4.47666        0.472471 
        6.06331         4.45049        0.469471 
        6.07903          4.4257        0.466503 
        6.09473         4.40291        0.463564 
        6.11044         4.36454        0.460648 
        6.12616         4.34587        0.457758 
        6.14186          4.3199        0.454896 
        6.15755          4.2823        0.452059 
        6.17326         4.26532        0.449244 
        6.18898         4.22391        0.446452 
        6.20467         4.20606        0.443689 
        6.22036            4.18         0.44095 
         6.2361         4.15891        0.438227 
         6.2518         4.14101        0.435532 
        6.26748         4.10855        0.432866 
        6.28319         4.07677        0.430214 
        6.29893         4.05801        0.427583 
        6.31463         4.03218        0.424979 
        6.33033         4.01133        0.422398 
        6.34604         3.98328        0.419836 
        6.36177         3.96049        0.417293 
        6.37747          3.9411        0.414777 
