# k  (h/Mpc)    Pcb(k)  (Mpc/h)^3    Pcb_linear(k) (Mpc/h)^3   ShotnoiseSubtracted = true
      0.0200456         13764.8         14087.5 
      0.0350414         10346.8         10752.6 
      0.0492313         7963.98         8102.71 
      0.0637834         7029.77         6955.84 
      0.0800726         5639.67         5612.57 
       0.096163         3978.66         4125.28 
       0.111083         3229.63         3370.81 
       0.126058         3026.58         3043.71 
       0.142273         2616.73         2583.85 
       0.158546         2241.12         2055.05 
        0.17375          1818.7         1766.95 
       0.188953          1778.5         1620.89 
       0.204907         1677.14          1433.8 
       0.220756         1444.53         1217.41 
        0.23588         1284.33         1074.74 
         0.2514         1126.39         987.697 
       0.267535         1116.45         894.499 
       0.283568          1016.4         790.627 
       0.299022         955.455         711.644 
       0.314451          910.09         656.403 
       0.330372          840.92         603.751 
       0.346141         781.517         549.105 
       0.361624         751.701          502.38 
       0.377134         700.698         465.621 
       0.392932         675.575         432.463 
       0.408854         653.316         399.626 
       0.424564         616.345         370.014 
       0.440253           603.2         344.971 
       0.455999         571.913         322.674 
       0.471626         540.736         301.741 
        0.48727         525.961         282.321 
       0.502856         511.069         265.045 
       0.518488         506.083         249.477 
       0.534347         473.619         234.807 
       0.550082         453.315         221.257 
       0.565732         453.818         208.922 
       0.581496         428.217         197.575 
       0.597222         421.553         187.083 
       0.612804         408.589         177.395 
       0.628434         394.536         168.367 
       0.644267         383.533         159.914 
       0.660051         374.734         152.089 
       0.675724         370.827         144.838 
       0.691403         359.774          138.06 
       0.707174         346.891         131.683 
       0.722871         343.047         125.739 
        0.73838         338.199         120.231 
       0.754018         328.057         115.016 
       0.769845         317.735         110.058 
        0.78569         317.549         105.392 
       0.801365         307.435         101.047 
       0.817031         298.758         96.9545 
       0.832809         295.431         93.0674 
       0.848511         287.931          89.415 
       0.864097         283.909         85.9876 
       0.879701         279.272         82.7401 
       0.895507         272.802         79.6251 
       0.911279         264.766         76.6799 
        0.92691         264.088          73.911 
       0.942635         258.567          71.266 
       0.958396         255.575         68.7472 
       0.974128         250.011         66.3569 
       0.989692         244.764          64.106 
        1.00528         241.672          61.958 
        1.02113          239.75         59.8764 
        1.03692         233.133         57.8999 
        1.05264         228.849         56.0233 
        1.06832          224.98         54.2342 
        1.08405         221.005         52.5199 
        1.09979         219.223           50.88 
        1.11537         213.581         49.3277 
        1.13105         210.454         47.8319 
        1.14679         210.323         46.3935 
        1.16256         206.138         45.0125 
        1.17828         201.549         43.6932 
        1.19395         199.196         42.4322 
         1.2097         197.913         41.2154 
        1.22537         193.267          40.053 
          1.241         191.651         38.9397 
        1.25666         187.716         37.8667 
        1.27241         184.948         36.8298 
        1.28819         182.972         35.8306 
        1.30392         180.502         34.8721 
        1.31957         179.036         33.9534 
        1.33529         174.559          33.065 
        1.35108         172.782         32.2055 
        1.36674         171.607         31.3831 
         1.3824         167.837         30.5907 
        1.39811         168.069         29.8235 
        1.41389         163.931         29.0801 
        1.42964         160.788         28.3637 
        1.44531          158.64         27.6753 
        1.46101         157.323         27.0087 
        1.47667          154.13         26.3664 
        1.49229         152.567          25.747 
        1.50793         151.316         25.1472 
        1.52367         149.461         24.5629 
        1.53953         146.397         23.9935 
        1.55526         144.571         23.4471 
        1.57092         143.015         22.9201 
        1.58662         140.689         22.4084 
        1.60235         139.552         21.9116 
        1.61809         137.515         21.4298 
        1.63369          135.73          20.967 
        1.64941         133.987         20.5147 
        1.66519         131.875         20.0744 
        1.68085         130.946         19.6504 
        1.69652         127.523         19.2386 
        1.71228         127.789         18.8365 
        1.72806         125.705         18.4458 
        1.74368          124.46         18.0702 
        1.75933         122.554         17.7045 
        1.77505         120.857         17.3474 
        1.79081         119.632         16.9996 
         1.8065          118.07          16.663 
        1.82218         115.966          16.336 
        1.83797         114.572         16.0156 
        1.85367         113.248         15.7057 
        1.86928         112.281          15.406 
        1.88497         109.865         15.1126 
        1.90073         109.741         14.8259 
        1.91647         107.634         14.5469 
        1.93218         106.634         14.2759 
        1.94787         105.338         14.0123 
        1.96363         103.956         13.7543 
        1.97935         102.138         13.5035 
        1.99499         101.389         13.2605 
        2.01064         100.134         13.0231 
         2.0264         98.6891         12.7902 
        2.04216         97.6475         12.5632 
        2.05781         96.5583         12.3432 
        2.07353         94.9716         12.1277 
        2.08928         93.8931          11.917 
        2.10499         92.6395          11.712 
        2.12065         92.1935         11.5124 
        2.13633         90.9102         11.3174 
        2.15211         89.6957         11.1258 
        2.16785         88.2784         10.9391 
        2.18349         87.1546          10.758 
        2.19916         86.6179         10.5806 
        2.21489         85.3906         10.4068 
        2.23063         84.2233         10.2367 
         2.2463         83.5607         10.0713 
        2.26194         82.8528         9.91002 
        2.27765         81.3322         9.75148 
        2.29341         80.4198         9.59604 
        2.30914         79.2651         9.44436 
        2.32486         78.5748         9.29609 
        2.34061         77.6969          9.1508 
        2.35635         76.8839         9.00879 
        2.37203         75.4574         8.87033 
        2.38768         74.9782         8.73511 
        2.40339         74.0217         8.60225 
        2.41914         73.1718         8.47188 
        2.43483         72.8404         8.34472 
         2.4505         71.4826         8.22042 
        2.46622         70.7322         8.09825 
        2.48195         69.9159         7.97859 
        2.49759         68.9584         7.86203 
        2.51328         68.4481         7.74752 
        2.52906         67.7032          7.6346 
        2.54479         66.8217         7.52438 
        2.56049         65.9531         7.41658 
        2.57618         65.3572         7.31102 
        2.59189         64.5403         7.20737 
        2.60758         63.9365         7.10593 
        2.62325         63.3335         7.00659 
        2.63898         62.5134         6.90883 
        2.65468         61.9094         6.81317 
        2.67044         61.1368         6.71893 
        2.68618          60.919         6.62671 
        2.70184         59.8466         6.53662 
        2.71755         59.6142           6.448 
        2.73329         58.3992         6.36091 
        2.74897         57.7553         6.27574 
        2.76462         57.3816         6.19233 
        2.78034         56.6999         6.11011 
        2.79607         55.8999         6.02932 
        2.81179          55.374         5.95011 
        2.82749           54.71         5.87242 
        2.84321         54.2958         5.79606 
        2.85893         53.5511         5.72109 
        2.87462         52.8735         5.64759 
        2.89033         52.5297         5.57534 
        2.90605         51.7001          5.5043 
        2.92176         51.3336         5.43455 
        2.93747         50.6728         5.36607 
        2.95318         50.1016         5.29876 
        2.96891         49.3324          5.2326 
        2.98456         49.2673         5.16787 
        3.00023         48.6418         5.10416 
        3.01596         48.2501         5.04133 
        3.03164         47.4015         4.97976 
        3.04738         47.2811         4.91905 
         3.0631         46.6111         4.85938 
        3.07883         46.1927         4.80072 
        3.09456         45.8211         4.74304 
        3.11026         45.1981         4.68642 
        3.12596         44.7069         4.63073 
        3.14163         44.3062          4.5761 
        3.15734         43.6623         4.52222 
        3.17308         43.4514          4.4691 
        3.18879         42.9776         4.41699 
        3.20447         42.3799         4.36579 
         3.2202         42.0223         4.31526 
         3.2359         41.5953         4.26562 
        3.25157         41.0966          4.2169 
        3.26729         40.8218          4.1688 
        3.28304         40.2469         4.12136 
        3.29877         39.9535         4.07474 
        3.31446         39.5875         4.02894 
        3.33014         39.2544          3.9839 
        3.34585         38.7374         3.93949 
        3.36158         38.4037          3.8957 
        3.37727         37.9496         3.85272 
        3.39294           37.64         3.81043 
        3.40867         37.1343         3.76864 
        3.42439          36.826          3.7275 
        3.44008         36.7349         3.68707 
        3.45578         36.0611         3.64721 
        3.47153         35.7901         3.60786 
        3.48724          35.469         3.56917 
        3.50292         35.1816         3.53114 
        3.51859         34.7026          3.4937 
        3.53431         34.4257         3.45668 
        3.55007         34.1681         3.42012 
        3.56577         33.8272         3.38424 
        3.58146          33.448          3.3489 
        3.59719         33.1576         3.31398 
        3.61292         32.8598         3.27958 
        3.62859         32.4625         3.24581 
        3.64429         32.0955         3.21245 
        3.66003         31.8863         3.17946 
        3.67578         31.6155         3.14696 
        3.69146         31.3692         3.11504 
        3.70712         30.9674         3.08362 
        3.72284         30.8179         3.05253 
        3.73853          30.489         3.02193 
        3.75422         30.1186         2.99174 
        3.76993         29.9866         2.96194 
        3.78564          29.684         2.93256 
        3.80137         29.4102         2.90354 
        3.81707         29.0837         2.87498 
        3.83279         28.8849         2.84678 
        3.84853         28.5741         2.81892 
        3.86424         28.3081         2.79149 
        3.87992         27.9715         2.76448 
        3.89561         27.7104         2.73782 
        3.91134          27.522         2.71147 
        3.92704           27.28         2.68549 
        3.94273         26.9908         2.65989 
        3.95845         26.7432         2.63458 
        3.97418         26.5949         2.60959 
        3.98988         26.2063         2.58497 
        4.00554         26.0505         2.56074 
        4.02125         25.8541         2.53675 
        4.03698         25.5377         2.51304 
        4.05268          25.377         2.48968 
        4.06839         25.1414         2.46661 
         4.0841         24.9425         2.44385 
        4.09983         24.7536         2.42134 
        4.11555         24.5565         2.39913 
        4.13124         24.2705         2.37726 
        4.14693         24.0369         2.35565 
        4.16266         23.8169         2.33426 
        4.17839         23.6297         2.31315 
        4.19408         23.3839         2.29236 
        4.20977          23.232         2.27181 
        4.22551         22.9557         2.25147 
        4.24123         22.7718          2.2314 
        4.25691         22.6004         2.21164 
        4.27259         22.4081         2.19211 
        4.28831         22.2489         2.17278 
        4.30404         22.0316         2.15367 
        4.31974         21.9114         2.13483 
        4.33543         21.6595         2.11623 
        4.35116         21.5397         2.09781 
        4.36688         21.3277         2.07962 
        4.38255         21.1403         2.06172 
        4.39825         20.9746         2.04399 
        4.41398         20.7828         2.02644 
         4.4297         20.6117         2.00911 
        4.44541         20.4527         1.99199 
        4.46111         20.2104         1.97509 
        4.47683         20.1052         1.95838 
        4.49251          19.924         1.94189 
        4.50819          19.743          1.9256 
         4.5239         19.5777         1.90947 
        4.53962         19.4276         1.89352 
        4.55535          19.297         1.87774 
        4.57106         19.0979         1.86216 
        4.58678         18.9653         1.84676 
         4.6025         18.8114         1.83153 
        4.61821         18.6443         1.81648 
        4.63391         18.5107         1.80162 
         4.6496         18.3609         1.78693 
        4.66532         18.2024         1.77239 
        4.68103         18.0343         1.75802 
        4.69673         17.9416         1.74382 
        4.71241         17.8169         1.72979 
        4.72811         17.6153          1.7159 
        4.74384         17.4937         1.70214 
        4.75955         17.3444         1.68856 
        4.77525         17.2228         1.67514 
        4.79096          17.052         1.66184 
        4.80669         17.0064         1.64869 
         4.8224         16.7942          1.6357 
        4.83809         16.6165         1.62286 
        4.85379         16.5428         1.61015 
         4.8695         16.4301         1.59757 
        4.88521         16.2907         1.58513 
        4.90093         16.1836         1.57283 
        4.91663         16.0151         1.56066 
        4.93234         15.8933         1.54862 
        4.94807         15.7822         1.53669 
        4.96377         15.6158         1.52492 
        4.97943         15.5392         1.51329 
        4.99514         15.4109         1.50176 
        5.01086         15.2997         1.49034 
        5.02654         15.1837         1.47906 
        5.04227         15.0518         1.46788 
          5.058         14.9543          1.4568 
        5.07371         14.8422         1.44587 
        5.08942         14.7107         1.43504 
        5.10513         14.6181         1.42433 
        5.12084         14.5015         1.41372 
        5.13656         14.3698         1.40322 
        5.15225         14.2939         1.39285 
        5.16796         14.1801         1.38257 
        5.18369         14.0638         1.37238 
         5.1994         13.9763         1.36232 
        5.21509         13.8449         1.35237 
        5.23079         13.7524          1.3425 
        5.24649         13.6608         1.33275 
        5.26217         13.5412         1.32309 
        5.27788          13.423         1.31353 
        5.29359         13.3469         1.30405 
        5.30933         13.2222         1.29466 
        5.32504         13.1613         1.28537 
        5.34073         13.0584         1.27619 
        5.35646         12.9492         1.26708 
        5.37218         12.8822         1.25806 
        5.38789         12.8027         1.24914 
        5.40357         12.6766         1.24032 
        5.41929          12.589         1.23157 
        5.43502          12.507          1.2229 
         5.4507         12.4045         1.21434 
        5.46639         12.3188         1.20585 
        5.48212         12.2206         1.19743 
        5.49786         12.1536         1.18909 
        5.51353         12.0445         1.18086 
        5.52921         11.9653          1.1727 
        5.54495         11.8915          1.1646 
        5.56066         11.7907         1.15658 
        5.57637         11.7049         1.14865 
        5.59207         11.6193         1.14079 
        5.60778         11.5427         1.13301 
        5.62346         11.4582         1.12531 
        5.63916         11.3718         1.11767 
        5.65487         11.2858          1.1101 
         5.6706          11.221          1.1026 
        5.68633         11.1344         1.09516 
        5.70203         11.0571         1.08781 
        5.71773          10.969         1.08052 
        5.73344         10.9025          1.0733 
        5.74916         10.8131         1.06614 
        5.76486         10.7407         1.05906 
        5.78054         10.6596         1.05205 
        5.79626          10.594         1.04509 
          5.812         10.5382         1.03818 
         5.8277          10.444         1.03136 
        5.84339         10.3842          1.0246 
        5.85911         10.3092         1.01789 
        5.87484         10.2303         1.01123 
        5.89053         10.1636         1.00466 
        5.90623         10.0732        0.998136 
        5.92195         10.0132        0.991662 
        5.93767         9.94781        0.985249 
        5.95336         9.88355        0.978905 
        5.96905         9.81059         0.97262 
        5.98476         9.75666        0.966381 
        6.00048         9.67845        0.960196 
        6.01617         9.61742        0.954074 
        6.03185         9.54655        0.948014 
        6.04756         9.48194        0.941992 
        6.06331         9.43267         0.93601 
        6.07903         9.34159        0.930093 
        6.09473         9.30451        0.924234 
        6.11044         9.23044         0.91842 
        6.12616         9.17103        0.912658 
        6.14186         9.10534        0.906952 
        6.15755         9.04702        0.901296 
        6.17326         8.98819        0.895683 
        6.18898         8.92474        0.890117 
        6.20467         8.86617        0.884608 
        6.22036         8.79576        0.879147 
         6.2361         8.72946        0.873718 
         6.2518         8.69433        0.868345 
        6.26748         8.64306        0.863028 
        6.28319           8.584        0.857742 
        6.29893          8.5238        0.852497 
        6.31463         8.46993        0.847304 
        6.33033         8.43236        0.842158 
        6.34604         8.37165         0.83705 
        6.36177         8.30273        0.831981 
        6.37747         8.25379        0.826964 
