# k  (h/Mpc)    Pcb(k)  (Mpc/h)^3    Pcb_linear(k) (Mpc/h)^3   ShotnoiseSubtracted = true
      0.0200456         23841.8         24334.4 
      0.0350414         19086.8         18573.8 
      0.0492313         13561.3         13996.4 
      0.0637834         11229.9         12015.3 
      0.0800726         8938.13            9695 
       0.096163         7272.79          7125.9 
       0.111083         6044.21         5822.64 
       0.126058         5047.78         5257.62 
       0.142273         4450.71         4463.27 
       0.158546         3677.82         3549.83 
        0.17375         3347.49         3052.19 
       0.188953         3212.59         2799.87 
       0.204907         2780.95         2476.71 
       0.220756         2529.75         2102.91 
        0.23588         2274.11         1856.48 
         0.2514         2082.37         1706.12 
       0.267535         2004.52         1545.13 
       0.283568         1808.52         1365.71 
       0.299022         1732.46         1229.28 
       0.314451         1805.63         1133.85 
       0.330372         1634.98          1042.9 
       0.346141         1508.13         948.509 
       0.361624         1447.19         867.799 
       0.377134         1397.06         804.302 
       0.392932         1332.72         747.025 
       0.408854         1283.89         690.303 
       0.424564         1261.02         639.153 
       0.440253         1188.57         595.894 
       0.455999         1138.68         557.378 
       0.471626          1149.6         521.219 
        0.48727         1097.22         487.673 
       0.502856         1067.15         457.832 
       0.518488         1027.56         430.939 
       0.534347         993.739         405.599 
       0.550082         954.803         382.194 
       0.565732           937.7         360.886 
       0.581496         917.619         341.286 
       0.597222          907.29         323.162 
       0.612804         884.545         306.428 
       0.628434         851.903         290.833 
       0.644267         830.995         276.231 
       0.660051         821.574         262.714 
       0.675724         811.012         250.189 
       0.691403         780.129         238.481 
       0.707174         763.499         227.466 
       0.722871         756.715         217.199 
        0.73838          738.52         207.684 
       0.754018         728.348         198.676 
       0.769845         714.406         190.111 
        0.78569         698.357         182.051 
       0.801365         679.505         174.545 
       0.817031         671.173         167.477 
       0.832809          657.93         160.762 
       0.848511         646.201         154.453 
       0.864097         640.557         148.533 
       0.879701         640.996         142.923 
       0.895507         616.036         137.542 
       0.911279         612.053         132.455 
        0.92691         600.302         127.672 
       0.942635         593.225         123.103 
       0.958396         581.255         118.752 
       0.974128         571.052         114.623 
       0.989692         557.157         110.735 
        1.00528         552.524         107.025 
        1.02113         540.546         103.429 
        1.03692         532.768         100.015 
        1.05264         527.359         96.7731 
        1.06832          516.25         93.6827 
        1.08405         512.725         90.7215 
        1.09979         501.471         87.8888 
        1.11537         491.376         85.2073 
        1.13105         484.338         82.6236 
        1.14679         476.046         80.1389 
        1.16256         473.566         77.7534 
        1.17828         465.638         75.4745 
        1.19395         457.426         73.2962 
         1.2097         450.446         71.1943 
        1.22537         443.759         69.1865 
          1.241         436.005         67.2634 
        1.25666         430.626           65.41 
        1.27241         426.535         63.6188 
        1.28819         416.242         61.8928 
        1.30392         414.503          60.237 
        1.31957         406.164         58.6502 
        1.33529         401.911         57.1157 
        1.35108          400.03         55.6309 
        1.36674         389.331         54.2104 
         1.3824         382.178         52.8416 
        1.39811         379.465         51.5163 
        1.41389         373.531         50.2322 
        1.42964         367.772         48.9947 
        1.44531         361.415         47.8056 
        1.46101         353.442         46.6541 
        1.47667         353.338         45.5446 
        1.49229         347.411         44.4747 
        1.50793         340.918         43.4386 
        1.52367          334.41         42.4293 
        1.53953         331.328         41.4458 
        1.55526         326.307         40.5018 
        1.57092         321.267         39.5916 
        1.58662         316.455         38.7077 
        1.60235         312.167         37.8494 
        1.61809         308.964         37.0172 
        1.63369         304.731         36.2178 
        1.64941         300.404         35.4366 
        1.66519         295.963          34.676 
        1.68085         290.673         33.9435 
        1.69652         287.114         33.2323 
        1.71228         282.553         32.5377 
        1.72806         279.425         31.8628 
        1.74368         276.183          31.214 
        1.75933         272.995         30.5823 
        1.77505         268.142         29.9654 
        1.79081         265.105         29.3647 
         1.8065         263.045         28.7832 
        1.82218         256.903         28.2183 
        1.83797         254.286         27.6649 
        1.85367         249.687         27.1296 
        1.86928         245.583         26.6119 
        1.88497         243.082         26.1051 
        1.90073         241.684         25.6098 
        1.91647         237.408          25.128 
        1.93218         233.925         24.6598 
        1.94787         229.382         24.2044 
        1.96363         228.041         23.7588 
        1.97935         224.564         23.3256 
        1.99499           222.3         22.9058 
        2.01064         216.883         22.4958 
         2.0264         215.887         22.0935 
        2.04216         212.593         21.7013 
        2.05781         210.281         21.3213 
        2.07353         209.335         20.9491 
        2.08928         206.661         20.5852 
        2.10499         202.754          20.231 
        2.12065         200.188         19.8863 
        2.13633         197.322         19.5494 
        2.15211         195.372         19.2183 
        2.16785         192.769         18.8959 
        2.18349         190.446         18.5831 
        2.19916         188.646         18.2767 
        2.21489         185.641         17.9764 
        2.23063         183.769         17.6827 
         2.2463          181.57         17.3969 
        2.26194         178.795         17.1183 
        2.27765         176.249         16.8444 
        2.29341         174.543         16.5759 
        2.30914         172.393         16.3139 
        2.32486         170.842         16.0578 
        2.34061         167.855         15.8069 
        2.35635         165.722         15.5615 
        2.37203         164.626         15.3224 
        2.38768         162.903         15.0888 
        2.40339         159.793         14.8593 
        2.41914           158.1         14.6341 
        2.43483         156.734         14.4144 
         2.4505         154.899         14.1997 
        2.46622         152.553         13.9887 
        2.48195         151.341          13.782 
        2.49759         148.702         13.5807 
        2.51328         147.478         13.3829 
        2.52906         145.957         13.1878 
        2.54479         143.917         12.9974 
        2.56049         142.468         12.8112 
        2.57618         140.861         12.6289 
        2.59189         139.645         12.4498 
        2.60758          137.84         12.2746 
        2.62325         136.197          12.103 
        2.63898         133.919         11.9341 
        2.65468         133.034         11.7689 
        2.67044         131.787         11.6061 
        2.68618         129.479         11.4468 
        2.70184         128.571         11.2912 
        2.71755          126.22         11.1381 
        2.73329         125.042         10.9877 
        2.74897         123.914         10.8405 
        2.76462         122.555         10.6965 
        2.78034         121.249         10.5544 
        2.79607         119.939         10.4149 
        2.81179          118.43         10.2781 
        2.82749         117.416         10.1439 
        2.84321          115.83          10.012 
        2.85893         114.488         9.88245 
        2.87462         113.313          9.7555 
        2.89033          111.96         9.63069 
        2.90605         110.786         9.50798 
        2.92176         109.276          9.3875 
        2.93747         108.697          9.2692 
        2.95318         107.238         9.15294 
        2.96891         106.441         9.03865 
        2.98456         104.761         8.92684 
        3.00023         103.872         8.81678 
        3.01596         102.848         8.70826 
        3.03164         101.909          8.6019 
        3.04738          100.85         8.49703 
         3.0631         99.6291         8.39397 
        3.07883         98.6144         8.29263 
        3.09456         97.3633         8.19301 
        3.11026         96.6496         8.09519 
        3.12596         95.2486         7.99901 
        3.14163         94.6542         7.90463 
        3.15734         93.3602         7.81157 
        3.17308         92.5979          7.7198 
        3.18879         91.8877         7.62978 
        3.20447         90.7901         7.54135 
         3.2202         89.5132         7.45406 
         3.2359         89.2554         7.36832 
        3.25157         88.3436         7.28416 
        3.26729         86.8843         7.20107 
        3.28304         86.4263         7.11913 
        3.29877         85.4581         7.03859 
        3.31446         84.8892         6.95949 
        3.33014          84.008         6.88169 
        3.34585          82.961         6.80497 
        3.36158         82.0267         6.72932 
        3.37727         81.2916         6.65508 
        3.39294         80.4066         6.58204 
        3.40867         79.6066         6.50984 
        3.42439         78.6324         6.43879 
        3.44008         77.9962         6.36894 
        3.45578         77.6658         6.30009 
        3.47153         76.6203         6.23212 
        3.48724         75.9005         6.16529 
        3.50292          75.446          6.0996 
        3.51859         74.4955         6.03492 
        3.53431         73.7404         5.97098 
        3.55007         73.1534         5.90783 
        3.56577         72.5759         5.84585 
        3.58146         71.5879         5.78479 
        3.59719         71.1034         5.72448 
        3.61292         70.3446         5.66506 
        3.62859         69.6857         5.60672 
        3.64429         69.3091          5.5491 
        3.66003         68.4443         5.49212 
        3.67578          67.855         5.43597 
        3.69146         67.1497         5.38083 
        3.70712         66.4366         5.32657 
        3.72284         66.0663         5.27286 
        3.73853         65.2329         5.21999 
        3.75422         64.7547         5.16784 
        3.76993         64.0731         5.11637 
        3.78564         63.4721         5.06562 
        3.80137         62.7848          5.0155 
        3.81707         62.4063         4.96616 
        3.83279          61.889         4.91745 
        3.84853         61.2549         4.86933 
        3.86424         60.7759         4.82195 
        3.87992         60.1851         4.77528 
        3.89561         59.7383         4.72924 
        3.91134         59.0546         4.68371 
        3.92704         58.5261         4.63885 
        3.94273          58.019         4.59462 
        3.95845         57.5064          4.5509 
        3.97418         56.9537         4.50774 
        3.98988         56.5833         4.46521 
        4.00554         55.7998         4.42335 
        4.02125         55.3563         4.38192 
        4.03698         54.9333         4.34095 
        4.05268         54.4567         4.30061 
        4.06839         54.0605         4.26076 
         4.0841         53.6894         4.22144 
        4.09983         53.1246         4.18256 
        4.11555         52.6429         4.14419 
        4.13124         52.0937         4.10641 
        4.14693         51.9787         4.06908 
        4.16266         51.3033         4.03214 
        4.17839          50.798         3.99567 
        4.19408          50.374         3.95975 
        4.20977         49.8909         3.92426 
        4.22551         49.4544         3.88913 
        4.24123         49.1606         3.85446 
        4.25691         48.5373         3.82032 
        4.27259         48.3496         3.78659 
        4.28831         47.8689          3.7532 
        4.30404         47.5277         3.72019 
        4.31974         47.1537         3.68765 
        4.33543         46.6228         3.65552 
        4.35116         46.2569         3.62371 
        4.36688         45.9655         3.59229 
        4.38255         45.6485         3.56136 
        4.39825         45.0698         3.53074 
        4.41398         44.7941         3.50041 
         4.4297         44.3698         3.47049 
        4.44541         43.9804         3.44092 
        4.46111         43.6363         3.41172 
        4.47683         43.4093         3.38284 
        4.49251         43.0315         3.35437 
        4.50819         42.6172         3.32623 
         4.5239         42.2033         3.29837 
        4.53962         41.8427         3.27081 
        4.55535         41.6315         3.24355 
        4.57106         41.2565         3.21664 
        4.58678         40.8951         3.19004 
         4.6025         40.5626         3.16374 
        4.61821           40.15         3.13774 
        4.63391         39.7712         3.11207 
         4.6496         39.5578          3.0867 
        4.66532         39.2843         3.06158 
        4.68103         38.9412         3.03675 
        4.69673         38.5755         3.01222 
        4.71241         38.3935           2.988 
        4.72811         38.0577           2.964 
        4.74384         37.7315         2.94024 
        4.75955         37.4015         2.91678 
        4.77525         37.0806         2.89359 
        4.79096         36.8484         2.87063 
        4.80669         36.5325          2.8479 
         4.8224         36.2128         2.82546 
        4.83809         35.9972         2.80328 
        4.85379         35.6449         2.78133 
         4.8695         35.4083          2.7596 
        4.88521         35.1346         2.73811 
        4.90093         34.8473         2.71686 
        4.91663         34.5566         2.69585 
        4.93234         34.3876         2.67504 
        4.94807         34.0895         2.65444 
        4.96377         33.7577          2.6341 
        4.97943         33.5256         2.61402 
        4.99514         33.2342         2.59409 
        5.01086         33.0236         2.57437 
        5.02654         32.8084          2.5549 
        5.04227          32.515         2.53557 
          5.058         32.3246         2.51644 
        5.07371         32.0634         2.49755 
        5.08942         31.8168         2.47885 
        5.10513         31.5554         2.46035 
        5.12084         31.3731         2.44202 
        5.13656         31.0886         2.42389 
        5.15225         30.8772         2.40597 
        5.16796         30.6249         2.38821 
        5.18369         30.3322         2.37062 
         5.1994         30.1605         2.35323 
        5.21509         29.8987         2.33604 
        5.23079           29.73           2.319 
        5.24649         29.4314         2.30215 
        5.26217         29.2892         2.28548 
        5.27788         29.0155         2.26895 
        5.29359         28.8038         2.25258 
        5.30933         28.5767         2.23636 
        5.32504         28.4967         2.22032 
        5.34073         28.2178         2.20446 
        5.35646         27.9848         2.18872 
        5.37218         27.7434         2.17314 
        5.38789         27.6102         2.15774 
        5.40357         27.3144          2.1425 
        5.41929         27.1598         2.12738 
        5.43502         26.9601          2.1124 
         5.4507         26.7782         2.09761 
        5.46639         26.5644         2.08296 
        5.48212         26.4143         2.06842 
        5.49786         26.1584         2.05399 
        5.51353         25.9889         2.03978 
        5.52921         25.7674          2.0257 
        5.54495         25.5821          2.0117 
        5.56066         25.4912         1.99785 
        5.57637         25.2296         1.98414 
        5.59207         25.1263         1.97057 
        5.60778         24.8755         1.95712 
        5.62346         24.7352         1.94382 
        5.63916         24.4958         1.93063 
        5.65487         24.4068         1.91756 
         5.6706         24.1854          1.9046 
        5.68633          24.045         1.89175 
        5.70203         23.8237         1.87905 
        5.71773         23.6683         1.86647 
        5.73344         23.5148           1.854 
        5.74916         23.3606         1.84163 
        5.76486         23.2059         1.82939 
        5.78054         23.0023         1.81729 
        5.79626         22.8593         1.80526 
          5.812         22.6896         1.79333 
         5.8277           22.52         1.78154 
        5.84339         22.3617         1.76986 
        5.85911         22.2202         1.75827 
        5.87484         22.0532         1.74678 
        5.89053         21.8451         1.73542 
        5.90623         21.7839         1.72415 
        5.92195          21.614         1.71297 
        5.93767         21.4417         1.70189 
        5.95336         21.3343         1.69093 
        5.96905         21.1545         1.68008 
        5.98476         21.0163          1.6693 
        6.00048         20.8876         1.65862 
        6.01617         20.6656         1.64804 
        6.03185         20.5775         1.63757 
        6.04756         20.4295         1.62717 
        6.06331         20.2972         1.61684 
        6.07903         20.1889         1.60662 
        6.09473          20.016          1.5965 
        6.11044         19.8899         1.58645 
        6.12616         19.7734          1.5765 
        6.14186         19.6293         1.56664 
        6.15755          19.517         1.55687 
        6.17326         19.3978         1.54718 
        6.18898         19.2177         1.53756 
        6.20467         19.1078         1.52805 
        6.22036         18.9275         1.51862 
         6.2361         18.8502         1.50924 
         6.2518         18.7605         1.49996 
        6.26748           18.59         1.49077 
        6.28319         18.4531         1.48164 
        6.29893         18.2996         1.47258 
        6.31463         18.2242         1.46361 
        6.33033         18.0826         1.45472 
        6.34604         17.9942          1.4459 
        6.36177         17.8582         1.43714 
        6.37747         17.7374         1.42847 
