# k  (h/Mpc)    Pcb(k)  (Mpc/h)^3    Pcb_linear(k) (Mpc/h)^3   ShotnoiseSubtracted = true
      0.0200456         10624.7         10802.7 
      0.0350414         8433.15          8245.4 
      0.0492313         6138.22         6213.36 
      0.0637834         5117.21         5333.92 
      0.0800726         4098.24         4303.86 
       0.096163         3236.34         3163.37 
       0.111083         2688.48         2584.82 
       0.126058         2274.84         2333.99 
       0.142273         1965.65         1981.36 
       0.158546         1623.98         1575.86 
        0.17375         1441.06         1354.95 
       0.188953         1342.71         1242.94 
       0.204907         1150.75         1099.48 
       0.220756         1034.76         933.537 
        0.23588         926.156         824.141 
         0.2514         836.079         757.391 
       0.267535         811.862         685.924 
       0.283568         712.377         606.273 
       0.299022         681.295         545.707 
       0.314451          689.58         503.346 
       0.330372         596.055         462.972 
       0.346141         554.298         421.068 
       0.361624         531.255         385.238 
       0.377134         497.625          357.05 
       0.392932         484.844         331.624 
       0.408854         461.564         306.443 
       0.424564         446.421         283.736 
       0.440253         405.147         264.533 
       0.455999         389.058         247.435 
       0.471626          390.53         231.383 
        0.48727         371.948         216.491 
       0.502856         341.981         203.243 
       0.518488         343.467         191.305 
       0.534347         319.383         180.056 
       0.550082         311.597         169.666 
       0.565732         309.681         160.207 
       0.581496         294.255         151.506 
       0.597222         286.798          143.46 
       0.612804         279.863         136.031 
       0.628434         269.134         129.108 
       0.644267         258.095         122.626 
       0.660051         253.527         116.625 
       0.675724         251.748         111.066 
       0.691403         244.232         105.868 
       0.707174         236.446         100.978 
       0.722871         233.133         96.4201 
        0.73838         231.146         92.1964 
       0.754018          218.64         88.1972 
       0.769845         218.213         84.3949 
        0.78569         213.261         80.8169 
       0.801365         207.937         77.4852 
       0.817031         202.198         74.3472 
       0.832809          199.65         71.3664 
       0.848511         195.027         68.5657 
       0.864097         191.005         65.9375 
       0.879701         189.438         63.4472 
       0.895507         184.445         61.0585 
       0.911279         179.634         58.8001 
        0.92691          177.27         56.6768 
       0.942635         174.724         54.6486 
       0.958396         171.304         52.7171 
       0.974128         167.607         50.8842 
       0.989692          163.96         49.1581 
        1.00528         162.186          47.511 
        1.02113          158.37         45.9147 
        1.03692         156.978         44.3991 
        1.05264         154.801         42.9601 
        1.06832         151.361         41.5882 
        1.08405         149.338         40.2736 
        1.09979         148.504         39.0161 
        1.11537         144.821         37.8257 
        1.13105         143.535         36.6787 
        1.14679         140.723         35.5757 
        1.16256         138.613         34.5167 
        1.17828         136.704         33.5051 
        1.19395         133.138         32.5381 
         1.2097             133          31.605 
        1.22537          129.89         30.7137 
          1.241         129.223           29.86 
        1.25666         125.446         29.0372 
        1.27241         123.597          28.242 
        1.28819         122.754         27.4758 
        1.30392         120.181         26.7408 
        1.31957         118.855         26.0363 
        1.33529         117.526         25.3551 
        1.35108         116.498          24.696 
        1.36674         114.342         24.0654 
         1.3824         113.647         23.4578 
        1.39811          110.68         22.8694 
        1.41389         109.819         22.2994 
        1.42964         107.865           21.75 
        1.44531         106.785         21.2221 
        1.46101         105.417          20.711 
        1.47667         104.398         20.2184 
        1.49229         103.385         19.7435 
        1.50793          101.55         19.2835 
        1.52367         100.819         18.8354 
        1.53953         98.8434         18.3988 
        1.55526         97.5409         17.9798 
        1.57092         97.2402         17.5757 
        1.58662          95.724         17.1833 
        1.60235         94.1289         16.8023 
        1.61809         93.2442         16.4329 
        1.63369         91.6618          16.078 
        1.64941         91.6486         15.7312 
        1.66519         89.5236         15.3936 
        1.68085         88.8816         15.0684 
        1.69652         86.8951         14.7527 
        1.71228         86.4785         14.4443 
        1.72806         85.5786         14.1447 
        1.74368         84.2402         13.8567 
        1.75933         83.6364         13.5763 
        1.77505         82.7612         13.3024 
        1.79081         81.4127         13.0357 
         1.8065         81.0322         12.7776 
        1.82218         78.9165         12.5268 
        1.83797         78.6436         12.2812 
        1.85367          77.639         12.0435 
        1.86928         76.8846         11.8137 
        1.88497         75.8114         11.5887 
        1.90073         74.8784         11.3688 
        1.91647          73.979          11.155 
        1.93218         73.4067         10.9471 
        1.94787         72.4435          10.745 
        1.96363         71.3019         10.5472 
        1.97935         70.7138         10.3548 
        1.99499          70.064         10.1685 
        2.01064         69.2829         9.98648 
         2.0264         68.2813         9.80786 
        2.04216         67.4925         9.63377 
        2.05781         66.6359         9.46506 
        2.07353         65.8033         9.29985 
        2.08928         65.2379         9.13829 
        2.10499         64.5277         8.98104 
        2.12065         64.0022         8.82803 
        2.13633         63.2981          8.6785 
        2.15211          62.338         8.53151 
        2.16785         61.4913         8.38839 
        2.18349         60.7956          8.2495 
        2.19916         60.1169         8.11351 
        2.21489         59.6273         7.98017 
        2.23063         58.6675         7.84979 
         2.2463         58.2911         7.72294 
        2.26194         57.6878         7.59925 
        2.27765         56.9157         7.47768 
        2.29341         56.0554         7.35849 
        2.30914         55.5244         7.24218 
        2.32486         54.9298         7.12848 
        2.34061          54.482         7.01707 
        2.35635         53.6986         6.90817 
        2.37203         53.3178         6.80199 
        2.38768         52.6154          6.6983 
        2.40339         52.1301         6.59642 
        2.41914         51.5854         6.49646 
        2.43483         50.6876         6.39894 
         2.4505         50.3106         6.30362 
        2.46622         49.9408         6.20994 
        2.48195         49.2761         6.11819 
        2.49759         48.7267          6.0288 
        2.51328         48.2633           5.941 
        2.52906         47.7021          5.8544 
        2.54479         47.2995         5.76989 
        2.56049         46.6666         5.68722 
        2.57618           46.22         5.60627 
        2.59189           45.66          5.5268 
        2.60758         45.2204         5.44901 
        2.62325         44.8028         5.37283 
        2.63898         44.3211         5.29787 
        2.65468         43.9001         5.22451 
        2.67044         43.4457         5.15225 
        2.68618            43.1         5.08153 
        2.70184         42.4588         5.01245 
        2.71755         42.1222         4.94449 
        2.73329         41.4325         4.87771 
        2.74897         41.1047         4.81239 
        2.76462          40.668         4.74844 
        2.78034         40.4001         4.68539 
        2.79607         39.8008         4.62344 
        2.81179          39.454         4.56269 
        2.82749         39.0669         4.50312 
        2.84321         38.6796         4.44456 
        2.85893         38.3041         4.38708 
        2.87462         37.8226         4.33072 
        2.89033         37.5337         4.27531 
        2.90605          37.246         4.22084 
        2.92176         36.9238         4.16735 
        2.93747         36.3948         4.11484 
        2.95318         36.0879         4.06323 
        2.96891         35.7927         4.01249 
        2.98456         35.3049         3.96285 
        3.00023         34.9414           3.914 
        3.01596         34.6618         3.86582 
        3.03164         34.3071         3.81861 
        3.04738         33.9833         3.77205 
         3.0631         33.7218          3.7263 
        3.07883         33.2494         3.68131 
        3.09456         32.9154         3.63709 
        3.11026         32.4923         3.59366 
        3.12596         32.1951         3.55096 
        3.14163         31.9374         3.50907 
        3.15734         31.6442         3.46776 
        3.17308         31.3435         3.42702 
        3.18879          31.008         3.38706 
        3.20447         30.6933          3.3478 
         3.2202         30.3475         3.30905 
         3.2359         30.1259         3.27099 
        3.25157          29.826         3.23362 
        3.26729         29.5506         3.19674 
        3.28304         29.1677         3.16036 
        3.29877         28.9708         3.12461 
        3.31446         28.5885          3.0895 
        3.33014         28.3546         3.05496 
        3.34585         28.1192          3.0209 
        3.36158         27.8368         2.98732 
        3.37727          27.603         2.95436 
        3.39294         27.2968         2.92194 
        3.40867         27.0613         2.88989 
        3.42439          26.811         2.85834 
        3.44008         26.5344         2.82734 
        3.45578         26.3818         2.79677 
        3.47153         25.9975          2.7666 
        3.48724          25.822         2.73693 
        3.50292         25.4926         2.70777 
        3.51859         25.3075         2.67906 
        3.53431         25.0516         2.65067 
        3.55007         24.8394         2.62264 
        3.56577         24.6298         2.59512 
        3.58146         24.3783         2.56802 
        3.59719         24.1825         2.54124 
        3.61292         23.9572         2.51487 
        3.62859         23.6553         2.48897 
        3.64429         23.4883         2.46339 
        3.66003         23.3412         2.43809 
        3.67578         23.1207         2.41317 
        3.69146         22.7977         2.38869 
        3.70712         22.6494          2.3646 
        3.72284          22.429         2.34076 
        3.73853         22.2298         2.31729 
        3.75422          21.946         2.29414 
        3.76993         21.8959         2.27129 
        3.78564         21.6933         2.24876 
        3.80137          21.438         2.22651 
        3.81707         21.2084         2.20461 
        3.83279         21.0528         2.18298 
        3.84853          20.882         2.16162 
        3.86424         20.6408         2.14059 
        3.87992         20.4484         2.11987 
        3.89561         20.2753         2.09943 
        3.91134         20.1108         2.07922 
        3.92704         19.9449          2.0593 
        3.94273         19.7596         2.03967 
        3.95845         19.5331         2.02026 
        3.97418         19.3728          2.0011 
        3.98988         19.2351         1.98222 
        4.00554         19.1415         1.96364 
        4.02125         18.8091         1.94525 
        4.03698         18.7134         1.92706 
        4.05268         18.5569         1.90915 
        4.06839         18.4096         1.89146 
         4.0841          18.263           1.874 
        4.09983         18.0354         1.85674 
        4.11555         17.9042         1.83971 
        4.13124         17.7532         1.82294 
        4.14693         17.6505         1.80637 
        4.16266         17.4658         1.78997 
        4.17839         17.3155         1.77378 
        4.19408         17.1236         1.75784 
        4.20977         17.0233         1.74208 
        4.22551         16.8309         1.72648 
        4.24123          16.713          1.7111 
        4.25691         16.5641         1.69594 
        4.27259         16.4342         1.68097 
        4.28831          16.326         1.66614 
        4.30404         16.1719         1.65149 
        4.31974          16.007         1.63704 
        4.33543         15.8631         1.62278 
        4.35116         15.7462         1.60866 
        4.36688         15.6183         1.59471 
        4.38255         15.4633         1.58098 
        4.39825         15.3645         1.56738 
        4.41398         15.2326         1.55392 
         4.4297         15.0904         1.54064 
        4.44541         14.9373         1.52751 
        4.46111         14.8802         1.51455 
        4.47683         14.7299         1.50173 
        4.49251         14.6033         1.48909 
        4.50819         14.4848          1.4766 
         4.5239         14.3786         1.46423 
        4.53962         14.2365           1.452 
        4.55535         14.1409         1.43989 
        4.57106         14.0052         1.42795 
        4.58678         13.9056         1.41614 
         4.6025         13.7827         1.40446 
        4.61821         13.6807         1.39292 
        4.63391         13.5364         1.38153 
         4.6496         13.4635         1.37026 
        4.66532         13.3165         1.35911 
        4.68103         13.2594         1.34809 
        4.69673         13.1173          1.3372 
        4.71241         13.0336         1.32645 
        4.72811         12.9447          1.3158 
        4.74384         12.8149         1.30525 
        4.75955         12.7237         1.29483 
        4.77525         12.6228         1.28454 
        4.79096         12.5057         1.27434 
        4.80669         12.4326         1.26426 
         4.8224         12.3505         1.25429 
        4.83809         12.2455         1.24445 
        4.85379         12.1515          1.2347 
         4.8695         12.0318         1.22506 
        4.88521         11.9526         1.21552 
        4.90093          11.866         1.20608 
        4.91663         11.7681         1.19676 
        4.93234         11.6794         1.18752 
        4.94807         11.6037         1.17837 
        4.96377         11.5062         1.16934 
        4.97943         11.4045         1.16043 
        4.99514         11.2929         1.15158 
        5.01086         11.2562         1.14283 
        5.02654         11.1423         1.13418 
        5.04227         11.0404         1.12561 
          5.058         10.9683         1.11711 
        5.07371          10.893         1.10873 
        5.08942         10.8119         1.10043 
        5.10513         10.7439         1.09221 
        5.12084         10.6585         1.08408 
        5.13656          10.563         1.07603 
        5.15225         10.5014         1.06807 
        5.16796         10.4171         1.06019 
        5.18369         10.3173         1.05238 
         5.1994         10.2573         1.04466 
        5.21509         10.1916         1.03703 
        5.23079         10.0751         1.02946 
        5.24649         10.0232         1.02198 
        5.26217         9.93692         1.01458 
        5.27788         9.89461         1.00724 
        5.29359         9.79577         0.99998 
        5.30933         9.74741        0.992776 
        5.32504         9.65186        0.985657 
        5.34073         9.59525        0.978616 
        5.35646         9.50157        0.971631 
        5.37218         9.45384        0.964713 
        5.38789         9.36697        0.957874 
        5.40357         9.31693        0.951111 
        5.41929         9.24751        0.944399 
        5.43502         9.18279        0.937751 
         5.4507         9.10267        0.931184 
        5.46639         9.04757         0.92468 
        5.48212         8.98751        0.918223 
        5.49786         8.91376        0.911821 
        5.51353         8.85467        0.905513 
        5.52921         8.80072        0.899258 
        5.54495         8.73755        0.893046 
        5.56066         8.67475        0.886899 
        5.57637         8.60322        0.880811 
        5.59207         8.54707        0.874787 
        5.60778         8.47662        0.868818 
        5.62346         8.42009        0.862913 
        5.63916         8.35667        0.857058 
        5.65487         8.30788        0.851255 
         5.6706         8.24702          0.8455 
        5.68633         8.18126        0.839797 
        5.70203         8.13634        0.834158 
        5.71773         8.08992        0.828573 
        5.73344         8.03476        0.823037 
        5.74916         7.98096        0.817546 
        5.76486         7.91791        0.812114 
        5.78054          7.8375         0.80674 
        5.79626         7.80678        0.801401 
          5.812         7.75127        0.796104 
         5.8277          7.6904        0.790872 
        5.84339         7.65148        0.785688 
        5.85911          7.5942         0.78054 
        5.87484         7.53573         0.77544 
        5.89053         7.47345        0.770396 
        5.90623         7.42181        0.765396 
        5.92195         7.38807        0.760431 
        5.93767         7.33666        0.755514 
        5.95336         7.27192        0.750649 
        5.96905         7.25272        0.745829 
        5.98476         7.19885        0.741046 
        6.00048         7.13577        0.736303 
        6.01617         7.09455        0.731608 
        6.03185          7.0505        0.726961 
        6.04756         6.99033        0.722343 
        6.06331         6.95061        0.717756 
        6.07903         6.91748        0.713219 
        6.09473         6.87327        0.708726 
        6.11044         6.82346        0.704268 
        6.12616         6.77235         0.69985 
        6.14186         6.72934        0.695474 
        6.15755         6.68875        0.691136 
        6.17326         6.64186        0.686833 
        6.18898         6.59975        0.682564 
        6.20467         6.55248         0.67834 
        6.22036          6.5125        0.674153 
         6.2361         6.47051        0.669989 
         6.2518         6.41417        0.665869 
        6.26748         6.37759        0.661792 
        6.28319         6.33228        0.657739 
        6.29893         6.30778        0.653716 
        6.31463         6.27011        0.649735 
        6.33033         6.22368        0.645788 
        6.34604         6.18186        0.641871 
        6.36177         6.14325        0.637984 
        6.37747         6.10354        0.634137 
