# k  (h/Mpc)    Pcb(k)  (Mpc/h)^3    Pcb_linear(k) (Mpc/h)^3   ShotnoiseSubtracted = true
      0.0200456         16394.4         16697.2 
      0.0350414         13068.7         12744.5 
      0.0492313         9404.74         9603.71 
      0.0637834         7810.52         8244.39 
      0.0800726         6236.71         6652.28 
       0.096163         4997.56         4889.47 
       0.111083         4156.16         3995.24 
       0.126058         3486.85         3607.54 
       0.142273         3044.07          3062.5 
       0.158546         2517.16         2435.74 
        0.17375         2257.86         2094.28 
       0.188953         2132.59         1921.15 
       0.204907         1838.51         1699.41 
       0.220756         1660.81         1442.93 
        0.23588         1490.19         1273.84 
         0.2514         1350.82         1170.66 
       0.267535         1311.42          1060.2 
       0.283568         1163.31         937.088 
       0.299022         1115.91         843.474 
       0.314451         1153.93         777.999 
       0.330372         1011.43         715.595 
       0.346141         934.315         650.825 
       0.361624         898.808         595.445 
       0.377134         856.973         551.876 
       0.392932         827.419         512.576 
       0.408854         789.609         473.656 
       0.424564         771.074         438.559 
       0.440253         711.267         408.876 
       0.455999         681.911         382.448 
       0.471626         694.996         357.637 
        0.48727         658.465          334.62 
       0.502856         619.544         314.144 
       0.518488         613.081         295.692 
       0.534347         578.047         278.304 
       0.550082         555.675         262.244 
       0.565732         551.595         247.624 
       0.581496         539.559         234.176 
       0.597222         524.554         221.739 
       0.612804         514.532         210.257 
       0.628434         493.405         199.557 
       0.644267         477.096         189.538 
       0.660051          470.62         180.262 
       0.675724         463.918         171.669 
       0.691403         452.065         163.635 
       0.707174         436.315         156.077 
       0.722871         428.989         149.032 
        0.73838         424.365         142.504 
       0.754018         410.278         136.322 
       0.769845         406.378         130.445 
        0.78569         398.749         124.915 
       0.801365         386.742         119.765 
       0.817031          381.42         114.915 
       0.832809         376.816         110.308 
       0.848511         367.929         105.979 
       0.864097         359.985         101.917 
       0.879701         356.534         98.0675 
       0.895507         345.684         94.3754 
       0.911279         338.669         90.8846 
        0.92691         335.927         87.6028 
       0.942635         333.874         84.4678 
       0.958396          322.83         81.4824 
       0.974128         319.145         78.6493 
       0.989692          307.43         75.9814 
        1.00528         307.138         73.4355 
        1.02113         302.124         70.9683 
        1.03692         295.757         68.6256 
        1.05264         291.514         66.4014 
        1.06832         289.835         64.2809 
        1.08405         282.919         62.2491 
        1.09979          280.14         60.3054 
        1.11537         273.085         58.4655 
        1.13105         269.182         56.6927 
        1.14679         266.476         54.9878 
        1.16256         263.576         53.3509 
        1.17828         259.603         51.7873 
        1.19395         252.889         50.2926 
         1.2097         252.756         48.8504 
        1.22537         249.314         47.4727 
          1.241         243.671         46.1532 
        1.25666         240.583         44.8814 
        1.27241          236.19         43.6524 
        1.28819         233.342         42.4681 
        1.30392         229.797          41.332 
        1.31957         224.756         40.2432 
        1.33529         221.898         39.1902 
        1.35108         220.247         38.1714 
        1.36674         215.914         37.1968 
         1.3824         213.697         36.2576 
        1.39811           210.8         35.3482 
        1.41389         206.221         34.4671 
        1.42964         204.141          33.618 
        1.44531         201.341         32.8021 
        1.46101         197.943          32.012 
        1.47667         195.626         31.2507 
        1.49229         193.065         30.5166 
        1.50793          190.15         29.8056 
        1.52367          188.07         29.1131 
        1.53953         183.822         28.4383 
        1.55526          183.23         27.7905 
        1.57092         180.916          27.166 
        1.58662         176.473         26.5595 
        1.60235         174.748         25.9706 
        1.61809         171.724         25.3996 
        1.63369         169.911          24.851 
        1.64941          168.58          24.315 
        1.66519         165.466         23.7932 
        1.68085         162.955         23.2906 
        1.69652         160.895         22.8025 
        1.71228         159.193          22.326 
        1.72806         157.188         21.8628 
        1.74368         155.294         21.4177 
        1.75933         153.601         20.9842 
        1.77505          150.86         20.5609 
        1.79081          148.58         20.1487 
         1.8065         146.556         19.7498 
        1.82218          144.46         19.3622 
        1.83797         143.967         18.9824 
        1.85367         141.239         18.6151 
        1.86928         139.729         18.2599 
        1.88497         138.103         17.9122 
        1.90073          136.62         17.5723 
        1.91647         134.379         17.2417 
        1.93218         133.009         16.9205 
        1.94787         130.929          16.608 
        1.96363         129.997         16.3023 
        1.97935         128.235          16.005 
        1.99499          127.21         15.7169 
        2.01064         124.524         15.4356 
         2.0264         123.392         15.1596 
        2.04216         121.315         14.8905 
        2.05781         120.275         14.6297 
        2.07353         118.425         14.3744 
        2.08928         117.085         14.1246 
        2.10499         115.689         13.8816 
        2.12065          115.06         13.6451 
        2.13633         113.715          13.414 
        2.15211         111.942         13.1868 
        2.16785         110.187         12.9656 
        2.18349         108.587         12.7509 
        2.19916         107.751         12.5407 
        2.21489         106.593         12.3346 
        2.23063         105.006         12.1331 
         2.2463         104.057          11.937 
        2.26194         102.478         11.7458 
        2.27765         101.346         11.5579 
        2.29341         100.364         11.3737 
        2.30914         99.1997         11.1939 
        2.32486         97.6237         11.0182 
        2.34061          96.712          10.846 
        2.35635         95.4914         10.6776 
        2.37203         94.1776         10.5135 
        2.38768         93.3354         10.3533 
        2.40339         92.5681         10.1958 
        2.41914         90.9639         10.0413 
        2.43483         90.0729         9.89055 
         2.4505          89.173         9.74322 
        2.46622          88.164         9.59843 
        2.48195         87.0061         9.45661 
        2.49759         85.9283         9.31845 
        2.51328         85.2208         9.18273 
        2.52906         83.4908         9.04888 
        2.54479         82.6849         8.91825 
        2.56049         81.8523         8.79048 
        2.57618          80.922         8.66536 
        2.59189         80.2563         8.54252 
        2.60758         79.1706         8.42229 
        2.62325         78.4681         8.30454 
        2.63898         77.4886         8.18867 
        2.65468         76.5932         8.07529 
        2.67044         75.7227         7.96359 
        2.68618         74.9305         7.85429 
        2.70184         73.7568         7.74751 
        2.71755         73.0519         7.64248 
        2.73329          72.145         7.53925 
        2.74897         71.5895          7.4383 
        2.76462         70.9513         7.33944 
        2.78034         70.0626         7.24199 
        2.79607         69.3045         7.14624 
        2.81179         68.5083         7.05235 
        2.82749         67.9022         6.96027 
        2.84321         67.1889         6.86976 
        2.85893         66.4516          6.7809 
        2.87462         65.6537         6.69379 
        2.89033         64.8497         6.60815 
        2.90605         64.4029         6.52396 
        2.92176         63.4962         6.44129 
        2.93747         62.6576         6.36012 
        2.95318         62.2589         6.28034 
        2.96891         61.4642         6.20192 
        2.98456         60.7802          6.1252 
        3.00023         60.1532         6.04968 
        3.01596         59.6686         5.97522 
        3.03164         59.1502         5.90224 
        3.04738         58.3182         5.83029 
         3.0631         57.6517         5.75957 
        3.07883         57.1323         5.69004 
        3.09456         56.4029         5.62168 
        3.11026          55.758         5.55456 
        3.12596         55.4446         5.48856 
        3.14163         54.6189          5.4238 
        3.15734         54.1296         5.35995 
        3.17308         53.6201         5.29699 
        3.18879         53.0478         5.23522 
        3.20447         52.4873         5.17454 
         3.2202         51.9301         5.11464 
         3.2359         51.5684         5.05582 
        3.25157         50.8952         4.99807 
        3.26729         50.4619         4.94105 
        3.28304         50.0136         4.88483 
        3.29877         49.2832         4.82957 
        3.31446         49.0552         4.77529 
        3.33014         48.4194         4.72191 
        3.34585         47.9877         4.66927 
        3.36158         47.3635         4.61736 
        3.37727         47.0917         4.56642 
        3.39294         46.5424          4.5163 
        3.40867         46.2039         4.46677 
        3.42439         45.5908         4.41801 
        3.44008         45.2276         4.37008 
        3.45578         44.6277         4.32284 
        3.47153          44.278         4.27621 
        3.48724         43.7233         4.23035 
        3.50292           43.32         4.18528 
        3.51859          43.126         4.14089 
        3.53431          42.545         4.09702 
        3.55007          42.196         4.05369 
        3.56577         41.8299         4.01116 
        3.58146         41.3968         3.96927 
        3.59719         40.8796         3.92789 
        3.61292         40.5027         3.88712 
        3.62859         40.2422         3.84708 
        3.64429         40.0195         3.80755 
        3.66003         39.5083         3.76845 
        3.67578         39.1306         3.72993 
        3.69146         38.7779         3.69209 
        3.70712         38.3751         3.65486 
        3.72284         38.0116           3.618 
        3.73853         37.6951         3.58173 
        3.75422         37.3799         3.54595 
        3.76993         37.0912         3.51063 
        3.78564           36.65         3.47581 
        3.80137         36.3228         3.44141 
        3.81707         35.9329         3.40756 
        3.83279         35.5994         3.37414 
        3.84853         35.2864         3.34112 
        3.86424         35.0178         3.30861 
        3.87992         34.6285         3.27659 
        3.89561         34.4774         3.24499 
        3.91134         34.0306         3.21376 
        3.92704         33.7366         3.18297 
        3.94273         33.4488         3.15263 
        3.95845          33.156         3.12263 
        3.97418         32.7374         3.09301 
        3.98988         32.3876         3.06383 
        4.00554         32.1306         3.03511 
        4.02125         31.9528         3.00668 
        4.03698         31.6428         2.97857 
        4.05268         31.4553         2.95089 
        4.06839         31.0307         2.92355 
         4.0841         30.8681         2.89656 
        4.09983         30.4493         2.86989 
        4.11555         30.2847         2.84356 
        4.13124         30.0717         2.81764 
        4.14693         29.7458         2.79202 
        4.16266         29.5125         2.76667 
        4.17839         29.2631         2.74166 
        4.19408         28.9739         2.71701 
        4.20977         28.6911         2.69266 
        4.22551         28.6181         2.66855 
        4.24123         28.2956         2.64476 
        4.25691          27.989         2.62134 
        4.27259         27.7672         2.59819 
        4.28831         27.5627         2.57528 
        4.30404         27.2976         2.55263 
        4.31974         27.0601          2.5303 
        4.33543          26.885         2.50826 
        4.35116         26.6106         2.48643 
        4.36688         26.4235         2.46487 
        4.38255         26.1775         2.44365 
        4.39825         26.0079         2.42264 
        4.41398         25.7934         2.40183 
         4.4297         25.5608         2.38129 
        4.44541         25.2462         2.36101 
        4.46111         25.1616         2.34097 
        4.47683         24.8558         2.32116 
        4.49251         24.6536         2.30162 
        4.50819         24.4827         2.28231 
         4.5239          24.253          2.2632 
        4.53962         24.0781         2.24428 
        4.55535         23.8395         2.22558 
        4.57106         23.6899         2.20712 
        4.58678         23.4493         2.18886 
         4.6025           23.32         2.17082 
        4.61821         23.0805         2.15298 
        4.63391         22.9406         2.13536 
         4.6496         22.7887         2.11796 
        4.66532         22.5425         2.10072 
        4.68103         22.3594         2.08368 
        4.69673         22.1991         2.06685 
        4.71241         22.0484         2.05023 
        4.72811         21.8152         2.03376 
        4.74384         21.6744         2.01746 
        4.75955         21.4656         2.00136 
        4.77525         21.3302         1.98545 
        4.79096         21.1517          1.9697 
        4.80669         20.9691         1.95411 
         4.8224         20.8097          1.9387 
        4.83809         20.6807         1.92349 
        4.85379         20.4845         1.90843 
         4.8695         20.2421         1.89352 
        4.88521         20.1531         1.87877 
        4.90093         20.0362         1.86419 
        4.91663         19.8185         1.84977 
        4.93234         19.6378         1.83549 
        4.94807         19.5511         1.82136 
        4.96377         19.3707          1.8074 
        4.97943         19.2358         1.79362 
        4.99514          19.088         1.77995 
        5.01086         18.9616         1.76642 
        5.02654         18.8145         1.75306 
        5.04227         18.6355          1.7398 
          5.058         18.5277         1.72667 
        5.07371         18.3453         1.71371 
        5.08942         18.2207         1.70088 
        5.10513          18.103         1.68818 
        5.12084         17.9351         1.67561 
        5.13656         17.8127         1.66317 
        5.15225         17.6547         1.65087 
        5.16796          17.535         1.63869 
        5.18369         17.4226         1.62661 
         5.1994          17.291         1.61468 
        5.21509         17.1678         1.60289 
        5.23079         17.0352          1.5912 
        5.24649         16.9147         1.57963 
        5.26217         16.7567         1.56819 
        5.27788         16.6736         1.55685 
        5.29359         16.5329         1.54562 
        5.30933         16.4054         1.53449 
        5.32504         16.2871         1.52348 
        5.34073         16.1598          1.5126 
        5.35646         16.0402         1.50181 
        5.37218         15.9169         1.49111 
        5.38789         15.7831         1.48054 
        5.40357          15.701         1.47009 
        5.41929         15.6105         1.45971 
        5.43502         15.4402         1.44944 
         5.4507         15.3474         1.43929 
        5.46639          15.235         1.42924 
        5.48212         15.1133         1.41926 
        5.49786         15.0114         1.40936 
        5.51353         14.8943         1.39961 
        5.52921         14.8061         1.38994 
        5.54495         14.7011         1.38034 
        5.56066         14.5913         1.37084 
        5.57637         14.4906         1.36143 
        5.59207         14.3732         1.35212 
        5.60778         14.2485         1.34289 
        5.62346         14.1668         1.33377 
        5.63916         14.0685         1.32472 
        5.65487         13.9718         1.31575 
         5.6706         13.8696         1.30685 
        5.68633          13.777         1.29804 
        5.70203         13.6695         1.28932 
        5.71773         13.5802         1.28069 
        5.73344         13.4781         1.27213 
        5.74916         13.4101         1.26364 
        5.76486         13.2668         1.25525 
        5.78054         13.2023         1.24694 
        5.79626          13.129         1.23869 
          5.812         12.9997          1.2305 
         5.8277         12.9201         1.22242 
        5.84339         12.8309          1.2144 
        5.85911         12.7369         1.20645 
        5.87484         12.6906         1.19856 
        5.89053         12.5575         1.19077 
        5.90623         12.4927         1.18304 
        5.92195         12.3721         1.17536 
        5.93767          12.311         1.16776 
        5.95336         12.2125         1.16024 
        5.96905         12.1266         1.15279 
        5.98476         12.0678          1.1454 
        6.00048         11.9874         1.13807 
        6.01617         11.9004         1.13081 
        6.03185         11.8129         1.12363 
        6.04756         11.7376         1.11649 
        6.06331         11.6512          1.1094 
        6.07903          11.565         1.10239 
        6.09473         11.4886         1.09545 
        6.11044            11.4         1.08856 
        6.12616         11.3409         1.08173 
        6.14186         11.2463         1.07496 
        6.15755         11.1951         1.06826 
        6.17326         11.0888         1.06161 
        6.18898         11.0239         1.05501 
        6.20467         10.9611         1.04848 
        6.22036          10.884         1.04201 
         6.2361         10.8181         1.03557 
         6.2518         10.7533          1.0292 
        6.26748         10.6885          1.0229 
        6.28319          10.591         1.01664 
        6.29893         10.5132         1.01042 
        6.31463         10.4589         1.00427 
        6.33033         10.3988        0.998165 
        6.34604          10.328        0.992111 
        6.36177         10.2578        0.986103 
        6.37747         10.1923        0.980156 
