# k  (h/Mpc)    Pcb(k)  (Mpc/h)^3    Pcb_linear(k) (Mpc/h)^3   ShotnoiseSubtracted = true
      0.0200456         11906.4         12110.4 
      0.0350414          9460.6         9243.56 
      0.0492313         6867.71         6965.53 
      0.0637834         5719.55         5979.62 
      0.0800726         4577.48         4824.87 
       0.096163         3627.66         3546.31 
       0.111083         3014.81         2897.73 
       0.126058         2545.03         2616.53 
       0.142273         2204.41         2221.22 
       0.158546         1822.07         1766.63 
        0.17375         1620.67         1518.97 
       0.188953          1514.9          1393.4 
       0.204907         1300.08         1232.57 
       0.220756         1170.34         1046.55 
        0.23588         1048.29         923.909 
         0.2514          946.54         849.078 
       0.267535         920.083          768.96 
       0.283568         808.997         679.666 
       0.299022         774.814         611.768 
       0.314451         789.034         564.279 
       0.330372         682.874         519.017 
       0.346141         634.312          472.04 
       0.361624         608.742         431.873 
       0.377134         573.104         400.273 
       0.392932         557.126         371.769 
       0.408854         530.815          343.54 
       0.424564         514.486         318.084 
       0.440253         468.374         296.556 
       0.455999         449.966         277.388 
       0.471626         454.182         259.393 
        0.48727         431.712         242.698 
       0.502856         398.411         227.847 
       0.518488         399.733         214.464 
       0.534347         372.016         201.853 
       0.550082          361.75         190.205 
       0.565732         359.855         179.601 
       0.581496         345.036         169.846 
       0.597222         335.682         160.826 
       0.612804         328.005         152.499 
       0.628434         314.879         144.738 
       0.644267         302.432         137.471 
       0.660051          297.69         130.744 
       0.675724         295.385         124.511 
       0.691403         286.526         118.684 
       0.707174         276.874         113.202 
       0.722871         273.175         108.092 
        0.73838         270.848         103.357 
       0.754018         257.639          98.874 
       0.769845         256.767         94.6115 
        0.78569         251.303         90.6003 
       0.801365         245.159         86.8652 
       0.817031         238.721         83.3474 
       0.832809         236.031         80.0058 
       0.848511         230.224          76.866 
       0.864097         225.178         73.9196 
       0.879701         223.832         71.1279 
       0.895507         218.201           68.45 
       0.911279         211.971         65.9182 
        0.92691          210.06         63.5379 
       0.942635         207.699         61.2641 
       0.958396         202.999         59.0988 
       0.974128         198.666          57.044 
       0.989692         193.676          55.109 
        1.00528         192.133         53.2624 
        1.02113         188.386          51.473 
        1.03692         185.518         49.7739 
        1.05264         183.015         48.1606 
        1.06832         180.496         46.6227 
        1.08405         176.746          45.149 
        1.09979         176.016         43.7392 
        1.11537         171.798         42.4047 
        1.13105         169.952         41.1189 
        1.14679         167.187         39.8824 
        1.16256         164.941         38.6952 
        1.17828         162.517         37.5611 
        1.19395         158.261          36.477 
         1.2097         158.093          35.431 
        1.22537         155.311         34.4317 
          1.241         153.453         33.4747 
        1.25666          149.63         32.5523 
        1.27241         146.632         31.6609 
        1.28819          145.55         30.8019 
        1.30392         142.656         29.9779 
        1.31957         140.834         29.1882 
        1.33529          139.42         28.4245 
        1.35108          137.57         27.6856 
        1.36674         135.249         26.9786 
         1.3824         134.653         26.2975 
        1.39811         130.958         25.6379 
        1.41389         130.152         24.9988 
        1.42964         127.585          24.383 
        1.44531         126.294         23.7912 
        1.46101         124.364         23.2182 
        1.47667         123.599          22.666 
        1.49229         122.111         22.1335 
        1.50793          119.86         21.6179 
        1.52367         118.754         21.1156 
        1.53953          116.61         20.6261 
        1.55526         115.401         20.1564 
        1.57092         114.427         19.7034 
        1.58662         112.689         19.2635 
        1.60235         110.669         18.8364 
        1.61809         110.026         18.4222 
        1.63369         107.989         18.0243 
        1.64941         107.906         17.6356 
        1.66519         105.384         17.2571 
        1.68085         104.462         16.8925 
        1.69652         102.489         16.5386 
        1.71228         101.812         16.1929 
        1.72806         100.383          15.857 
        1.74368         98.8132         15.5341 
        1.75933         98.0446         15.2198 
        1.77505         96.9964         14.9128 
        1.79081         95.4857         14.6138 
         1.8065         94.7437         14.3244 
        1.82218         93.0167         14.0433 
        1.83797         92.3764         13.7679 
        1.85367         90.8821         13.5015 
        1.86928          90.056         13.2438 
        1.88497         89.0926         12.9916 
        1.90073         88.0683         12.7451 
        1.91647          86.443         12.5053 
        1.93218         85.6455         12.2723 
        1.94787         84.7636         12.0457 
        1.96363          83.531          11.824 
        1.97935         82.9632         11.6084 
        1.99499         81.8564         11.3994 
        2.01064         80.8964         11.1954 
         2.0264         79.3814         10.9952 
        2.04216         78.8829            10.8 
        2.05781         77.9355         10.6109 
        2.07353         76.7961         10.4257 
        2.08928         76.0198         10.2445 
        2.10499         74.9968         10.0683 
        2.12065         74.5662         9.89671 
        2.13633         73.7713         9.72908 
        2.15211         72.5294          9.5643 
        2.16785          71.441         9.40386 
        2.18349         70.7456         9.24815 
        2.19916         69.9315         9.09569 
        2.21489         69.1307         8.94622 
        2.23063         68.2199         8.80005 
         2.2463         67.6292         8.65785 
        2.26194         66.8571         8.51919 
        2.27765         65.9697          8.3829 
        2.29341         65.1031         8.24928 
        2.30914         64.3191         8.11889 
        2.32486         63.5875         7.99142 
        2.34061         63.1362         7.86653 
        2.35635         62.1533         7.74445 
        2.37203         61.7919         7.62542 
        2.38768         60.8658         7.50917 
        2.40339         60.1646         7.39496 
        2.41914         59.6091         7.28289 
        2.43483         58.7967         7.17357 
         2.4505         58.2033         7.06671 
        2.46622         57.5531          6.9617 
        2.48195          56.938         6.85883 
        2.49759         56.2321         6.75863 
        2.51328         55.7829         6.66019 
        2.52906         55.0566         6.56311 
        2.54479          54.484         6.46836 
        2.56049         53.6657         6.37569 
        2.57618         53.1303         6.28495 
        2.59189         52.7344         6.19585 
        2.60758         51.9536         6.10865 
        2.62325         51.4796         6.02325 
        2.63898           50.95         5.93921 
        2.65468         50.5495         5.85697 
        2.67044         49.8319         5.77596 
        2.68618         49.5078         5.69668 
        2.70184          48.761         5.61923 
        2.71755         48.3759         5.54305 
        2.73329         47.6486         5.46818 
        2.74897         47.3188         5.39496 
        2.76462         46.8298         5.32326 
        2.78034         46.2519         5.25258 
        2.79607         45.7846         5.18313 
        2.81179          45.271         5.11503 
        2.82749         44.8576         5.04825 
        2.84321         44.3785          4.9826 
        2.85893         43.8622         4.91816 
        2.87462         43.2409         4.85498 
        2.89033         43.0037         4.79286 
        2.90605         42.4559         4.73179 
        2.92176         42.1919         4.67184 
        2.93747         41.6994         4.61296 
        2.95318         41.3516          4.5551 
        2.96891         40.9313         4.49822 
        2.98456          40.471         4.44258 
        3.00023         39.9668         4.38781 
        3.01596         39.5802          4.3338 
        3.03164         39.1856         4.28087 
        3.04738         38.8525         4.22868 
         3.0631         38.5991         4.17739 
        3.07883         38.0819         4.12696 
        3.09456         37.5715         4.07738 
        3.11026         37.1999          4.0287 
        3.12596         36.8724         3.98083 
        3.14163         36.4712         3.93386 
        3.15734         36.1614         3.88755 
        3.17308         35.8241         3.84188 
        3.18879         35.4739         3.79708 
        3.20447         35.1372         3.75307 
         3.2202         34.7448         3.70963 
         3.2359         34.3707         3.66696 
        3.25157         34.1816         3.62507 
        3.26729         33.7481         3.58372 
        3.28304         33.3758         3.54295 
        3.29877         33.0177         3.50286 
        3.31446         32.6598          3.4635 
        3.33014         32.3996         3.42478 
        3.34585         32.0968          3.3866 
        3.36158         31.8002         3.34895 
        3.37727         31.5179           3.312 
        3.39294          31.174         3.27565 
        3.40867         30.8332         3.23973 
        3.42439         30.6424         3.20436 
        3.44008         30.3088          3.1696 
        3.45578         30.0887         3.13534 
        3.47153          29.731         3.10151 
        3.48724         29.4076         3.06825 
        3.50292         29.1528         3.03556 
        3.51859          28.822         3.00337 
        3.53431         28.4906         2.97155 
        3.55007          28.309         2.94012 
        3.56577         28.0295         2.90928 
        3.58146         27.8078         2.87889 
        3.59719         27.6037         2.84888 
        3.61292         27.2697         2.81931 
        3.62859         27.0315         2.79027 
        3.64429         26.7472          2.7616 
        3.66003          26.585         2.73324 
        3.67578         26.3375          2.7053 
        3.69146         26.1035         2.67786 
        3.70712         25.7843         2.65085 
        3.72284         25.5951         2.62412 
        3.73853         25.3182         2.59781 
        3.75422         25.0105         2.57186 
        3.76993         24.8705         2.54624 
        3.78564         24.6484         2.52099 
        3.80137         24.4231         2.49604 
        3.81707         24.2626         2.47149 
        3.83279         24.0287         2.44725 
        3.84853         23.8049          2.4233 
        3.86424          23.554         2.39972 
        3.87992         23.2969         2.37649 
        3.89561         23.2069         2.35358 
        3.91134         22.9225         2.33092 
        3.92704         22.7216          2.3086 
        3.94273         22.5204         2.28659 
        3.95845         22.2938         2.26483 
        3.97418         22.0595         2.24335 
        3.98988         21.9674         2.22218 
        4.00554         21.8019         2.20135 
        4.02125         21.4876         2.18073 
        4.03698         21.3497         2.16034 
        4.05268         21.1586         2.14027 
        4.06839         20.9584         2.12044 
         4.0841         20.7634         2.10086 
        4.09983         20.5519         2.08151 
        4.11555         20.4106         2.06242 
        4.13124         20.2666         2.04362 
        4.14693         20.0901         2.02504 
        4.16266         19.9834         2.00666 
        4.17839         19.7386         1.98851 
        4.19408         19.4991         1.97063 
        4.20977          19.365         1.95297 
        4.22551         19.1748         1.93549 
        4.24123         19.0617         1.91823 
        4.25691         18.8148         1.90124 
        4.27259         18.7389         1.88446 
        4.28831          18.553         1.86784 
        4.30404         18.4158         1.85141 
        4.31974         18.3183         1.83522 
        4.33543         18.0791         1.81923 
        4.35116         17.9244          1.8034 
        4.36688         17.7685         1.78776 
        4.38255          17.633         1.77237 
        4.39825         17.4693         1.75713 
        4.41398         17.3629         1.74204 
         4.4297         17.2021         1.72714 
        4.44541         17.0061         1.71243 
        4.46111         16.9186          1.6979 
        4.47683         16.7248         1.68353 
        4.49251         16.5967         1.66935 
        4.50819          16.501         1.65535 
         4.5239         16.3725         1.64149 
        4.53962         16.2203         1.62777 
        4.55535          16.087          1.6142 
        4.57106         15.9547         1.60081 
        4.58678         15.8238         1.58757 
         4.6025          15.713         1.57448 
        4.61821         15.5857         1.56154 
        4.63391         15.4375         1.54877 
         4.6496         15.2677         1.53614 
        4.66532         15.1841         1.52364 
        4.68103         15.0736         1.51129 
        4.69673           14.95         1.49908 
        4.71241         14.8269         1.48702 
        4.72811         14.7191         1.47508 
        4.74384         14.5808         1.46326 
        4.75955          14.452         1.45158 
        4.77525         14.3686         1.44004 
        4.79096         14.2404         1.42861 
        4.80669         14.1379          1.4173 
         4.8224         13.9992         1.40613 
        4.83809         13.9316          1.3951 
        4.85379         13.8037         1.38417 
         4.8695         13.7047         1.37336 
        4.88521         13.5777         1.36267 
        4.90093         13.4857         1.35209 
        4.91663         13.4252         1.34163 
        4.93234           13.31         1.33127 
        4.94807          13.182         1.32102 
        4.96377         13.0968          1.3109 
        4.97943         13.0172         1.30091 
        4.99514         12.8515         1.29099 
        5.01086         12.7655         1.28117 
        5.02654         12.6572         1.27148 
        5.04227         12.5749         1.26187 
          5.058         12.4998         1.25235 
        5.07371         12.3821         1.24295 
        5.08942         12.2906         1.23364 
        5.10513         12.2202         1.22443 
        5.12084         12.1177         1.21531 
        5.13656         12.0484         1.20629 
        5.15225         11.9187         1.19737 
        5.16796         11.8388         1.18853 
        5.18369         11.7449         1.17977 
         5.1994         11.6683         1.17112 
        5.21509         11.5783         1.16257 
        5.23079         11.4805         1.15409 
        5.24649         11.4086          1.1457 
        5.26217         11.3028          1.1374 
        5.27788           11.24         1.12918 
        5.29359         11.1521         1.12103 
        5.30933         11.0755         1.11296 
        5.32504         11.0023         1.10498 
        5.34073         10.9091         1.09708 
        5.35646         10.8191         1.08925 
        5.37218         10.7689          1.0815 
        5.38789         10.6876         1.07383 
        5.40357         10.5933         1.06625 
        5.41929         10.5247         1.05872 
        5.43502         10.4758         1.05127 
         5.4507         10.3636         1.04391 
        5.46639         10.2801         1.03662 
        5.48212          10.213         1.02938 
        5.49786         10.1439          1.0222 
        5.51353          10.077         1.01513 
        5.52921         9.98777         1.00812 
        5.54495           9.907         1.00115 
        5.56066         9.84623        0.994263 
        5.57637         9.78092        0.987439 
        5.59207         9.71198        0.980686 
        5.60778         9.64761        0.973993 
        5.62346         9.58177        0.967374 
        5.63916         9.51848         0.96081 
        5.65487         9.43989        0.954305 
         5.6706          9.3818        0.947853 
        5.68633          9.2949        0.941459 
        5.70203         9.23735        0.935138 
        5.71773         9.18893        0.928877 
        5.73344         9.11643         0.92267 
        5.74916          9.0725        0.916515 
        5.76486         8.98221        0.910425 
        5.78054         8.93149        0.904401 
        5.79626         8.85696        0.898415 
          5.812         8.81418        0.892478 
         5.8277         8.73814        0.886612 
        5.84339         8.68545          0.8808 
        5.85911         8.62615        0.875029 
        5.87484         8.55891        0.869312 
        5.89053         8.49994        0.863658 
        5.90623         8.45459        0.858052 
        5.92195         8.40272        0.852486 
        5.93767         8.33971        0.846974 
        5.95336          8.2767         0.84152 
        5.96905         8.22238        0.836117 
        5.98476         8.16728        0.830754 
        6.00048         8.12573        0.825437 
        6.01617         8.05495        0.820174 
        6.03185          8.0132        0.814964 
        6.04756         7.95812        0.809787 
        6.06331         7.89171        0.804645 
        6.07903          7.8486        0.799559 
        6.09473         7.79652        0.794522 
        6.11044         7.74567        0.789524 
        6.12616         7.68727        0.784571 
        6.14186         7.64384        0.779665 
        6.15755         7.58426        0.774802 
        6.17326         7.54599        0.769978 
        6.18898         7.49384        0.765193 
        6.20467         7.44278        0.760457 
        6.22036         7.38696        0.755763 
         6.2361         7.36008        0.751096 
         6.2518         7.29558        0.746476 
        6.26748         7.24744        0.741906 
        6.28319          7.1979        0.737362 
        6.29893         7.14434        0.732852 
        6.31463         7.10728        0.728389 
        6.33033         7.05357        0.723964 
        6.34604         7.02015        0.719574 
        6.36177         6.98171        0.715216 
        6.37747         6.93892        0.710903 
