# k  (h/Mpc)    Pcb(k)  (Mpc/h)^3    Pcb_linear(k) (Mpc/h)^3   ShotnoiseSubtracted = true
      0.0200456         12551.4         12768.8 
      0.0350414         9978.12          9746.1 
      0.0492313         7233.93         7344.22 
      0.0637834         6021.71         6304.71 
      0.0800726         4817.67         5087.18 
       0.096163         3824.54         3739.12 
       0.111083         3178.95         3055.27 
       0.126058         2680.74         2758.79 
       0.142273         2324.71         2341.98 
       0.158546         1921.81         1862.67 
        0.17375         1711.41         1601.55 
       0.188953         1602.24         1469.16 
       0.204907         1375.98         1299.59 
       0.220756         1239.31         1103.45 
        0.23588         1110.45         974.139 
         0.2514         1002.95         895.239 
       0.267535          975.14         810.766 
       0.283568         858.383         716.617 
       0.299022          822.51         645.028 
       0.314451         839.939         594.958 
       0.330372         727.734         547.235 
       0.346141         675.513         497.704 
       0.361624         648.583         455.353 
       0.377134         612.022         422.035 
       0.392932          594.33         391.981 
       0.408854         566.414         362.217 
       0.424564         549.587         335.378 
       0.440253         501.205         312.679 
       0.455999         481.443         292.469 
       0.471626         487.074         273.495 
        0.48727         462.634         255.893 
       0.502856         427.917         240.235 
       0.518488         428.825         226.124 
       0.534347         399.499         212.827 
       0.550082         387.801         200.546 
       0.565732          385.79         189.365 
       0.581496         371.418         179.081 
       0.597222         361.131          169.57 
       0.612804         353.125         160.789 
       0.628434         338.832         152.606 
       0.644267         325.688         144.945 
       0.660051         320.765         137.852 
       0.675724          318.06          131.28 
       0.691403         308.678         125.136 
       0.707174         298.023         119.356 
       0.722871         294.009         113.969 
        0.73838         291.413         108.977 
       0.754018         277.992         104.249 
       0.769845         276.793         99.7552 
        0.78569         271.098          95.526 
       0.801365         264.446         91.5878 
       0.817031         257.751         87.8787 
       0.832809          254.94         84.3554 
       0.848511         248.518          81.045 
       0.864097         243.032         77.9384 
       0.879701          241.68         74.9949 
       0.895507         235.579         72.1714 
       0.911279         228.796          69.502 
        0.92691         227.009         66.9922 
       0.942635         224.797         64.5948 
       0.958396         219.441         62.3118 
       0.974128         214.869         60.1453 
       0.989692         209.105         58.1051 
        1.00528         207.671         56.1582 
        1.02113         204.015         54.2714 
        1.03692         200.334         52.4799 
        1.05264         197.704          50.779 
        1.06832         195.696         49.1574 
        1.08405         191.051         47.6036 
        1.09979         190.295         46.1172 
        1.11537         185.783         44.7102 
        1.13105         183.511         43.3544 
        1.14679         180.893         42.0507 
        1.16256         178.533         40.7989 
        1.17828          175.96         39.6031 
        1.19395         171.292         38.4602 
         1.2097         171.139         37.3573 
        1.22537         168.671         36.3037 
          1.241         166.037         35.2946 
        1.25666         162.275         34.3221 
        1.27241         158.794         33.3822 
        1.28819         157.586         32.4766 
        1.30392         154.557         31.6077 
        1.31957         152.332         30.7751 
        1.33529         150.874         29.9699 
        1.35108         148.604         29.1908 
        1.36674         146.325         28.4454 
         1.3824         145.581         27.7272 
        1.39811         141.606         27.0318 
        1.41389         140.708         26.3579 
        1.42964         138.007         25.7086 
        1.44531         136.614         25.0847 
        1.46101         134.317         24.4805 
        1.47667         133.657         23.8983 
        1.49229           131.8         23.3369 
        1.50793          129.44         22.7932 
        1.52367         128.132         22.2636 
        1.53953         125.877         21.7475 
        1.55526         124.829         21.2522 
        1.57092         123.384         20.7746 
        1.58662         121.484         20.3108 
        1.60235         119.357         19.8604 
        1.61809         118.662         19.4238 
        1.63369         116.571         19.0043 
        1.64941         116.315         18.5944 
        1.66519          113.67         18.1953 
        1.68085         112.587         17.8109 
        1.69652         110.743         17.4377 
        1.71228         109.921         17.0733 
        1.72806         108.195         16.7191 
        1.74368         106.508         16.3787 
        1.75933          105.66         16.0472 
        1.77505         104.262         15.7235 
        1.79081         102.883         15.4083 
         1.8065         101.788         15.1032 
        1.82218         100.229         14.8068 
        1.83797         99.6044         14.5164 
        1.85367         97.7349         14.2355 
        1.86928         97.0847         13.9639 
        1.88497         95.9701         13.6979 
        1.90073         94.9085          13.438 
        1.91647         93.0507         13.1852 
        1.93218          92.087         12.9395 
        1.94787         91.2135         12.7006 
        1.96363         89.9721         12.4668 
        1.97935         89.3511         12.2395 
        1.99499         88.0864         12.0192 
        2.01064         86.9207         11.8041 
         2.0264         85.3866         11.5929 
        2.04216         84.8661         11.3872 
        2.05781         83.8706         11.1877 
        2.07353         82.6416         10.9925 
        2.08928          81.724         10.8015 
        2.10499         80.5632         10.6156 
        2.12065         80.2043         10.4348 
        2.13633         79.3228          10.258 
        2.15211         77.9845         10.0843 
        2.16785         76.8336         9.91512 
        2.18349         75.9709         9.75095 
        2.19916         75.2108          9.5902 
        2.21489         74.1953          9.4326 
        2.23063         73.3885         9.27848 
         2.2463         72.6764         9.12855 
        2.26194         71.7796         8.98235 
        2.27765         70.8407         8.83865 
        2.29341         69.9684         8.69777 
        2.30914          69.134         8.56029 
        2.32486         68.1071         8.42589 
        2.34061         67.7098         8.29421 
        2.35635          66.723         8.16549 
        2.37203         66.1945         8.03999 
        2.38768         65.2789         7.91742 
        2.40339         64.4059           7.797 
        2.41914         63.9107         7.67884 
        2.43483         63.1687         7.56358 
         2.4505           62.39         7.45091 
        2.46622         61.6764         7.34018 
        2.48195         61.0056         7.23173 
        2.49759          60.293         7.12607 
        2.51328         59.7414         7.02228 
        2.52906         58.9974         6.91993 
        2.54479         58.3335         6.82003 
        2.56049         57.4932         6.72232 
        2.57618         56.8951         6.62664 
        2.59189         56.5309          6.5327 
        2.60758         55.6169         6.44075 
        2.62325         55.1897         6.35071 
        2.63898         54.4946          6.2621 
        2.65468           54.16         6.17539 
        2.67044         53.2844         6.08998 
        2.68618         52.9739         6.00639 
        2.70184         52.1289         5.92473 
        2.71755         51.7428         5.84441 
        2.73329         51.0417         5.76547 
        2.74897         50.5973         5.68827 
        2.76462         50.0894         5.61267 
        2.78034         49.4109         5.53815 
        2.79607          48.873         5.46493 
        2.81179          48.391         5.39312 
        2.82749         47.9327         5.32271 
        2.84321         47.4684         5.25349 
        2.85893         46.8651         5.18554 
        2.87462          46.186         5.11893 
        2.89033         45.9226         5.05344 
        2.90605         45.2763         4.98905 
        2.92176         44.9234         4.92583 
        2.93747         44.4793         4.86376 
        2.95318         44.2125         4.80275 
        2.96891         43.6473         4.74278 
        2.98456         43.1585         4.68411 
        3.00023         42.6556         4.62636 
        3.01596           42.23         4.56942 
        3.03164         41.7222         4.51361 
        3.04738         41.3877         4.45858 
         3.0631         41.1647          4.4045 
        3.07883         40.6242         4.35133 
        3.09456          40.089         4.29905 
        3.11026         39.6366         4.24773 
        3.12596         39.2106         4.19726 
        3.14163         38.8798         4.14773 
        3.15734         38.5857          4.0989 
        3.17308         38.2131         4.05075 
        3.18879          37.738         4.00352 
        3.20447           37.41         3.95711 
         3.2202         37.0085         3.91131 
         3.2359         36.5736         3.86632 
        3.25157         36.3958         3.82216 
        3.26729         35.9251         3.77856 
        3.28304         35.5486         3.73556 
        3.29877          35.139          3.6933 
        3.31446         34.8057          3.6518 
        3.33014         34.4393         3.61097 
        3.34585         34.1713         3.57072 
        3.36158          33.785         3.53103 
        3.37727         33.5362         3.49207 
        3.39294          33.251         3.45374 
        3.40867         32.8355         3.41586 
        3.42439         32.5989         3.37857 
        3.44008         32.2314         3.34192 
        3.45578         31.9968          3.3058 
        3.47153         31.6569         3.27013 
        3.48724         31.3374         3.23506 
        3.50292         31.0484          3.2006 
        3.51859         30.6558         3.16666 
        3.53431         30.2947         3.13311 
        3.55007         30.1504         3.09997 
        3.56577         29.7847         3.06745 
        3.58146         29.5283         3.03541 
        3.59719         29.3577         3.00376 
        3.61292         28.9856         2.97258 
        3.62859         28.7427         2.94197 
        3.64429         28.4017         2.91174 
        3.66003         28.2274         2.88184 
        3.67578         27.9946         2.85238 
        3.69146         27.7617         2.82344 
        3.70712         27.3665         2.79497 
        3.72284          27.191         2.76679 
        3.73853         26.9019         2.73905 
        3.75422         26.5932         2.71168 
        3.76993         26.4063         2.68467 
        3.78564         26.1732         2.65805 
        3.80137         25.9303         2.63174 
        3.81707         25.7308         2.60585 
        3.83279         25.4771          2.5803 
        3.84853         25.2503         2.55504 
        3.86424         24.9933         2.53019 
        3.87992         24.7303          2.5057 
        3.89561         24.6649         2.48154 
        3.91134         24.3574         2.45765 
        3.92704         24.1201         2.43411 
        3.94273         23.9081          2.4109 
        3.95845         23.6796         2.38796 
        3.97418         23.4358         2.36531 
        3.98988          23.281           2.343 
        4.00554         23.1493         2.32103 
        4.02125         22.8496         2.29929 
        4.03698         22.6846          2.2778 
        4.05268         22.4671         2.25663 
        4.06839         22.2817         2.23572 
         4.0841         22.0651         2.21508 
        4.09983         21.8276         2.19468 
        4.11555          21.686         2.17455 
        4.13124         21.5657         2.15473 
        4.14693         21.3479         2.13514 
        4.16266         21.2032         2.11575 
        4.17839         21.0255         2.09662 
        4.19408          20.712         2.07777 
        4.20977         20.5743         2.05915 
        4.22551          20.386         2.04071 
        4.24123         20.2272         2.02252 
        4.25691         20.0266         2.00461 
        4.27259          19.886         1.98691 
        4.28831         19.6914         1.96939 
        4.30404         19.5759         1.95207 
        4.31974         19.4573         1.93499 
        4.33543         19.2274         1.91813 
        4.35116         19.0549         1.90144 
        4.36688         18.8945         1.88495 
        4.38255         18.7269         1.86873 
        4.39825         18.5804         1.85266 
        4.41398         18.4297         1.83675 
         4.4297         18.2688         1.82104 
        4.44541         18.0868         1.80553 
        4.46111         17.9916         1.79021 
        4.47683         17.7945         1.77505 
        4.49251         17.6391         1.76011 
        4.50819          17.529         1.74534 
         4.5239         17.3865         1.73073 
        4.53962         17.2337         1.71627 
        4.55535         17.0861         1.70196 
        4.57106         16.9479         1.68784 
        4.58678         16.8072         1.67389 
         4.6025         16.6736         1.66008 
        4.61821          16.569         1.64644 
        4.63391         16.4148         1.63297 
         4.6496         16.2337         1.61966 
        4.66532         16.1574         1.60648 
        4.68103         16.0306         1.59345 
        4.69673         15.9002         1.58058 
        4.71241         15.7285         1.56787 
        4.72811         15.6318         1.55528 
        4.74384         15.5076         1.54281 
        4.75955         15.3665          1.5305 
        4.77525         15.2433         1.51833 
        4.79096         15.1246         1.50628 
        4.80669         15.0131         1.49436 
         4.8224         14.8953         1.48258 
        4.83809         14.8036         1.47094 
        4.85379         14.6603         1.45943 
         4.8695         14.5344         1.44802 
        4.88521         14.4284         1.43675 
        4.90093         14.3199          1.4256 
        4.91663         14.2421         1.41457 
        4.93234         14.1179         1.40365 
        4.94807         13.9897         1.39284 
        4.96377         13.8879         1.38217 
        4.97943          13.838         1.37163 
        4.99514         13.6579         1.36118 
        5.01086         13.5534         1.35083 
        5.02654          13.452         1.34061 
        5.04227         13.3565         1.33047 
          5.058         13.2738         1.32043 
        5.07371         13.1626         1.31052 
        5.08942         13.0353         1.30071 
        5.10513         12.9625           1.291 
        5.12084         12.8571         1.28138 
        5.13656         12.8006         1.27187 
        5.15225         12.6603         1.26247 
        5.16796         12.5766         1.25315 
        5.18369         12.4694         1.24392 
         5.1994         12.3849         1.23479 
        5.21509         12.3026         1.22577 
        5.23079          12.197         1.21683 
        5.24649         12.1153         1.20799 
        5.26217         12.0034         1.19924 
        5.27788         11.9446         1.19057 
        5.29359         11.8407         1.18198 
        5.30933         11.7843         1.17347 
        5.32504         11.6725         1.16505 
        5.34073         11.5702         1.15673 
        5.35646         11.4961         1.14847 
        5.37218         11.4032         1.14029 
        5.38789         11.3374         1.13221 
        5.40357         11.2577         1.12422 
        5.41929         11.1767         1.11628 
        5.43502         11.1108         1.10843 
         5.4507         11.0031         1.10066 
        5.46639         10.9225         1.09298 
        5.48212          10.851         1.08534 
        5.49786           10.77         1.07778 
        5.51353         10.6992         1.07032 
        5.52921         10.6126         1.06293 
        5.54495         10.5418         1.05558 
        5.56066          10.452         1.04832 
        5.57637         10.3971         1.04112 
        5.59207          10.318           1.034 
        5.60778         10.2439         1.02695 
        5.62346         10.1616         1.01997 
        5.63916         10.1076         1.01305 
        5.65487         10.0229         1.00619 
         5.6706         9.95709        0.999385 
        5.68633         9.87768        0.992643 
        5.70203         9.80801        0.985979 
        5.71773         9.75297        0.979377 
        5.73344         9.69476        0.972833 
        5.74916         9.62417        0.966343 
        5.76486         9.54365        0.959922 
        5.78054         9.48591        0.953571 
        5.79626          9.3956        0.947259 
          5.812         9.35564        0.940999 
         5.8277         9.27743        0.934814 
        5.84339         9.20987        0.928686 
        5.85911         9.16275        0.922602 
        5.87484         9.09026        0.916574 
        5.89053         9.01617        0.910612 
        5.90623         8.96865        0.904701 
        5.92195         8.91435        0.898833 
        5.93767         8.85504        0.893021 
        5.95336         8.79541        0.887271 
        5.96905         8.71906        0.881574 
        5.98476         8.66914        0.875919 
        6.00048         8.61746        0.870313 
        6.01617         8.55429        0.864764 
        6.03185         8.50621        0.859271 
        6.04756         8.43889        0.853813 
        6.06331          8.3939        0.848391 
        6.07903          8.3385        0.843028 
        6.09473         8.29029        0.837717 
        6.11044         8.21608        0.832448 
        6.12616         8.16943        0.827225 
        6.14186         8.12234        0.822053 
        6.15755         8.05857        0.816926 
        6.17326          8.0067        0.811839 
        6.18898         7.96359        0.806794 
        6.20467          7.8951        0.801801 
        6.22036         7.85341        0.796851 
         6.2361         7.80243        0.791931 
         6.2518         7.75312         0.78706 
        6.26748          7.7007        0.782241 
        6.28319         7.65042         0.77745 
        6.29893         7.58627        0.772695 
        6.31463         7.53904        0.767989 
        6.33033         7.49212        0.763324 
        6.34604         7.44794        0.758695 
        6.36177         7.40729          0.7541 
        6.37747         7.35004        0.749552 
