# k  (h/Mpc)    Pcb(k)  (Mpc/h)^3    Pcb_linear(k) (Mpc/h)^3   ShotnoiseSubtracted = true
      0.0200456         2945.83         2990.72 
      0.0350414         2148.22         2174.16 
      0.0492313         1581.68          1579.7 
      0.0637834         1330.44         1313.19 
      0.0800726         1054.72         1042.25 
       0.096163         750.319         756.241 
       0.111083         595.196         603.197 
       0.126058          539.54         534.555 
       0.142273         461.985         452.886 
       0.158546         370.343         357.685 
        0.17375         303.651         301.349 
       0.188953         282.777         272.865 
       0.204907         261.032          241.43 
       0.220756         217.682         204.264 
        0.23588         189.771         177.692 
         0.2514         169.127         161.432 
       0.267535          156.74         146.068 
       0.283568         140.534         128.812 
       0.299022          127.83         114.765 
       0.314451         114.791         104.887 
       0.330372         106.763         96.2225 
       0.346141         96.6471         87.3366 
       0.361624         90.0054          79.377 
       0.377134         84.6341         73.0394 
       0.392932         75.3569         67.5819 
       0.408854         72.5439         62.2974 
       0.424564         68.5673         57.4204 
       0.440253         63.2519         53.2354 
       0.455999         59.5928         49.5963 
       0.471626         55.6336         46.2521 
        0.48727         53.1863         43.1237 
       0.502856         50.0075         40.3134 
       0.518488         47.8316         37.8058 
       0.534347          45.925         35.4746 
       0.550082         42.0311         33.3252 
       0.565732         39.3745         31.3587 
       0.581496         38.4271         29.5577 
       0.597222         37.1411          27.906 
       0.612804         34.7028         26.3872 
       0.628434         33.5176         24.9715 
       0.644267         32.6216          23.648 
       0.660051          30.992         22.4281 
       0.675724          29.409         21.3018 
       0.691403         28.4748         20.2518 
       0.707174         27.5291         19.2667 
       0.722871         26.4267          18.351 
        0.73838         25.4943         17.5047 
       0.754018         24.4683         16.7053 
       0.769845         23.7107         15.9472 
        0.78569         22.9489         15.2354 
       0.801365         22.0901         14.5742 
       0.817031         21.5242         13.9529 
       0.832809         21.0712          13.364 
       0.848511         19.7906         12.8119 
       0.864097         19.4337         12.2949 
       0.879701         18.9274         11.8061 
       0.895507         18.3254         11.3382 
       0.911279         17.8387         10.8968 
        0.92691         17.3616         10.4826 
       0.942635         16.6536         10.0878 
       0.958396         16.2972         9.71258 
       0.974128         15.8271         9.35719 
       0.989692         15.6733         9.02318 
        1.00528         15.2338         8.70505 
        1.02113         14.5991         8.39733 
        1.03692         14.2827         8.10568 
        1.05264         13.9995         7.82929 
        1.06832         13.6623         7.56626 
        1.08405         13.2434         7.31467 
        1.09979         12.9668         7.07442 
        1.11537         12.7439         6.84738 
        1.13105           12.45         6.62898 
        1.14679         12.2524         6.41931 
        1.16256          11.811         6.21833 
        1.17828         11.7773         6.02665 
        1.19395         11.3275         5.84373 
         1.2097         11.1701         5.66749 
        1.22537         10.8755          5.4994 
          1.241         10.7192         5.33866 
        1.25666         10.5051         5.18396 
        1.27241          10.234         5.03469 
        1.28819         10.0302         4.89107 
        1.30392          9.9343         4.75349 
        1.31957         9.73776         4.62182 
        1.33529          9.5595         4.49468 
        1.35108          9.3098         4.37183 
        1.36674         9.26421         4.25446 
         1.3824         8.97811         4.14153 
        1.39811         8.85233         4.03233 
        1.41389         8.71288         3.92666 
        1.42964         8.59898         3.82497 
        1.44531         8.45681         3.72738 
        1.46101         8.25453         3.63301 
        1.47667         8.14902         3.54218 
        1.49229         8.04959         3.45472 
        1.50793         7.87426         3.37012 
        1.52367         7.76172         3.28781 
        1.53953         7.63253         3.20771 
        1.55526         7.52237         3.13092 
        1.57092         7.44003         3.05697 
        1.58662         7.30513         2.98524 
        1.60235         7.19902         2.91567 
        1.61809         7.08393          2.8483 
        1.63369         6.97382         2.78365 
        1.64941         6.87553         2.72056 
        1.66519         6.81174         2.65919 
        1.68085         6.68404         2.60016 
        1.69652         6.57423         2.54291 
        1.71228         6.49118         2.48706 
        1.72806         6.42558         2.43285 
        1.74368         6.30435          2.3808 
        1.75933         6.25204         2.33017 
        1.77505         6.16274         2.28078 
        1.79081         6.03806         2.23273 
         1.8065         6.00643         2.18628 
        1.82218         5.91206          2.1412 
        1.83797         5.86702         2.09708 
        1.85367         5.75419         2.05444 
        1.86928         5.73255         2.01325 
        1.88497         5.61457         1.97297 
        1.90073         5.53676         1.93365 
        1.91647          5.4975         1.89543 
        1.93218         5.42925         1.85832 
        1.94787         5.36552         1.82227 
        1.96363         5.30539         1.78703 
        1.97935         5.22291          1.7528 
        1.99499         5.15357         1.71966 
        2.01064         5.10608         1.68733 
         2.0264         5.04345         1.65563 
        2.04216         5.00091         1.62476 
        2.05781         4.93373         1.59487 
        2.07353          4.8841         1.56563 
        2.08928         4.84333         1.53706 
        2.10499         4.78978         1.50928 
        2.12065         4.73389         1.48227 
        2.13633         4.68191         1.45589 
        2.15211         4.61889            1.43 
        2.16785         4.57373          1.4048 
        2.18349         4.52437         1.38037 
        2.19916         4.46095         1.35647 
        2.21489         4.43563         1.33306 
        2.23063         4.37881         1.31018 
         2.2463         4.34062         1.28795 
        2.26194         4.28189         1.26628 
        2.27765         4.26637         1.24501 
        2.29341          4.2056         1.22417 
        2.30914         4.16818         1.20384 
        2.32486         4.12136           1.184 
        2.34061         4.09967         1.16456 
        2.35635         4.04794         1.14558 
        2.37203         4.02663         1.12709 
        2.38768          3.9755         1.10905 
        2.40339         3.93421         1.09134 
        2.41914         3.88591         1.07397 
        2.43483         3.87956         1.05704 
         2.4505         3.81852         1.04051 
        2.46622         3.80059         1.02427 
        2.48195         3.74743         1.00838 
        2.49759         3.73189        0.992907 
        2.51328         3.68913        0.977722 
        2.52906         3.67854        0.962758 
        2.54479         3.62122        0.948164 
        2.56049         3.60295        0.933901 
        2.57618         3.55577        0.919943 
        2.59189         3.54608        0.906251 
        2.60758          3.5142        0.892858 
        2.62325         3.47604        0.879752 
        2.63898         3.43137        0.866864 
        2.65468          3.4129        0.854262 
        2.67044         3.38505        0.841856 
        2.68618         3.36006        0.829725 
        2.70184         3.32515        0.817881 
        2.71755         3.30536         0.80624 
        2.73329         3.27676        0.794807 
        2.74897          3.2644        0.783634 
        2.76462         3.23019        0.772699 
        2.78034          3.1899        0.761929 
        2.79607         3.16674        0.751352 
        2.81179         3.15412        0.740989 
        2.82749         3.10863        0.730833 
        2.84321         3.10144        0.720855 
        2.85893          3.0765        0.711067 
        2.87462         3.05268        0.701478 
        2.89033          3.0296        0.692056 
        2.90605         3.00508          0.6828 
        2.92176         2.97213        0.673717 
        2.93747         2.95269        0.664805 
        2.95318         2.93178        0.656052 
        2.96891         2.92022        0.647452 
        2.98456         2.89395        0.639045 
        3.00023         2.86649        0.630775 
        3.01596         2.84873        0.622625 
        3.03164         2.82929        0.614643 
        3.04738         2.80638        0.606777 
         3.0631         2.78425        0.599052 
        3.07883         2.77099         0.59146 
        3.09456         2.74619        0.584002 
        3.11026          2.7301        0.576684 
        3.12596         2.70382        0.569492 
        3.14163         2.68552        0.562439 
        3.15734         2.66801        0.555489 
        3.17308         2.65149         0.54864 
        3.18879         2.63723        0.541925 
        3.20447         2.62511        0.535332 
         3.2202         2.59255        0.528828 
         3.2359         2.58673        0.522444 
        3.25157         2.56773        0.516181 
        3.26729         2.53949        0.510001 
        3.28304         2.53646         0.50391 
        3.29877         2.51347        0.497927 
        3.31446         2.49275        0.492054 
        3.33014         2.48326        0.486281 
        3.34585         2.46667        0.480592 
        3.36158         2.45324        0.474985 
        3.37727         2.42172        0.469485 
        3.39294         2.41976        0.464077 
        3.40867         2.39372        0.458735 
        3.42439         2.38784         0.45348 
        3.44008          2.3706        0.448318 
        3.45578         2.35922        0.443232 
        3.47153          2.3393        0.438213 
        3.48724         2.32867        0.433282 
        3.50292         2.31927        0.428437 
        3.51859         2.29571        0.423669 
        3.53431         2.28271        0.418959 
        3.55007          2.2706        0.414309 
        3.56577         2.25164        0.409747 
        3.58146         2.24476        0.405256 
        3.59719         2.23248        0.400823 
        3.61292         2.21776        0.396457 
        3.62859         2.19921        0.392172 
        3.64429         2.18355        0.387943 
        3.66003         2.17941        0.383763 
        3.67578         2.16342        0.379646 
        3.69146         2.14873        0.375605 
        3.70712         2.13243         0.37163 
        3.72284         2.12219        0.367698 
        3.73853          2.1094         0.36383 
        3.75422         2.09801        0.360015 
        3.76993         2.07822        0.356253 
        3.78564         2.07252        0.352545 
        3.80137         2.06118        0.348884 
        3.81707         2.04201        0.345283 
        3.83279         2.03015         0.34173 
        3.84853         2.02796        0.338221 
        3.86424         2.01028        0.334768 
        3.87992         2.00139        0.331368 
        3.89561         1.98602        0.328016 
        3.91134         1.98136        0.324703 
        3.92704         1.96534        0.321439 
        3.94273         1.95553        0.318224 
        3.95845         1.94264        0.315046 
        3.97418         1.93048        0.311912 
        3.98988         1.91555        0.308824 
        4.00554          1.9007        0.305786 
        4.02125         1.89918        0.302781 
        4.03698         1.88407        0.299811 
        4.05268         1.87445        0.296888 
        4.06839         1.86222        0.294002 
         4.0841          1.8511        0.291155 
        4.09983         1.83745        0.288341 
        4.11555         1.82719        0.285566 
        4.13124         1.81849        0.282835 
        4.14693          1.8025        0.280137 
        4.16266         1.79229        0.277469 
        4.17839         1.77898        0.274836 
        4.19408         1.77145        0.272244 
        4.20977         1.75705        0.269684 
        4.22551         1.75063        0.267151 
        4.24123         1.73838        0.264653 
        4.25691         1.72673        0.262194 
        4.27259           1.718        0.259765 
        4.28831          1.7076        0.257362 
        4.30404         1.69832        0.254987 
        4.31974         1.68894        0.252647 
        4.33543         1.67949        0.250338 
        4.35116         1.67265        0.248052 
        4.36688         1.65886        0.245796 
        4.38255         1.64665        0.243576 
        4.39825         1.63905        0.241379 
        4.41398         1.63072        0.239204 
         4.4297          1.6244        0.237058 
        4.44541         1.61413         0.23494 
        4.46111         1.60626        0.232848 
        4.47683         1.59811        0.230781 
        4.49251         1.58968        0.228743 
        4.50819         1.58362         0.22673 
         4.5239         1.57587        0.224738 
        4.53962         1.56748        0.222768 
        4.55535         1.55937         0.22082 
        4.57106         1.54999        0.218899 
        4.58678         1.54335           0.217 
         4.6025         1.53669        0.215123 
        4.61821         1.52529        0.213268 
        4.63391         1.51912        0.211438 
         4.6496         1.51268         0.20963 
        4.66532           1.508         0.20784 
        4.68103         1.50031        0.206072 
        4.69673         1.49297        0.204326 
        4.71241         1.48699        0.202602 
        4.72811         1.47787        0.200896 
        4.74384         1.47258        0.199206 
        4.75955         1.46495        0.197539 
        4.77525         1.45811        0.195892 
        4.79096         1.45366        0.194261 
        4.80669         1.44293        0.192648 
         4.8224          1.4417        0.191055 
        4.83809         1.43486        0.189482 
        4.85379         1.42566        0.187926 
         4.8695         1.42148        0.186386 
        4.88521         1.41481        0.184864 
        4.90093         1.40859        0.183358 
        4.91663         1.40421        0.181871 
        4.93234         1.39868        0.180399 
        4.94807         1.38901        0.178942 
        4.96377         1.38443        0.177503 
        4.97943         1.37992        0.176084 
        4.99514         1.37301        0.174676 
        5.01086         1.37063        0.173283 
        5.02654         1.36359        0.171908 
        5.04227         1.35831        0.170545 
          5.058         1.35227        0.169195 
        5.07371         1.34745        0.167863 
        5.08942         1.34041        0.166545 
        5.10513         1.33451        0.165241 
        5.12084         1.33122         0.16395 
        5.13656         1.32638        0.162673 
        5.15225         1.32177        0.161412 
        5.16796         1.31658        0.160162 
        5.18369         1.31029        0.158924 
         5.1994         1.30669        0.157702 
        5.21509         1.30107        0.156494 
        5.23079         1.29874        0.155297 
        5.24649         1.29475        0.154113 
        5.26217         1.28705        0.152942 
        5.27788         1.28135        0.151782 
        5.29359         1.27869        0.150634 
        5.30933         1.27466        0.149496 
        5.32504         1.26994        0.148372 
        5.34073         1.26641         0.14726 
        5.35646         1.26345        0.146158 
        5.37218         1.25736        0.145066 
        5.38789         1.25325        0.143988 
        5.40357         1.24617        0.142922 
        5.41929          1.2413        0.141864 
        5.43502          1.2385        0.140817 
         5.4507         1.23278        0.139782 
        5.46639         1.23066        0.138758 
        5.48212         1.22672        0.137742 
        5.49786         1.22156        0.136735 
        5.51353         1.21585        0.135743 
        5.52921         1.21168         0.13476 
        5.54495         1.20801        0.133783 
        5.56066         1.20793        0.132818 
        5.57637         1.20237        0.131862 
        5.59207         1.19847        0.130916 
        5.60778         1.19326        0.129979 
        5.62346         1.19088        0.129053 
        5.63916         1.18922        0.128134 
        5.65487         1.18378        0.127225 
         5.6706         1.18168        0.126323 
        5.68633         1.17709        0.125429 
        5.70203          1.1727        0.124546 
        5.71773         1.16892        0.123671 
        5.73344         1.16684        0.122805 
        5.74916         1.16231        0.121946 
        5.76486         1.15724        0.121096 
        5.78054         1.15708        0.120256 
        5.79626         1.15331        0.119421 
          5.812         1.14723        0.118593 
         5.8277         1.14512        0.117776 
        5.84339         1.14313        0.116966 
        5.85911         1.13993        0.116163 
        5.87484         1.13774        0.115367 
        5.89053         1.13164         0.11458 
        5.90623         1.12859          0.1138 
        5.92195         1.12667        0.113026 
        5.93767         1.12357         0.11226 
        5.95336         1.11734        0.111502 
        5.96905         1.11568        0.110751 
        5.98476         1.11281        0.110006 
        6.00048         1.10856        0.109268 
        6.01617         1.10644        0.108537 
        6.03185         1.10163        0.107814 
        6.04756         1.10152        0.107096 
        6.06331         1.09834        0.106383 
        6.07903         1.09682        0.105678 
        6.09473         1.09194         0.10498 
        6.11044         1.09155        0.104287 
        6.12616          1.0853        0.103601 
        6.14186         1.08195        0.102922 
        6.15755         1.08238        0.102249 
        6.17326         1.07733        0.101581 
        6.18898         1.07563        0.100919 
        6.20467         1.07305        0.100264 
        6.22036         1.06698       0.0996153 
         6.2361         1.06739       0.0989703 
         6.2518         1.06217        0.098332 
        6.26748         1.06087       0.0977008 
        6.28319         1.05678       0.0970733 
        6.29893         1.05457       0.0964508 
        6.31463         1.05043       0.0958349 
        6.33033         1.04775       0.0952245 
        6.34604         1.04511       0.0946189 
        6.36177         1.04398       0.0940181 
        6.37747         1.04177       0.0934236 
