# k  (h/Mpc)    Pcb(k)  (Mpc/h)^3    Pcb_linear(k) (Mpc/h)^3   ShotnoiseSubtracted = true
      0.0200456         16934.6         17211.3 
      0.0350414         12879.8           12512 
      0.0492313         8946.68         9090.98 
      0.0637834         7222.04         7557.25 
      0.0800726         5677.74            5998 
       0.096163          4514.6         4352.07 
       0.111083         3674.94         3471.33 
       0.126058         3045.94          3076.3 
       0.142273         2650.25          2606.3 
       0.158546         2177.17         2058.43 
        0.17375         1925.92         1734.23 
       0.188953         1806.95         1570.31 
       0.204907         1550.09          1389.4 
       0.220756         1395.66         1175.52 
        0.23588         1244.41          1022.6 
         0.2514         1119.24         929.019 
       0.267535         1085.36         840.603 
       0.283568         957.381         741.299 
       0.299022         914.598         660.459 
       0.314451         942.936         603.615 
       0.330372         818.165         553.749 
       0.346141         754.654         502.611 
       0.361624         723.757         456.805 
       0.377134          687.82         420.333 
       0.392932         661.758         388.925 
       0.408854         631.468         358.514 
       0.424564         614.831         330.448 
       0.440253         563.149         306.363 
       0.455999         539.352         285.421 
       0.471626         548.477         266.175 
        0.48727         518.104         248.172 
       0.502856         485.487         231.998 
       0.518488          480.97         217.568 
       0.534347         452.944         204.152 
       0.550082         434.713         191.782 
       0.565732         431.248         180.466 
       0.581496         419.458         170.101 
       0.597222         407.835         160.595 
       0.612804         398.437         151.855 
       0.628434         382.679         143.708 
       0.644267         368.784         136.091 
       0.660051         363.911         129.071 
       0.675724         357.719         122.589 
       0.691403         349.523         116.547 
       0.707174         336.498         110.877 
       0.722871         331.258         105.608 
        0.73838         327.087         100.737 
       0.754018         315.036         96.1369 
       0.769845         313.455         91.7739 
        0.78569         306.508          87.678 
       0.801365         297.479         83.8729 
       0.817031         293.927         80.2971 
       0.832809         288.886          76.908 
       0.848511         282.013         73.7307 
       0.864097          275.25         70.7556 
       0.879701          273.84         67.9426 
       0.895507         266.274         65.2501 
       0.911279          259.72         62.7097 
        0.92691         257.411         60.3263 
       0.942635         255.422         58.0541 
       0.958396         248.292         55.8947 
       0.974128          245.25         53.8495 
       0.989692         236.493         51.9273 
        1.00528         236.272         50.0965 
        1.02113         232.758         48.3256 
        1.03692         227.524         46.6472 
        1.05264         223.822         45.0566 
        1.06832         223.431         43.5429 
        1.08405         217.327          42.095 
        1.09979         215.729         40.7124 
        1.11537         211.286         39.4058 
        1.13105         207.758          38.149 
        1.14679         205.993         36.9424 
        1.16256         203.144         35.7858 
        1.17828         200.834         34.6827 
        1.19395         195.551         33.6299 
         1.2097         194.931         32.6157 
        1.22537         193.311         31.6484 
          1.241         188.151         30.7233 
        1.25666         186.355         29.8331 
        1.27241         182.582         28.9741 
        1.28819         180.833         28.1475 
        1.30392         178.418         27.3557 
        1.31957         174.177          26.598 
        1.33529          172.09         25.8663 
        1.35108         170.698         25.1593 
        1.36674         167.489         24.4839 
         1.3824         166.327          23.834 
        1.39811         163.499         23.2056 
        1.41389         160.602         22.5975 
        1.42964         158.623         22.0122 
        1.44531         157.072         21.4506 
        1.46101         153.864         20.9075 
        1.47667         153.364         20.3848 
        1.49229         150.886         19.8815 
        1.50793         148.184         19.3946 
        1.52367         146.728          18.921 
        1.53953         143.813           18.46 
        1.55526         143.451         18.0181 
        1.57092           141.7         17.5925 
        1.58662         138.408         17.1797 
        1.60235         137.126         16.7794 
        1.61809         135.369         16.3916 
        1.63369         133.374         16.0196 
        1.64941         132.545         15.6565 
        1.66519         130.571         15.3033 
        1.68085         128.171         14.9636 
        1.69652         127.109         14.6341 
        1.71228         125.995         14.3127 
        1.72806          124.58         14.0007 
        1.74368         122.661         13.7012 
        1.75933         121.666         13.4098 
        1.77505         119.481         13.1256 
        1.79081         117.947         12.8491 
         1.8065         115.976         12.5818 
        1.82218          114.74         12.3223 
        1.83797         114.346         12.0684 
        1.85367          112.38         11.8231 
        1.86928         111.695          11.586 
        1.88497         109.632         11.3542 
        1.90073         108.896         11.1279 
        1.91647          107.12          10.908 
        1.93218         105.956         10.6944 
        1.94787         104.301         10.4869 
        1.96363         103.519         10.2842 
        1.97935         102.386         10.0872 
        1.99499         101.607         9.89643 
        2.01064         99.2428         9.71037 
         2.0264         98.7532         9.52793 
        2.04216         96.6312         9.35027 
        2.05781          96.308         9.17827 
        2.07353         95.0229         9.00999 
        2.08928         93.6632         8.84557 
        2.10499         92.6156          8.6857 
        2.12065         92.0904         8.53026 
        2.13633         90.8953          8.3785 
        2.15211          89.474         8.22945 
        2.16785         88.2405         8.08445 
        2.18349         87.1035         7.94386 
        2.19916         86.0904         7.80631 
        2.21489         85.3357         7.67158 
        2.23063         84.0498         7.53993 
         2.2463         83.5918         7.41197 
        2.26194         82.4147          7.2873 
        2.27765         81.4876         7.16486 
        2.29341         80.5698         7.04492 
        2.30914         79.6055         6.92798 
        2.32486         78.0154         6.81375 
        2.34061         77.6474         6.70192 
        2.35635         76.6266         6.59269 
        2.37203         75.5804         6.48628 
        2.38768         74.8972         6.38245 
        2.40339          74.168         6.28051 
        2.41914         72.9382         6.18056 
        2.43483         72.4575         6.08314 
         2.4505         71.4446         5.98798 
        2.46622         70.9357         5.89454 
        2.48195         69.8988         5.80308 
        2.49759         69.1185         5.71406 
        2.51328         68.2976         5.62667 
        2.52906         67.3962         5.54056 
        2.54479         66.8034         5.45657 
        2.56049         66.0436         5.37449 
        2.57618         65.1101         5.29416 
        2.59189         64.7117         5.21536 
        2.60758          63.786         5.13829 
        2.62325         63.0876         5.06287 
        2.63898         62.4849          4.9887 
        2.65468         61.9058         4.91617 
        2.67044         61.1938         4.84478 
        2.68618         60.6039         4.77497 
        2.70184         59.8285         4.70681 
        2.71755         58.9775         4.63981 
        2.73329         58.5221         4.57402 
        2.74897         57.9808         4.50972 
        2.76462         57.6243         4.44679 
        2.78034          56.871         4.38481 
        2.79607          56.067         4.32394 
        2.81179         55.4288          4.2643 
        2.82749         54.9613         4.20585 
        2.84321         54.5204         4.14843 
        2.85893         53.9144         4.09211 
        2.87462         53.1672         4.03692 
        2.89033         52.5594          3.9827 
        2.90605         51.9867         3.92943 
        2.92176         51.5941         3.87716 
        2.93747         50.9554         3.82587 
        2.95318          50.483          3.7755 
        2.96891         49.8672         3.72601 
        2.98456         49.4409         3.67763 
        3.00023         48.6902         3.63003 
        3.01596         48.3177         3.58313 
        3.03164         47.8692         3.53719 
        3.04738         47.4295         3.49193 
         3.0631         46.9121         3.44747 
        3.07883         46.4057         3.40378 
        3.09456         45.8672         3.36086 
        3.11026         45.4521         3.31874 
        3.12596         45.0364         3.27735 
        3.14163         44.5142         3.23677 
        3.15734         44.0773         3.19677 
        3.17308          43.719         3.15735 
        3.18879         43.3582         3.11871 
        3.20447         42.8657         3.08077 
         3.2202         42.3851         3.04334 
         3.2359         42.0478          3.0066 
        3.25157         41.5305         2.97056 
        3.26729         41.1551         2.93499 
        3.28304         40.8149         2.89994 
        3.29877         40.2239         2.86551 
        3.31446         39.9707         2.83171 
        3.33014         39.5278         2.79849 
        3.34585         39.0411         2.76575 
        3.36158         38.7579         2.73348 
        3.37727         38.3718         2.70183 
        3.39294         37.9742         2.67071 
        3.40867         37.6434         2.63997 
        3.42439         37.2063         2.60972 
        3.44008         36.9402         2.58001 
        3.45578         36.5234         2.55074 
        3.47153         36.2722         2.52186 
        3.48724         35.8781         2.49348 
        3.50292          35.511          2.4656 
        3.51859         35.2717         2.43816 
        3.53431         34.9641         2.41106 
        3.55007         34.3773          2.3843 
        3.56577         34.3458         2.35805 
        3.58146           33.86          2.3322 
        3.59719         33.5592         2.30669 
        3.61292         33.3302         2.28156 
        3.62859         32.9287          2.2569 
        3.64429         32.6474         2.23256 
        3.66003         32.3419         2.20851 
        3.67578         32.0903         2.18482 
        3.69146         31.8164         2.16156 
        3.70712         31.4121         2.13869 
        3.72284         31.1738         2.11606 
        3.73853          30.993          2.0938 
        3.75422         30.6899         2.07184 
        3.76993         30.3767         2.05019 
        3.78564         30.1143         2.02885 
        3.80137         29.9079         2.00779 
        3.81707         29.5763         1.98706 
        3.83279         29.2793         1.96661 
        3.84853         29.0491         1.94642 
        3.86424         28.6678         1.92655 
        3.87992         28.4156         1.90698 
        3.89561         28.2566         1.88769 
        3.91134         27.9932         1.86862 
        3.92704         27.6769         1.84984 
        3.94273         27.3773         1.83134 
        3.95845         27.2457         1.81305 
        3.97418         26.9377         1.79501 
        3.98988         26.7237         1.77724 
        4.00554         26.4409         1.75976 
        4.02125         26.2935         1.74247 
        4.03698         26.0322         1.72538 
        4.05268         25.7803         1.70855 
        4.06839         25.5519         1.69194 
         4.0841         25.3587         1.67556 
        4.09983         25.0624         1.65937 
        4.11555         24.8538          1.6434 
        4.13124         24.7929         1.62768 
        4.14693         24.4289         1.61216 
        4.16266         24.2541          1.5968 
        4.17839         24.1087         1.58165 
        4.19408         23.8323         1.56673 
        4.20977         23.6996           1.552 
        4.22551         23.4902         1.53742 
        4.24123         23.2452         1.52305 
        4.25691         23.0556         1.50889 
        4.27259         22.9038         1.49491 
        4.28831         22.6892         1.48109 
        4.30404         22.4949         1.46742 
        4.31974         22.2716         1.45395 
        4.33543         22.1212         1.44067 
        4.35116         21.9335         1.42751 
        4.36688         21.7176         1.41453 
        4.38255         21.5282         1.40175 
        4.39825         21.3883          1.3891 
        4.41398         21.2098         1.37659 
         4.4297         21.0371         1.36424 
        4.44541         20.8261         1.35205 
        4.46111          20.626         1.34001 
        4.47683          20.472         1.32812 
        4.49251         20.3557         1.31639 
        4.50819         20.1826          1.3048 
         4.5239         20.0147         1.29334 
        4.53962         19.8766           1.282 
        4.55535         19.6719         1.27079 
        4.57106         19.5829         1.25974 
        4.58678         19.3825         1.24881 
         4.6025         19.1274           1.238 
        4.61821         19.0315         1.22733 
        4.63391         18.8883          1.2168 
         4.6496         18.7932         1.20639 
        4.66532         18.5706         1.19609 
        4.68103         18.4465         1.18592 
        4.69673         18.3299         1.17587 
        4.71241         18.2069         1.16595 
        4.72811         18.0233         1.15613 
        4.74384         17.8574         1.14641 
        4.75955         17.7357         1.13681 
        4.77525         17.6084         1.12733 
        4.79096         17.4372         1.11795 
        4.80669         17.3084         1.10867 
         4.8224         17.1563          1.0995 
        4.83809         17.0189         1.09045 
        4.85379         16.9154         1.08149 
         4.8695         16.8034         1.07263 
        4.88521         16.6515         1.06387 
        4.90093         16.5082         1.05521 
        4.91663         16.3565         1.04665 
        4.93234         16.2456         1.03817 
        4.94807         16.1426         1.02979 
        4.96377         16.0073         1.02151 
        4.97943         15.8979         1.01334 
        4.99514         15.7457         1.00524 
        5.01086         15.6678        0.997223 
        5.02654         15.5282        0.989312 
        5.04227         15.3886        0.981464 
          5.058         15.2821        0.973698 
        5.07371         15.1619        0.966031 
        5.08942         15.0912        0.958445 
        5.10513         14.9397        0.950939 
        5.12084          14.843        0.943511 
        5.13656         14.7376        0.936163 
        5.15225         14.6102        0.928906 
        5.16796         14.4728        0.921714 
        5.18369         14.3633        0.914591 
         5.1994         14.2785        0.907557 
        5.21509         14.1573        0.900603 
        5.23079          14.077        0.893713 
        5.24649         13.9701        0.886901 
        5.26217         13.8653        0.880165 
        5.27788         13.7472        0.873489 
        5.29359         13.6355        0.866881 
        5.30933         13.5735        0.860332 
        5.32504         13.4758        0.853861 
        5.34073         13.3637        0.847464 
        5.35646         13.2797         0.84112 
        5.37218         13.1555        0.834839 
        5.38789         13.0446        0.828633 
        5.40357         12.9869        0.822497 
        5.41929         12.8952        0.816409 
        5.43502         12.7899        0.810382 
         5.4507         12.6994         0.80443 
        5.46639         12.5875        0.798538 
        5.48212         12.5132         0.79269 
        5.49786         12.4384        0.786894 
        5.51353         12.3308        0.781185 
        5.52921         12.2553        0.775526 
        5.54495         12.1691        0.769907 
        5.56066         12.0646        0.764349 
        5.57637         11.9923        0.758848 
        5.59207          11.934        0.753405 
        5.60778         11.8353        0.748013 
        5.62346         11.7076        0.742682 
        5.63916         11.6593        0.737398 
        5.65487         11.5994        0.732162 
         5.6706         11.4879        0.726971 
        5.68633         11.4014        0.721828 
        5.70203         11.3334        0.716745 
        5.71773         11.2255        0.711713 
        5.73344         11.1573        0.706726 
        5.74916         11.0967        0.701782 
        5.76486         11.0265        0.696892 
        5.78054         10.9468        0.692056 
        5.79626         10.8896        0.687253 
          5.812         10.8035         0.68249 
         5.8277           10.72        0.677786 
        5.84339         10.6256        0.673127 
        5.85911          10.556        0.668502 
        5.87484         10.4899        0.663922 
        5.89053         10.4125        0.659393 
        5.90623          10.352        0.654905 
        5.92195          10.282        0.650451 
        5.93767         10.2372         0.64604 
        5.95336         10.1305        0.641678 
        5.96905         10.0837        0.637357 
        5.98476         10.0047        0.633071 
        6.00048         9.94267        0.628822 
        6.01617         9.86091        0.624618 
        6.03185         9.80282        0.620457 
        6.04756         9.72982        0.616324 
        6.06331         9.67936         0.61222 
        6.07903         9.60905        0.608162 
        6.09473         9.54613        0.604145 
        6.11044         9.47786         0.60016 
        6.12616         9.41885        0.596212 
        6.14186         9.36056        0.592303 
        6.15755         9.29703        0.588429 
        6.17326         9.23885        0.584588 
        6.18898         9.17071        0.580778 
        6.20467         9.09978        0.577009 
        6.22036          9.0444        0.573274 
         6.2361         8.97282        0.569562 
         6.2518         8.94631        0.565889 
        6.26748         8.86178        0.562256 
        6.28319          8.8281        0.558645 
        6.29893         8.76912        0.555063 
        6.31463          8.6842        0.551518 
        6.33033         8.63817        0.548005 
        6.34604         8.59231         0.54452 
        6.36177         8.54851        0.541063 
        6.37747         8.46912        0.537641 
