# k  (h/Mpc)    Pcb(k)  (Mpc/h)^3    Pcb_linear(k) (Mpc/h)^3   ShotnoiseSubtracted = true
      0.0200456         434.528         440.491 
      0.0350414         319.625         320.222 
      0.0492313         233.599         232.667 
      0.0637834          194.44         193.414 
      0.0800726         154.125         153.508 
       0.096163         111.389         111.384 
       0.111083         88.5731         88.8424 
       0.126058         78.8832         78.7324 
       0.142273          66.997         66.7037 
       0.158546         53.1493         52.6819 
        0.17375         44.3295         44.3845 
       0.188953         40.3315         40.1891 
       0.204907         36.3035         35.5592 
       0.220756         30.4499         30.0852 
        0.23588          26.491         26.1715 
         0.2514         23.8869         23.7766 
       0.267535         21.6706         21.5137 
       0.283568         19.1974         18.9722 
       0.299022         17.1989         16.9033 
       0.314451         15.4798         15.4484 
       0.330372         14.3003         14.1722 
       0.346141          12.992         12.8634 
       0.361624         11.8749         11.6911 
       0.377134         11.0016         10.7577 
       0.392932         9.91005         9.95385 
       0.408854         9.36675         9.17553 
       0.424564         8.59706         8.45721 
       0.440253         7.96629         7.84082 
       0.455999         7.47627         7.30484 
       0.471626         7.00652         6.81228 
        0.48727         6.49842         6.35151 
       0.502856         6.05148         5.93759 
       0.518488         5.75891         5.56826 
       0.534347         5.45531         5.22491 
       0.550082         5.01679         4.90832 
       0.565732         4.64628         4.61869 
       0.581496         4.49063         4.35343 
       0.597222         4.26589         4.11015 
       0.612804         3.99478         3.88645 
       0.628434         3.83117         3.67795 
       0.644267         3.61587         3.48301 
       0.660051         3.41227         3.30335 
       0.675724         3.25061         3.13745 
       0.691403         3.11611          2.9828 
       0.707174         2.94696         2.83771 
       0.722871         2.80189         2.70285 
        0.73838         2.69407         2.57819 
       0.754018         2.59628         2.46045 
       0.769845         2.45945         2.34879 
        0.78569         2.35744         2.24396 
       0.801365         2.24936         2.14658 
       0.817031         2.16464         2.05506 
       0.832809         2.07401         1.96832 
       0.848511         1.97266           1.887 
       0.864097         1.88682         1.81086 
       0.879701         1.81539         1.73887 
       0.895507          1.7523         1.66996 
       0.911279         1.70132         1.60494 
        0.92691         1.63125         1.54394 
       0.942635         1.56548         1.48579 
       0.958396         1.50237         1.43052 
       0.974128         1.45123         1.37818 
       0.989692          1.4108         1.32899 
        1.00528         1.35467         1.28213 
        1.02113         1.29806         1.23681 
        1.03692         1.26921         1.19385 
        1.05264         1.22197         1.15314 
        1.06832         1.18587          1.1144 
        1.08405         1.13102         1.07735 
        1.09979         1.10012         1.04196 
        1.11537         1.07221         1.00852 
        1.13105         1.04047        0.976355 
        1.14679          1.0127        0.945473 
        1.16256        0.969933        0.915872 
        1.17828        0.943744         0.88764 
        1.19395        0.914089        0.860698 
         1.2097        0.877871        0.834741 
        1.22537        0.861801        0.809984 
          1.241         0.83706        0.786309 
        1.25666        0.823091        0.763524 
        1.27241         0.78685        0.741539 
        1.28819        0.765292        0.720385 
        1.30392        0.748835        0.700121 
        1.31957        0.728799        0.680729 
        1.33529         0.70598        0.662002 
        1.35108         0.68664        0.643908 
        1.36674        0.661757        0.626622 
         1.3824        0.652932        0.609988 
        1.39811        0.632887        0.593905 
        1.41389        0.618654        0.578341 
        1.42964        0.604619        0.563363 
        1.44531        0.584337        0.548991 
        1.46101         0.57419         0.53509 
        1.47667        0.551534        0.521713 
        1.49229        0.545212        0.508831 
        1.50793        0.528196        0.496371 
        1.52367         0.51798        0.484248 
        1.53953        0.502875         0.47245 
        1.55526        0.492518         0.46114 
        1.57092        0.478697        0.450248 
        1.58662         0.46985        0.439683 
        1.60235        0.459357        0.429437 
        1.61809        0.444514        0.419514 
        1.63369         0.44188        0.409992 
        1.64941        0.427472        0.400699 
        1.66519        0.417694        0.391661 
        1.68085        0.406185        0.382967 
        1.69652        0.398152        0.374534 
        1.71228        0.391525        0.366308 
        1.72806        0.379608        0.358324 
        1.74368        0.375407        0.350657 
        1.75933        0.365209        0.343201 
        1.77505        0.357461        0.335926 
        1.79081        0.350845         0.32885 
         1.8065        0.340025        0.322008 
        1.82218        0.335659        0.315368 
        1.83797        0.327613        0.308869 
        1.85367        0.323539         0.30259 
        1.86928        0.315967        0.296524 
        1.88497        0.309209        0.290591 
        1.90073        0.302255        0.284798 
        1.91647        0.297415        0.279169 
        1.93218        0.290023        0.273705 
        1.94787        0.284858        0.268395 
        1.96363        0.279164        0.263205 
        1.97935        0.272623        0.258163 
        1.99499        0.268337        0.253281 
        2.01064        0.263218        0.248519 
         2.0264        0.256875         0.24385 
        2.04216        0.254598        0.239303 
        2.05781        0.248728        0.234901 
        2.07353        0.242483        0.230595 
        2.08928        0.237821        0.226387 
        2.10499        0.234432        0.222295 
        2.12065        0.231281        0.218317 
        2.13633        0.226297        0.214433 
        2.15211        0.222527        0.210618 
        2.16785        0.217781        0.206907 
        2.18349        0.212839        0.203309 
        2.19916        0.210862        0.199789 
        2.21489         0.20631         0.19634 
        2.23063        0.203429        0.192971 
         2.2463        0.199415        0.189696 
        2.26194         0.19475        0.186505 
        2.27765        0.191973        0.183372 
        2.29341        0.189117        0.180302 
        2.30914        0.185822        0.177309 
        2.32486        0.182303        0.174386 
        2.34061        0.179403        0.171524 
        2.35635        0.175912        0.168728 
        2.37203        0.173059        0.166005 
        2.38768        0.170182        0.163347 
        2.40339        0.167816        0.160738 
        2.41914         0.16528         0.15818 
        2.43483        0.162267        0.155687 
         2.4505        0.158648        0.153252 
        2.46622        0.156237         0.15086 
        2.48195        0.154037         0.14852 
        2.49759        0.152394        0.146241 
        2.51328        0.149647        0.144005 
        2.52906         0.14726        0.141801 
        2.54479        0.144314        0.139651 
        2.56049        0.141802         0.13755 
        2.57618        0.139633        0.135495 
        2.59189        0.138051        0.133478 
        2.60758        0.136308        0.131505 
        2.62325         0.13347        0.129575 
        2.63898        0.131721        0.127677 
        2.65468        0.129119        0.125821 
        2.67044        0.127747        0.123993 
        2.68618        0.125766        0.122207 
        2.70184        0.123614        0.120462 
        2.71755         0.12136        0.118748 
        2.73329        0.120132        0.117064 
        2.74897        0.118593        0.115418 
        2.76462        0.116464        0.113808 
        2.78034        0.114855        0.112221 
        2.79607        0.112781        0.110664 
        2.81179        0.111945        0.109137 
        2.82749        0.109815        0.107641 
        2.84321        0.108293        0.106172 
        2.85893        0.107046         0.10473 
        2.87462        0.105565        0.103318 
        2.89033        0.103949         0.10193 
        2.90605        0.102145        0.100567 
        2.92176        0.101085        0.099229 
        2.93747       0.0993305       0.0979163 
        2.95318       0.0982336       0.0966271 
        2.96891        0.096713       0.0953605 
        2.98456       0.0954852       0.0941222 
        3.00023       0.0942208       0.0929041 
        3.01596       0.0929584       0.0917038 
        3.03164       0.0920561       0.0905281 
        3.04738        0.090285       0.0893696 
         3.0631       0.0893608       0.0882318 
        3.07883       0.0880312       0.0871137 
        3.09456       0.0869311       0.0860152 
        3.11026       0.0856487       0.0849373 
        3.12596       0.0846685        0.083878 
        3.14163       0.0834959       0.0828392 
        3.15734       0.0826629       0.0818156 
        3.17308       0.0817798       0.0808068 
        3.18879       0.0805498       0.0798178 
        3.20447       0.0793102       0.0788468 
         3.2202       0.0789276       0.0778889 
         3.2359       0.0776384       0.0769486 
        3.25157       0.0765955       0.0760261 
        3.26729       0.0754922       0.0751159 
        3.28304       0.0750988       0.0742188 
        3.29877       0.0739541       0.0733376 
        3.31446       0.0730891       0.0724726 
        3.33014       0.0725784       0.0716223 
        3.34585        0.071525       0.0707843 
        3.36158       0.0707578       0.0699585 
        3.37727       0.0700296       0.0691485 
        3.39294       0.0690697        0.068352 
        3.40867        0.068211       0.0675652 
        3.42439       0.0674952       0.0667912 
        3.44008         0.06655       0.0660308 
        3.45578       0.0661031       0.0652817 
        3.47153       0.0653374       0.0645426 
        3.48724       0.0647401       0.0638162 
        3.50292       0.0639492       0.0631027 
        3.51859       0.0631186       0.0624004 
        3.53431       0.0624522       0.0617067 
        3.55007       0.0619979       0.0610218 
        3.56577       0.0613158       0.0603499 
        3.58146       0.0607788       0.0596885 
        3.59719       0.0602871       0.0590355 
        3.61292        0.059587       0.0583924 
        3.62859       0.0588287       0.0577614 
        3.64429       0.0583352       0.0571385 
        3.66003       0.0578095       0.0565228 
        3.67578       0.0571365       0.0559164 
        3.69146       0.0565512       0.0553213 
        3.70712       0.0562679       0.0547358 
        3.72284       0.0558087       0.0541567 
        3.73853       0.0550919       0.0535869 
        3.75422       0.0547459       0.0530252 
        3.76993       0.0539909        0.052471 
        3.78564       0.0536706       0.0519249 
        3.80137       0.0530563       0.0513857 
        3.81707       0.0526264       0.0508553 
        3.83279       0.0523043        0.050332 
        3.84853       0.0517769       0.0498151 
        3.86424       0.0512935       0.0493066 
        3.87992       0.0507506       0.0488059 
        3.89561       0.0503194       0.0483121 
        3.91134       0.0499791       0.0478241 
        3.92704       0.0494729       0.0473434 
        3.94273       0.0489701       0.0468698 
        3.95845       0.0486303       0.0464019 
        3.97418       0.0482317       0.0459402 
        3.98988       0.0476248       0.0454854 
        4.00554       0.0473532        0.045038 
        4.02125       0.0466659       0.0445953 
        4.03698       0.0459578       0.0441579 
        4.05268       0.0453597       0.0437274 
        4.06839       0.0448026       0.0433023 
         4.0841       0.0441207       0.0428829 
        4.09983       0.0435335       0.0424686 
        4.11555       0.0428319       0.0420598 
        4.13124       0.0422685       0.0416576 
        4.14693       0.0416377       0.0412603 
        4.16266         0.04117       0.0408672 
        4.17839       0.0406489       0.0404795 
        4.19408       0.0401937       0.0400977 
        4.20977       0.0396667       0.0397207 
        4.22551       0.0391102       0.0393475 
        4.24123       0.0386929       0.0389796 
        4.25691       0.0381904       0.0386174 
        4.27259       0.0378329       0.0382597 
        4.28831       0.0374215       0.0379057 
        4.30404       0.0371071        0.037556 
        4.31974       0.0367951       0.0372113 
        4.33543       0.0364094       0.0368712 
        4.35116       0.0361009       0.0365346 
        4.36688       0.0357123       0.0362022 
        4.38255       0.0354116       0.0358753 
        4.39825       0.0351543       0.0355516 
        4.41398       0.0350602       0.0352313 
         4.4297       0.0347716       0.0349153 
        4.44541        0.034494       0.0346033 
        4.46111       0.0343485       0.0342952 
        4.47683       0.0341442       0.0339907 
        4.49251       0.0338961       0.0336905 
        4.50819       0.0337446       0.0333941 
         4.5239       0.0335292       0.0331007 
        4.53962       0.0334501       0.0328105 
        4.55535       0.0333428       0.0325237 
        4.57106       0.0332954       0.0322407 
        4.58678       0.0330461        0.031961 
         4.6025       0.0330731       0.0316845 
        4.61821       0.0330888       0.0314114 
        4.63391       0.0330367       0.0311418 
         4.6496       0.0329038       0.0308755 
        4.66532       0.0329694       0.0306119 
        4.68103       0.0329646       0.0303515 
        4.69673       0.0329319       0.0300944 
        4.71241       0.0329937       0.0298405 
        4.72811       0.0329472       0.0295891 
        4.74384       0.0330973       0.0293402 
        4.75955       0.0331831       0.0290947 
        4.77525       0.0333167        0.028852 
        4.79096       0.0333185       0.0286119 
        4.80669       0.0334213       0.0283743 
         4.8224       0.0336618       0.0281397 
        4.83809        0.033826       0.0279081 
        4.85379       0.0338879       0.0276788 
         4.8695       0.0341503        0.027452 
        4.88521       0.0342664       0.0272278 
        4.90093       0.0345672       0.0270061 
        4.91663       0.0347688        0.026787 
        4.93234       0.0348442       0.0265702 
        4.94807       0.0351475       0.0263556 
        4.96377       0.0355131       0.0261437 
        4.97943       0.0359177       0.0259347 
        4.99514       0.0360145       0.0257273 
        5.01086       0.0364717       0.0255221 
        5.02654        0.036654       0.0253197 
        5.04227       0.0370863       0.0251188 
          5.058       0.0375111         0.02492 
        5.07371       0.0378782       0.0247238 
        5.08942       0.0381436       0.0245297 
        5.10513       0.0387486       0.0243376 
        5.12084       0.0391481       0.0241475 
        5.13656       0.0395352       0.0239594 
        5.15225       0.0401603       0.0237737 
        5.16796       0.0405677       0.0235896 
        5.18369       0.0411051       0.0234073 
         5.1994       0.0416729       0.0232273 
        5.21509        0.042142       0.0230493 
        5.23079       0.0426981        0.022873 
        5.24649       0.0433638       0.0226987 
        5.26217       0.0440457       0.0225262 
        5.27788        0.044666       0.0223554 
        5.29359       0.0454518       0.0221863 
        5.30933       0.0459986       0.0220187 
        5.32504       0.0467608        0.021853 
        5.34073       0.0475597       0.0216893 
        5.35646       0.0483185        0.021527 
        5.37218       0.0490687       0.0213662 
        5.38789       0.0501822       0.0212074 
        5.40357       0.0505958       0.0210503 
        5.41929       0.0516921       0.0208945 
        5.43502       0.0522914       0.0207403 
         5.4507       0.0533307        0.020588 
        5.46639       0.0544911       0.0204371 
        5.48212        0.055242       0.0202875 
        5.49786       0.0564328       0.0201391 
        5.51353       0.0577196        0.019993 
        5.52921       0.0583985       0.0198482 
        5.54495       0.0596034       0.0197044 
        5.56066       0.0607881       0.0195622 
        5.57637       0.0618957       0.0194213 
        5.59207       0.0633876        0.019282 
        5.60778       0.0646234       0.0191441 
        5.62346       0.0656774       0.0190076 
        5.63916       0.0672208       0.0188724 
        5.65487       0.0684826       0.0187384 
         5.6706       0.0695501       0.0186055 
        5.68633       0.0712759       0.0184739 
        5.70203       0.0722965       0.0183438 
        5.71773        0.074318        0.018215 
        5.73344       0.0758035       0.0180874 
        5.74916       0.0775292       0.0179608 
        5.76486       0.0790877       0.0178357 
        5.78054       0.0803773       0.0177119 
        5.79626       0.0820059        0.017589 
          5.812        0.084265       0.0174671 
         5.8277       0.0855923       0.0173467 
        5.84339       0.0873778       0.0172275 
        5.85911       0.0898741       0.0171091 
        5.87484       0.0912705       0.0169919 
        5.89053       0.0937467        0.016876 
        5.90623        0.095798       0.0167611 
        5.92195       0.0983228       0.0166471 
        5.93767        0.100553       0.0165342 
        5.95336        0.102201       0.0164226 
        5.96905        0.104903        0.016312 
        5.98476        0.107141       0.0162023 
        6.00048        0.108961       0.0160936 
        6.01617        0.111765        0.015986 
        6.03185        0.114687       0.0158795 
        6.04756        0.117094       0.0157737 
        6.06331        0.119287       0.0156687 
        6.07903        0.122296       0.0155648 
        6.09473          0.1256        0.015462 
        6.11044        0.128468         0.01536 
        6.12616        0.131039        0.015259 
        6.14186        0.134394       0.0151589 
        6.15755           0.137       0.0150598 
        6.17326        0.140832       0.0149615 
        6.18898        0.143069        0.014864 
        6.20467        0.147415       0.0147675 
        6.22036        0.150158       0.0146719 
         6.2361        0.153836       0.0145769 
         6.2518        0.157322       0.0144829 
        6.26748        0.160047       0.0143899 
        6.28319        0.164138       0.0142975 
        6.29893        0.168387       0.0142058 
        6.31463        0.171638       0.0141151 
        6.33033        0.176188       0.0140252 
        6.34604        0.180589        0.013936 
        6.36177        0.183667       0.0138475 
        6.37747        0.188426         0.01376 
