# k  (h/Mpc)    Pcb(k)  (Mpc/h)^3    Pcb_linear(k) (Mpc/h)^3   ShotnoiseSubtracted = true
      0.0200456         5227.64         5313.35 
      0.0350414         3793.61         3862.63 
      0.0492313         2802.46         2806.51 
      0.0637834         2370.98         2333.03 
      0.0800726         1878.99         1851.67 
       0.096163         1327.24         1343.54 
       0.111083         1052.79         1071.65 
       0.126058         961.621         949.697 
       0.142273         826.709         804.602 
       0.158546         670.624         635.467 
        0.17375         545.017          535.38 
       0.188953         514.588         484.775 
       0.204907         479.311         428.927 
       0.220756         401.239         362.898 
        0.23588          350.62          315.69 
         0.2514         310.195         286.801 
       0.267535         292.326         259.506 
       0.283568         263.825         228.849 
       0.299022         242.023         203.893 
       0.314451         220.164         186.344 
       0.330372         204.373          170.95 
       0.346141         184.194         155.163 
       0.361624         174.057         141.022 
       0.377134         163.693         129.762 
       0.392932          148.24         120.067 
       0.408854         142.397         110.678 
       0.424564         136.222         102.014 
       0.440253         127.111         94.5785 
       0.455999         119.642         88.1134 
       0.471626         110.748         82.1719 
        0.48727         107.238         76.6141 
       0.502856         102.044         71.6211 
       0.518488         98.5234         67.1661 
       0.534347         94.4654         63.0246 
       0.550082         87.0818         59.2058 
       0.565732         83.0763         55.7122 
       0.581496         80.2006         52.5125 
       0.597222         77.5721          49.578 
       0.612804         73.3559         46.8797 
       0.628434         71.5974         44.3646 
       0.644267         69.3638         42.0132 
       0.660051         67.0067          39.846 
       0.675724         64.1469         37.8449 
       0.691403         62.2308         35.9795 
       0.707174         60.2701         34.2294 
       0.722871         58.3864         32.6026 
        0.73838         56.9171          31.099 
       0.754018         54.1664         29.6788 
       0.769845         52.9786         28.3319 
        0.78569         51.5382         27.0674 
       0.801365         49.7185         25.8927 
       0.817031         48.4945         24.7888 
       0.832809         47.7186         23.7426 
       0.848511         45.2329         22.7617 
       0.864097         44.3151         21.8432 
       0.879701         43.5809         20.9748 
       0.895507         42.9051         20.1436 
       0.911279         41.6422         19.3593 
        0.92691         40.6191         18.6235 
       0.942635         39.1726         17.9221 
       0.958396         38.8928         17.2555 
       0.974128         37.7626         16.6241 
       0.989692         37.2092         16.0307 
        1.00528         36.3855         15.4655 
        1.02113         35.1895         14.9188 
        1.03692         34.5094         14.4006 
        1.05264         34.0314         13.9096 
        1.06832         33.1706         13.4423 
        1.08405         32.6218         12.9953 
        1.09979         31.9834         12.5685 
        1.11537         31.0625         12.1651 
        1.13105         30.9782         11.7771 
        1.14679         30.5159         11.4046 
        1.16256           29.57         11.0476 
        1.17828         29.1777          10.707 
        1.19395         28.5469          10.382 
         1.2097         28.3309         10.0689 
        1.22537         27.8207         9.77029 
          1.241         27.2428         9.48472 
        1.25666         26.5548         9.20988 
        1.27241         26.2972         8.94469 
        1.28819         25.6133         8.68952 
        1.30392         25.4072         8.44509 
        1.31957         25.2052         8.21117 
        1.33529         24.9118         7.98529 
        1.35108         24.3269         7.76704 
        1.36674         23.9258         7.55852 
         1.3824         23.4604         7.35788 
        1.39811         23.2565         7.16388 
        1.41389          23.005         6.97614 
        1.42964         22.5856         6.79548 
        1.44531          22.467         6.62211 
        1.46101         21.8752         6.45443 
        1.47667         21.6456         6.29308 
        1.49229          21.445         6.13769 
        1.50793         21.1462         5.98739 
        1.52367         20.9116         5.84116 
        1.53953         20.6758         5.69885 
        1.55526          20.287         5.56243 
        1.57092         20.0124         5.43104 
        1.58662         19.7967          5.3036 
        1.60235          19.555         5.18002 
        1.61809         19.3262         5.06031 
        1.63369         19.0966         4.94546 
        1.64941         18.7223         4.83337 
        1.66519         18.6574         4.72435 
        1.68085         18.3563         4.61947 
        1.69652         18.1329         4.51776 
        1.71228         17.9664         4.41853 
        1.72806         17.7663         4.32222 
        1.74368         17.5201         4.22975 
        1.75933         17.3354          4.1398 
        1.77505         17.1363         4.05205 
        1.79081         16.9018          3.9667 
         1.8065         16.8291         3.88417 
        1.82218         16.5252         3.80407 
        1.83797         16.3106         3.72569 
        1.85367         16.1622         3.64995 
        1.86928         16.0635         3.57677 
        1.88497         15.7979          3.5052 
        1.90073         15.7855         3.43533 
        1.91647         15.5363         3.36743 
        1.93218         15.3936         3.30152 
        1.94787         15.2648         3.23746 
        1.96363         15.1312         3.17486 
        1.97935         14.9477         3.11404 
        1.99499         14.7387         3.05516 
        2.01064          14.613         2.99772 
         2.0264         14.4505          2.9414 
        2.04216         14.3082         2.88656 
        2.05781         14.0984         2.83346 
        2.07353         13.9998         2.78151 
        2.08928         13.8782         2.73075 
        2.10499         13.7378         2.68139 
        2.12065         13.5344         2.63341 
        2.13633          13.527         2.58656 
        2.15211         13.3093         2.54054 
        2.16785         13.2932         2.49578 
        2.18349         13.1722         2.45238 
        2.19916         12.9794         2.40992 
        2.21489         12.8911         2.36832 
        2.23063         12.7384         2.32768 
         2.2463         12.6088         2.28818 
        2.26194          12.509         2.24969 
        2.27765         12.4467         2.21189 
        2.29341         12.2929         2.17486 
        2.30914         12.1125         2.13876 
        2.32486         12.0982          2.1035 
        2.34061          11.962         2.06897 
        2.35635         11.8428         2.03526 
        2.37203         11.7856         2.00241 
        2.38768         11.6113         1.97035 
        2.40339         11.4836         1.93888 
        2.41914          11.395         1.90802 
        2.43483         11.3565         1.87795 
         2.4505         11.2419         1.84857 
        2.46622         11.1326         1.81973 
        2.48195         11.0656         1.79149 
        2.49759         10.9543         1.76401 
        2.51328         10.8296         1.73703 
        2.52906         10.7482         1.71045 
        2.54479         10.6507         1.68452 
        2.56049         10.6128         1.65918 
        2.57618           10.53         1.63438 
        2.59189          10.372         1.61005 
        2.60758         10.3548         1.58626 
        2.62325         10.2876         1.56298 
        2.63898         10.1144         1.54008 
        2.65468         10.0361         1.51769 
        2.67044         9.97476         1.49565 
        2.68618         9.86621          1.4741 
        2.70184         9.81333         1.45306 
        2.71755         9.71502         1.43237 
        2.73329         9.61099         1.41206 
        2.74897         9.55935         1.39221 
        2.76462         9.54254         1.37279 
        2.78034         9.36717         1.35365 
        2.79607         9.33426         1.33486 
        2.81179         9.25073         1.31645 
        2.82749         9.22239          1.2984 
        2.84321         9.11892         1.28068 
        2.85893         9.05137         1.26329 
        2.87462         8.98179         1.24625 
        2.89033         8.87383         1.22951 
        2.90605         8.81966         1.21307 
        2.92176         8.76248         1.19693 
        2.93747         8.68874          1.1811 
        2.95318         8.65944         1.16555 
        2.96891         8.56676         1.15027 
        2.98456         8.47964         1.13533 
        3.00023         8.42507         1.12064 
        3.01596          8.3782         1.10616 
        3.03164         8.32895         1.09198 
        3.04738         8.27042         1.07801 
         3.0631         8.16274         1.06428 
        3.07883         8.12242         1.05079 
        3.09456         8.07089         1.03754 
        3.11026         7.98593         1.02454 
        3.12596         7.95343         1.01176 
        3.14163           7.867        0.999234 
        3.15734         7.82067        0.986887 
        3.17308         7.76658        0.974718 
        3.18879         7.68839        0.962789 
        3.20447         7.64322        0.951076 
         3.2202         7.57062        0.939521 
         3.2359         7.54322         0.92818 
        3.25157         7.48297        0.917052 
        3.26729         7.43761        0.906073 
        3.28304         7.35357        0.895252 
        3.29877         7.29903        0.884622 
        3.31446         7.26678        0.874188 
        3.33014         7.19426        0.863932 
        3.34585         7.17586        0.853824 
        3.36158         7.10917        0.843863 
        3.37727         7.06858        0.834092 
        3.39294         7.02609        0.824484 
        3.40867         6.92969        0.814994 
        3.42439         6.90888        0.805657 
        3.44008         6.84538        0.796486 
        3.45578         6.80499         0.78745 
        3.47153         6.76682        0.778534 
        3.48724         6.71565        0.769772 
        3.50292         6.68347        0.761166 
        3.51859         6.61759        0.752695 
        3.53431         6.56268        0.744326 
        3.55007         6.53905        0.736065 
        3.56577         6.49413        0.727961 
        3.58146          6.4485        0.719983 
        3.59719         6.38832        0.712106 
        3.61292         6.36486        0.704349 
        3.62859         6.30642        0.696737 
        3.64429         6.27019        0.689223 
        3.66003          6.2057        0.681797 
        3.67578         6.18832        0.674483 
        3.69146         6.12167        0.667303 
        3.70712         6.11343        0.660242 
        3.72284         6.03328        0.653256 
        3.73853         6.01199        0.646383 
        3.75422         5.96361        0.639607 
        3.76993         5.94265        0.632922 
        3.78564         5.88044        0.626335 
        3.80137         5.85523        0.619831 
        3.81707         5.80432        0.613434 
        3.83279         5.78327        0.607121 
        3.84853         5.71872        0.600887 
        3.86424         5.67508        0.594752 
        3.87992          5.6493        0.588712 
        3.89561         5.61206        0.582756 
        3.91134         5.56885         0.57687 
        3.92704          5.5289        0.571072 
        3.94273         5.49272         0.56536 
        3.95845         5.46352        0.559715 
        3.97418         5.43539        0.554146 
        3.98988         5.38493         0.54866 
        4.00554         5.35419        0.543263 
        4.02125         5.31794        0.537924 
        4.03698         5.28152        0.532648 
        4.05268         5.24804        0.527454 
        4.06839         5.22153        0.522326 
         4.0841         5.17631        0.517268 
        4.09983         5.13812         0.51227 
        4.11555         5.09125         0.50734 
        4.13124         5.06245        0.502488 
        4.14693         5.01583        0.497695 
        4.16266         4.98039        0.492954 
        4.17839         4.95734        0.488277 
        4.19408         4.91112        0.483672 
        4.20977         4.88498        0.479124 
        4.22551         4.84469        0.474623 
        4.24123         4.82124        0.470185 
        4.25691          4.7978        0.465816 
        4.27259         4.76621        0.461501 
        4.28831         4.73154        0.457232 
        4.30404         4.69117        0.453012 
        4.31974         4.66603        0.448855 
        4.33543         4.62042        0.444753 
        4.35116         4.59815        0.440692 
        4.36688          4.5501        0.436683 
        4.38255         4.52463        0.432739 
        4.39825          4.5162        0.428836 
        4.41398         4.48164        0.424972 
         4.4297          4.4518         0.42116 
        4.44541         4.41922        0.417396 
        4.46111         4.39891         0.41368 
        4.47683         4.34779        0.410007 
        4.49251         4.33695        0.406386 
        4.50819         4.30472         0.40281 
         4.5239         4.28025        0.399272 
        4.53962         4.26448        0.395771 
        4.55535         4.23028        0.392311 
        4.57106          4.2084        0.388898 
        4.58678         4.17559        0.385524 
         4.6025         4.15603        0.382189 
        4.61821         4.12248        0.378894 
        4.63391         4.09895        0.375643 
         4.6496         4.07802         0.37243 
        4.66532         4.04786        0.369251 
        4.68103         4.01105         0.36611 
        4.69673         3.99497        0.363008 
        4.71241         3.96365        0.359945 
        4.72811         3.94808        0.356913 
        4.74384         3.93353        0.353912 
        4.75955         3.89447         0.35095 
        4.77525         3.86431        0.348023 
        4.79096         3.84182        0.345126 
        4.80669         3.81785        0.342261 
         4.8224         3.80097        0.339431 
        4.83809         3.77578        0.336636 
        4.85379         3.75327        0.333871 
         4.8695         3.72615        0.331135 
        4.88521         3.70042        0.328431 
        4.90093         3.69351        0.325756 
        4.91663         3.66265        0.323114 
        4.93234         3.64124        0.320498 
        4.94807         3.62307        0.317909 
        4.96377         3.58472        0.315354 
        4.97943         3.56833        0.312832 
        4.99514         3.54579        0.310332 
        5.01086         3.53224        0.307856 
        5.02654         3.50546        0.305414 
        5.04227         3.48724        0.302991 
          5.058         3.47188        0.300594 
        5.07371         3.44565        0.298227 
        5.08942         3.42984        0.295885 
        5.10513         3.40493        0.293568 
        5.12084         3.38562        0.291275 
        5.13656         3.36893        0.289006 
        5.15225         3.34736        0.286766 
        5.16796         3.32794        0.284546 
        5.18369         3.31061        0.282347 
         5.1994          3.2868        0.280175 
        5.21509          3.2687        0.278028 
        5.23079         3.24872        0.275902 
        5.24649         3.23518        0.273799 
        5.26217         3.21317        0.271719 
        5.27788         3.18897        0.269658 
        5.29359         3.17167        0.267618 
        5.30933          3.1572        0.265596 
        5.32504          3.1368        0.263599 
        5.34073         3.11623        0.261624 
        5.35646         3.10888        0.259665 
        5.37218         3.08299        0.257726 
        5.38789         3.06467         0.25581 
        5.40357         3.05016        0.253916 
        5.41929         3.02732        0.252037 
        5.43502         3.01633        0.250176 
         5.4507         2.99901        0.248339 
        5.46639         2.97696         0.24652 
        5.48212         2.96373        0.244714 
        5.49786         2.94218        0.242925 
        5.51353         2.92741        0.241162 
        5.52921         2.91887        0.239416 
        5.54495         2.89803        0.237681 
        5.56066         2.87954        0.235965 
        5.57637         2.86591        0.234267 
        5.59207         2.85192        0.232586 
        5.60778         2.83668        0.230922 
        5.62346         2.81476        0.229276 
        5.63916         2.79899        0.227645 
        5.65487         2.78791        0.226028 
         5.6706         2.76788        0.224426 
        5.68633         2.75434        0.222838 
        5.70203         2.74167        0.221269 
        5.71773           2.721        0.219716 
        5.73344         2.70484        0.218176 
        5.74916         2.69242         0.21665 
        5.76486         2.68255         0.21514 
        5.78054         2.66531        0.213647 
        5.79626         2.65543        0.212164 
          5.812         2.63754        0.210694 
         5.8277          2.6266        0.209242 
        5.84339         2.60934        0.207803 
        5.85911         2.59866        0.206376 
        5.87484         2.58505        0.204962 
        5.89053         2.56711        0.203564 
        5.90623         2.55514        0.202178 
        5.92195         2.54252        0.200803 
        5.93767         2.52736        0.199441 
        5.95336         2.51259        0.198095 
        5.96905         2.50077        0.196761 
        5.98476         2.48861        0.195438 
        6.00048         2.47543        0.194126 
        6.01617         2.46077        0.192828 
        6.03185         2.44678        0.191544 
        6.04756         2.43188        0.190268 
        6.06331         2.41899        0.189001 
        6.07903         2.40544        0.187748 
        6.09473         2.39946        0.186508 
        6.11044           2.379        0.185278 
        6.12616         2.36857        0.184059 
        6.14186          2.3591        0.182852 
        6.15755          2.3486        0.181656 
        6.17326         2.33613         0.18047 
        6.18898         2.32602        0.179294 
        6.20467         2.31122        0.178131 
        6.22036         2.29824        0.176978 
         6.2361         2.29045        0.175832 
         6.2518         2.27974        0.174698 
        6.26748         2.26249        0.173576 
        6.28319         2.25265        0.172461 
        6.29893         2.24451        0.171356 
        6.31463         2.23194        0.170261 
        6.33033          2.2147        0.169177 
        6.34604         2.20923        0.168101 
        6.36177         2.19904        0.167033 
        6.37747         2.18755        0.165977 
