# k  (h/Mpc)    Pcb(k)  (Mpc/h)^3    Pcb_linear(k) (Mpc/h)^3   ShotnoiseSubtracted = true
      0.0200456         11654.7           11881 
      0.0350414         8372.04         8637.07 
      0.0492313         6216.79         6275.53 
      0.0637834         5319.05         5216.79 
      0.0800726         4208.37         4140.44 
       0.096163          2939.7         3004.25 
       0.111083         2339.59         2396.27 
       0.126058          2155.7         2123.58 
       0.142273         1862.46         1799.14 
       0.158546         1561.78         1420.94 
        0.17375         1252.71         1197.14 
       0.188953         1209.66         1083.99 
       0.204907         1136.13         959.106 
       0.220756         966.805         811.462 
        0.23588         851.774         705.901 
         0.2514         743.553         641.304 
       0.267535         725.592          580.27 
       0.283568         657.877          511.72 
       0.299022         613.827         455.916 
       0.314451         577.325         416.677 
       0.330372         532.406         382.254 
       0.346141         484.391         346.954 
       0.361624         465.784         315.334 
       0.377134          433.11         290.157 
       0.392932         411.421         268.476 
       0.408854         395.039         247.483 
       0.424564         375.026         228.109 
       0.440253         362.982         211.483 
       0.455999         341.654         197.027 
       0.471626         319.306         183.741 
        0.48727         309.807         171.314 
       0.502856           299.7         160.149 
       0.518488         296.347         150.188 
       0.534347         278.597         140.927 
       0.550082         262.458         132.388 
       0.565732         258.847         124.576 
       0.581496         245.359         117.421 
       0.597222         239.839         110.859 
       0.612804         231.551         104.826 
       0.628434         223.261         99.2019 
       0.644267         216.175         93.9441 
       0.660051         213.387         89.0982 
       0.675724         208.896         84.6235 
       0.691403         202.957         80.4524 
       0.707174         194.576          76.539 
       0.722871         192.839         72.9014 
        0.73838         188.715         69.5391 
       0.754018         183.441         66.3636 
       0.769845         177.821         63.3518 
        0.78569         176.026         60.5244 
       0.801365         170.625         57.8977 
       0.817031         165.182         55.4293 
       0.832809          162.97         53.0898 
       0.848511         158.889         50.8965 
       0.864097         156.482         48.8428 
       0.879701         152.978         46.9009 
       0.895507         149.133         45.0423 
       0.911279         145.919         43.2887 
        0.92691         144.952         41.6434 
       0.942635          141.37         40.0749 
       0.958396          141.09         38.5842 
       0.974128         137.144         37.1725 
       0.989692          133.85         35.8455 
        1.00528         131.474         34.5817 
        1.02113         130.729         33.3593 
        1.03692         125.833         32.2007 
        1.05264         124.727         31.1027 
        1.06832         122.134         30.0578 
        1.08405         120.535         29.0583 
        1.09979         119.984         28.1039 
        1.11537          116.03         27.2019 
        1.13105         115.606         26.3343 
        1.14679         114.554         25.5014 
        1.16256         112.842          24.703 
        1.17828          110.15         23.9415 
        1.19395         108.721         23.2148 
         1.2097         106.653         22.5147 
        1.22537         106.377          21.847 
          1.241         103.983         21.2084 
        1.25666         102.049         20.5939 
        1.27241         100.707         20.0009 
        1.28819         99.2676         19.4303 
        1.30392         98.0289         18.8837 
        1.31957         96.6922         18.3607 
        1.33529          94.811         17.8556 
        1.35108         93.7539         17.3676 
        1.36674         92.8201         16.9013 
         1.3824         91.0602         16.4527 
        1.39811         90.1511         16.0189 
        1.41389         88.8391         15.5991 
        1.42964         87.6021         15.1951 
        1.44531         85.7194         14.8074 
        1.46101         84.8795         14.4325 
        1.47667         84.4942         14.0717 
        1.49229         82.8351         13.7242 
        1.50793         82.2475         13.3882 
        1.52367         80.9993         13.0612 
        1.53953         79.7502          12.743 
        1.55526         79.0403         12.4379 
        1.57092         78.6196         12.1441 
        1.58662         76.8861         11.8592 
        1.60235         76.4395         11.5828 
        1.61809         75.2959         11.3152 
        1.63369         74.3497         11.0584 
        1.64941         73.6573         10.8077 
        1.66519         72.0445         10.5639 
        1.68085         71.6256         10.3294 
        1.69652         70.2652          10.102 
        1.71228         70.0376         9.88011 
        1.72806         69.0785         9.66474 
        1.74368         68.2664         9.45797 
        1.75933         67.3181         9.25684 
        1.77505         66.8103         9.06063 
        1.79081          65.759         8.86978 
         1.8065         65.1489         8.68524 
        1.82218         64.2212         8.50613 
        1.83797         63.6181         8.33086 
        1.85367         62.8984          8.1615 
        1.86928         62.4922         7.99787 
        1.88497         61.4389         7.83784 
        1.90073         60.5444         7.68161 
        1.91647         60.2951         7.52979 
        1.93218         59.4496         7.38239 
        1.94787         58.7357         7.23916 
        1.96363         57.9834         7.09918 
        1.97935         57.6519         6.96318 
        1.99499         56.6969         6.83153 
        2.01064         56.5133         6.70309 
         2.0264         55.1549         6.57715 
        2.04216         54.8683         6.45452 
        2.05781         54.2235         6.33578 
        2.07353         53.5778         6.21962 
        2.08928         52.9548         6.10612 
        2.10499         52.5856         5.99576 
        2.12065         51.9323         5.88846 
        2.13633         51.6023          5.7837 
        2.15211         51.2614         5.68081 
        2.16785         50.3779         5.58072 
        2.18349         50.0291         5.48366 
        2.19916         49.4302         5.38872 
        2.21489         49.0017         5.29571 
        2.23063         48.3514         5.20483 
         2.2463          47.919          5.1165 
        2.26194         47.0954         5.03044 
        2.27765         46.6871         4.94592 
        2.29341         46.1478         4.86313 
        2.30914          45.555          4.7824 
        2.32486         44.9086         4.70355 
        2.34061         44.6583         4.62635 
        2.35635         44.1424         4.55095 
        2.37203         43.5866          4.4775 
        2.38768         43.2148         4.40582 
        2.40339         42.8483         4.33545 
        2.41914         42.4907         4.26645 
        2.43483         41.8777         4.19921 
         2.4505         41.5369         4.13352 
        2.46622         41.1165         4.06901 
        2.48195         40.6494         4.00588 
        2.49759         40.1732         3.94443 
        2.51328         39.6538          3.8841 
        2.52906         39.4089         3.82466 
        2.54479          38.824         3.76668 
        2.56049         38.3822         3.71002 
        2.57618         38.0931         3.65457 
        2.59189         37.6222         3.60018 
        2.60758         37.4066         3.54697 
        2.62325         36.9151         3.49491 
        2.63898          36.534         3.44371 
        2.65468         36.1066         3.39365 
        2.67044         35.6847         3.34436 
        2.68618         35.4551         3.29617 
        2.70184         35.0568         3.24912 
        2.71755         34.8307         3.20287 
        2.73329         34.3868         3.15746 
        2.74897          34.034         3.11307 
        2.76462         33.5571         3.06963 
        2.78034         33.4464         3.02684 
        2.79607          33.041         2.98483 
        2.81179         32.7489         2.94366 
        2.82749         32.3885         2.90331 
        2.84321         32.0277         2.86367 
        2.85893         31.7025         2.82479 
        2.87462         31.3564         2.78669 
        2.89033         31.0659         2.74927 
        2.90605         30.8743         2.71249 
        2.92176         30.6345         2.67641 
        2.93747         30.2873         2.64101 
        2.95318         29.8694         2.60624 
        2.96891         29.6266         2.57207 
        2.98456         29.3115         2.53867 
        3.00023          28.991         2.50582 
        3.01596         28.7152         2.47344 
        3.03164         28.5954         2.44173 
        3.04738         28.2876         2.41049 
         3.0631         28.0103          2.3798 
        3.07883         27.6978         2.34964 
        3.09456         27.4148         2.32001 
        3.11026          27.173         2.29094 
        3.12596         26.9671         2.26237 
        3.14163         26.6547         2.23435 
        3.15734         26.4147         2.20674 
        3.17308         26.0983         2.17953 
        3.18879         25.9512         2.15285 
        3.20447         25.6223         2.12666 
         3.2202         25.3993         2.10083 
         3.2359         25.1141         2.07547 
        3.25157         25.0665         2.05058 
        3.26729         24.7731         2.02603 
        3.28304         24.4894         2.00184 
        3.29877         24.1955         1.97807 
        3.31446         23.9937         1.95474 
        3.33014         23.7688          1.9318 
        3.34585         23.6345          1.9092 
        3.36158         23.3115         1.88693 
        3.37727          23.072         1.86508 
        3.39294         22.9695          1.8436 
        3.40867          22.713         1.82237 
        3.42439         22.4873          1.8015 
        3.44008         22.3011         1.78099 
        3.45578         22.1511         1.76079 
        3.47153         21.8305         1.74085 
        3.48724         21.6887         1.72126 
        3.50292         21.5445         1.70201 
        3.51859         21.2642         1.68307 
        3.53431         21.0825         1.66436 
        3.55007         20.8521         1.64589 
        3.56577         20.6501         1.62776 
        3.58146         20.5625         1.60992 
        3.59719         20.2746         1.59231 
        3.61292         20.1393         1.57497 
        3.62859         19.9265         1.55795 
        3.64429         19.7709         1.54114 
        3.66003         19.6346         1.52454 
        3.67578         19.3758         1.50818 
        3.69146         19.3086         1.49213 
        3.70712         19.0996         1.47634 
        3.72284         18.9739         1.46072 
        3.73853         18.7332         1.44535 
        3.75422         18.5423          1.4302 
        3.76993          18.422         1.41525 
        3.78564           18.24         1.40052 
        3.80137         18.0933         1.38598 
        3.81707          17.915         1.37167 
        3.83279         17.7731         1.35756 
        3.84853         17.6032         1.34362 
        3.86424         17.4512          1.3299 
        3.87992         17.3164          1.3164 
        3.89561         17.1214         1.30308 
        3.91134         17.0275         1.28992 
        3.92704          16.871         1.27695 
        3.94273         16.7167         1.26418 
        3.95845         16.5363         1.25156 
        3.97418         16.4716          1.2391 
        3.98988         16.2737         1.22684 
        4.00554         16.1411         1.21477 
        4.02125         16.0267         1.20283 
        4.03698         15.9067         1.19103 
        4.05268         15.7285         1.17942 
        4.06839         15.5998         1.16795 
         4.0841         15.5101         1.15664 
        4.09983         15.3195         1.14547 
        4.11555         15.2217         1.13444 
        4.13124         15.1002         1.12359 
        4.14693         14.9636         1.11288 
        4.16266         14.8361         1.10227 
        4.17839         14.7048         1.09182 
        4.19408          14.551         1.08152 
        4.20977         14.4936         1.07135 
        4.22551         14.3323         1.06129 
        4.24123         14.2361         1.05136 
        4.25691         14.1434         1.04159 
        4.27259         13.9686         1.03194 
        4.28831         13.8258          1.0224 
        4.30404         13.7683         1.01296 
        4.31974         13.6475         1.00367 
        4.33543         13.5468        0.994495 
        4.35116          13.435        0.985414 
        4.36688         13.3135         0.97645 
        4.38255         13.1835        0.967631 
        4.39825         13.0898        0.958902 
        4.41398         13.0192        0.950263 
         4.4297         12.8577         0.94174 
        4.44541          12.775        0.933322 
        4.46111         12.6699        0.925014 
        4.47683         12.5817        0.916801 
        4.49251         12.4721        0.908705 
        4.50819         12.3832        0.900708 
         4.5239          12.288        0.892796 
        4.53962         12.1932        0.884969 
        4.55535         12.0819        0.877232 
        4.57106          11.968        0.869598 
        4.58678         11.8772        0.862054 
         4.6025          11.782        0.854597 
        4.61821         11.7023         0.84723 
        4.63391         11.6108        0.839959 
         4.6496         11.5029        0.832777 
        4.66532         11.3975        0.825667 
        4.68103         11.3136        0.818643 
        4.69673          11.248        0.811708 
        4.71241         11.1274         0.80486 
        4.72811         11.0422        0.798079 
        4.74384         10.9891        0.791368 
        4.75955         10.8786        0.784744 
        4.77525         10.7987          0.7782 
        4.79096         10.7235        0.771722 
        4.80669         10.6575        0.765315 
         4.8224         10.5769        0.758988 
        4.83809         10.4805        0.752739 
        4.85379         10.3959        0.746556 
         4.8695         10.3607        0.740438 
        4.88521         10.2296        0.734391 
        4.90093         10.1685        0.728411 
        4.91663         10.0846        0.722502 
        4.93234         10.0162        0.716653 
        4.94807         9.93661        0.710865 
        4.96377         9.85936        0.705151 
        4.97943         9.78325        0.699512 
        4.99514         9.72238         0.69392 
        5.01086          9.6531        0.688385 
        5.02654         9.58198        0.682925 
        5.04227          9.5007        0.677507 
          5.058          9.4132        0.672146 
        5.07371          9.3731        0.666853 
        5.08942         9.30083        0.661617 
        5.10513         9.22389        0.656436 
        5.12084         9.14801        0.651308 
        5.13656         9.08605        0.646236 
        5.15225          9.0246        0.641226 
        5.16796         8.96507        0.636261 
        5.18369         8.89637        0.631344 
         5.1994         8.79722        0.626489 
        5.21509         8.76697        0.621688 
        5.23079         8.69622        0.616933 
        5.24649         8.62525         0.61223 
        5.26217         8.57308         0.60758 
        5.27788         8.49648        0.602972 
        5.29359         8.44709         0.59841 
        5.30933          8.3607        0.593889 
        5.32504         8.31247        0.589423 
        5.34073         8.27205        0.585007 
        5.35646         8.19082        0.580627 
        5.37218         8.14197        0.576292 
        5.38789         8.08926        0.572007 
        5.40357         8.03619        0.567772 
        5.41929         7.97567        0.563569 
        5.43502         7.90553        0.559409 
         5.4507         7.85867          0.5553 
        5.46639         7.81531        0.551232 
        5.48212         7.75474        0.547196 
        5.49786         7.71389        0.543195 
        5.51353          7.6381        0.539254 
        5.52921         7.59756        0.535348 
        5.54495         7.54692        0.531469 
        5.56066         7.48324        0.527632 
        5.57637         7.42258        0.523834 
        5.59207         7.38714        0.520077 
        5.60778         7.32291        0.516355 
        5.62346         7.27398        0.512675 
        5.63916         7.22159        0.509027 
        5.65487         7.18156        0.505413 
         5.6706         7.11584         0.50183 
        5.68633         7.07746         0.49828 
        5.70203         7.03852        0.494771 
        5.71773         6.97611        0.491297 
        5.73344         6.93122        0.487855 
        5.74916         6.89823        0.484442 
        5.76486         6.85613        0.481066 
        5.78054         6.79454        0.477728 
        5.79626         6.74108        0.474412 
          5.812          6.7093        0.471124 
         5.8277         6.66665        0.467877 
        5.84339         6.60736        0.464661 
        5.85911          6.5745        0.461469 
        5.87484         6.52659        0.458307 
        5.89053          6.4883        0.455181 
        5.90623         6.44163        0.452083 
        5.92195         6.38237        0.449008 
        5.93767         6.36162        0.445963 
        5.95336         6.30864        0.442952 
        5.96905         6.27027        0.439969 
        5.98476         6.22598         0.43701 
        6.00048         6.20289        0.434077 
        6.01617         6.14962        0.431175 
        6.03185         6.11208        0.428303 
        6.04756         6.07048         0.42545 
        6.06331         6.03599        0.422617 
        6.07903           5.995        0.419816 
        6.09473         5.94821        0.417043 
        6.11044         5.91184        0.414292 
        6.12616         5.87766        0.411567 
        6.14186         5.84588        0.408868 
        6.15755         5.80464        0.406194 
        6.17326         5.75489        0.403542 
        6.18898         5.71489        0.400912 
        6.20467         5.68641        0.398311 
        6.22036         5.65864        0.395733 
         6.2361         5.60726         0.39317 
         6.2518         5.57782        0.390635 
        6.26748         5.55185        0.388127 
        6.28319         5.50406        0.385634 
        6.29893         5.47009        0.383161 
        6.31463         5.44961        0.380714 
        6.33033         5.40284        0.378289 
        6.34604         5.37763        0.375884 
        6.36177         5.34005        0.373497 
        6.37747         5.31173        0.371135 
