# k  (h/Mpc)    Pcb(k)  (Mpc/h)^3    Pcb_linear(k) (Mpc/h)^3   ShotnoiseSubtracted = true
      0.0200456         7135.05          7233.8 
      0.0350414         5378.07         5258.73 
      0.0492313         3806.01         3820.89 
      0.0637834         3090.45         3176.27 
      0.0800726         2439.42         2520.93 
       0.096163         1884.07         1829.15 
       0.111083         1526.16         1458.98 
       0.126058         1283.52         1292.95 
       0.142273         1097.39         1095.42 
       0.158546         897.196         865.149 
        0.17375         777.521         728.887 
       0.188953         711.075         659.991 
       0.204907          605.31         583.957 
       0.220756         539.799         494.063 
        0.23588         476.696         429.792 
         0.2514         427.584         390.462 
       0.267535         409.292         353.301 
       0.283568         356.738         311.564 
       0.299022         336.089         277.587 
       0.314451         329.206         253.696 
       0.330372         285.236         232.738 
       0.346141         263.814         211.245 
       0.361624         249.087         191.993 
       0.377134         228.817         176.664 
       0.392932          222.84         163.463 
       0.408854         210.192         150.682 
       0.424564         200.955         138.885 
       0.440253         181.647         128.763 
       0.455999         170.876         119.961 
       0.471626         166.775         111.872 
        0.48727         160.449         104.305 
       0.502856          146.55         97.5077 
       0.518488         144.562         91.4425 
       0.534347          135.25          85.804 
       0.550082         131.966         80.6051 
       0.565732         129.218         75.8487 
       0.581496         119.164         71.4925 
       0.597222          116.42         67.4974 
       0.612804         112.536         63.8238 
       0.628434         109.527         60.3996 
       0.644267         103.824         57.1984 
       0.660051         100.563         54.2479 
       0.675724         98.7223         51.5235 
       0.691403         96.5071         48.9839 
       0.707174         93.1235         46.6012 
       0.722871         91.2219         44.3864 
        0.73838         88.5351         42.3393 
       0.754018         83.3971         40.4058 
       0.769845          82.845         38.5721 
        0.78569         80.3176         36.8506 
       0.801365          77.915         35.2513 
       0.817031         75.2925         33.7484 
       0.832809         73.9691          32.324 
       0.848511          72.236         30.9886 
       0.864097         70.9133         29.7382 
       0.879701         69.5068         28.5559 
       0.895507         66.9097         27.4242 
       0.911279         65.9228         26.3566 
        0.92691          64.024         25.3548 
       0.942635         62.6894         24.3998 
       0.958396         62.4775         23.4922 
       0.974128         60.9232         22.6327 
       0.989692         59.3761         21.8248 
        1.00528         58.2999         21.0553 
        1.02113         57.0111          20.311 
        1.03692         56.7446         19.6056 
        1.05264         55.4902          18.937 
        1.06832          54.014         18.3009 
        1.08405         53.1502         17.6923 
        1.09979         52.8516         17.1112 
        1.11537         51.3823         16.5621 
        1.13105         50.1737         16.0338 
        1.14679         49.6508         15.5267 
        1.16256         48.8941         15.0406 
        1.17828          48.331         14.5769 
        1.19395         47.0627         14.1345 
         1.2097         47.0708         13.7082 
        1.22537         45.9398         13.3016 
          1.241         45.3212         12.9129 
        1.25666         44.2994         12.5387 
        1.27241         44.1547         12.1776 
        1.28819         43.0909         11.8302 
        1.30392         42.6547         11.4975 
        1.31957         42.2921          11.179 
        1.33529          41.529         10.8715 
        1.35108         40.7874         10.5743 
        1.36674          40.313         10.2905 
         1.3824         39.6909         10.0173 
        1.39811         39.0024         9.75317 
        1.41389         38.5182         9.49759 
        1.42964         38.2464         9.25162 
        1.44531         37.4055         9.01559 
        1.46101         37.2148         8.78731 
        1.47667         36.7351         8.56764 
        1.49229          36.099         8.35609 
        1.50793         35.7806         8.15146 
        1.52367         35.1835         7.95238 
        1.53953         35.0228         7.75863 
        1.55526         34.4422          7.5729 
        1.57092          34.033         7.39403 
        1.58662         33.5292         7.22053 
        1.60235         33.1265         7.05227 
        1.61809         32.7662          6.8893 
        1.63369         32.4244         6.73294 
        1.64941         32.0022         6.58033 
        1.66519         31.5153         6.43191 
        1.68085         31.1032         6.28913 
        1.69652          30.793         6.15065 
        1.71228         30.6212         6.01556 
        1.72806          30.105         5.88443 
        1.74368         29.7266         5.75854 
        1.75933         29.5352         5.63608 
        1.77505         29.2978         5.51662 
        1.79081         28.8972         5.40041 
         1.8065         28.4919         5.28806 
        1.82218         28.1625         5.17901 
        1.83797         28.0047         5.07229 
        1.85367         27.5936         4.96917 
        1.86928         27.6064         4.86955 
        1.88497         27.0155         4.77212 
        1.90073         26.8265         4.67699 
        1.91647         26.5657         4.58455 
        1.93218         26.5236         4.49481 
        1.94787         26.1431         4.40761 
        1.96363         25.7762         4.32237 
        1.97935          25.499         4.23957 
        1.99499         25.3483         4.15941 
        2.01064         24.9566         4.08122 
         2.0264         24.7654         4.00454 
        2.04216         24.6456         3.92987 
        2.05781         24.3423         3.85758 
        2.07353         24.1159         3.78685 
        2.08928         23.7275         3.71775 
        2.10499         23.5803         3.65055 
        2.12065         23.3342         3.58522 
        2.13633         23.1752         3.52144 
        2.15211         22.7943         3.45879 
        2.16785         22.7712         3.39785 
        2.18349         22.4769         3.33876 
        2.19916         22.2672         3.28095 
        2.21489         22.0062         3.22432 
        2.23063         21.9175         3.16899 
         2.2463         21.6482         3.11521 
        2.26194         21.4476         3.06281 
        2.27765         21.1635         3.01135 
        2.29341         20.9815         2.96094 
        2.30914         20.7873         2.91179 
        2.32486          20.666         2.86378 
        2.34061         20.4779         2.81678 
        2.35635         20.1714         2.77087 
        2.37203         20.0721         2.72615 
        2.38768         19.8905         2.68251 
        2.40339         19.7961         2.63966 
        2.41914         19.5614         2.59765 
        2.43483         19.4001         2.55671 
         2.4505         19.1115         2.51672 
        2.46622         19.0227         2.47744 
        2.48195         18.8147           2.439 
        2.49759         18.5553         2.40159 
        2.51328          18.496         2.36486 
        2.52906         18.3636         2.32867 
        2.54479         18.1558         2.29337 
        2.56049         18.0249         2.25887 
        2.57618         17.9325         2.22511 
        2.59189         17.6555         2.19199 
        2.60758         17.4702         2.15959 
        2.62325         17.3557          2.1279 
        2.63898         17.2605         2.09672 
        2.65468         17.0551         2.06624 
        2.67044          16.877         2.03623 
        2.68618         16.7791         2.00689 
        2.70184         16.6028         1.97825 
        2.71755         16.4385         1.95009 
        2.73329          16.332         1.92244 
        2.74897         16.1817         1.89541 
        2.76462           16.06         1.86896 
        2.78034         15.8644         1.84291 
        2.79607         15.7788         1.81733 
        2.81179         15.6526         1.79226 
        2.82749         15.4812          1.7677 
        2.84321         15.3884         1.74356 
        2.85893         15.1735         1.71989 
        2.87462          15.133         1.69669 
        2.89033         14.9721         1.67391 
        2.90605         14.8495         1.65152 
        2.92176         14.7121         1.62955 
        2.93747         14.5849         1.60799 
        2.95318         14.4817         1.58682 
        2.96891         14.3471         1.56602 
        2.98456         14.2428         1.54569 
        3.00023         14.1064         1.52568 
        3.01596         14.0235         1.50597 
        3.03164         13.8866         1.48666 
        3.04738          13.771         1.46764 
         3.0631         13.6406         1.44895 
        3.07883         13.5506         1.43059 
        3.09456         13.4275         1.41255 
        3.11026         13.3411         1.39485 
        3.12596          13.235         1.37745 
        3.14163         13.0923          1.3604 
        3.15734         12.9865         1.34359 
        3.17308         12.9307         1.32702 
        3.18879         12.7579         1.31078 
        3.20447         12.7279         1.29483 
         3.2202         12.5787          1.2791 
         3.2359         12.4682         1.26366 
        3.25157         12.4226         1.24851 
        3.26729         12.2589         1.23356 
        3.28304         12.1597         1.21883 
        3.29877         12.1248         1.20436 
        3.31446          11.991         1.19015 
        3.33014         11.9189         1.17619 
        3.34585          11.768         1.16243 
        3.36158         11.6952         1.14887 
        3.37727         11.6509         1.13556 
        3.39294         11.5335         1.12248 
        3.40867         11.4155         1.10956 
        3.42439         11.3221         1.09685 
        3.44008         11.2722         1.08437 
        3.45578         11.1341         1.07206 
        3.47153         11.0828         1.05993 
        3.48724         11.0114           1.048 
        3.50292         10.9172         1.03628 
        3.51859         10.8216         1.02475 
        3.53431         10.6993         1.01335 
        3.55007         10.6488         1.00211 
        3.56577         10.5281        0.991074 
        3.58146         10.4337        0.980212 
        3.59719         10.3641        0.969488 
        3.61292         10.3307        0.958927 
        3.62859         10.2347        0.948564 
        3.64429         10.1412        0.938334 
        3.66003         10.0669        0.928224 
        3.67578         9.97943        0.918266 
        3.69146         9.93155        0.908492 
        3.70712         9.82824        0.898878 
        3.72284         9.75901        0.889367 
        3.73853          9.6949        0.880011 
        3.75422         9.61969        0.870785 
        3.76993         9.51754        0.861684 
        3.78564         9.47624        0.852717 
        3.80137         9.39133        0.843862 
        3.81707         9.30452        0.835152 
        3.83279         9.22547        0.826557 
        3.84853         9.17988         0.81807 
        3.86424         9.10054        0.809718 
        3.87992         9.05719        0.801495 
        3.89561         8.97558        0.793386 
        3.91134         8.90212        0.785373 
        3.92704         8.83128        0.777479 
        3.94273         8.76298        0.769702 
        3.95845         8.69815        0.762017 
        3.97418         8.63232        0.754435 
        3.98988         8.58913        0.746966 
        4.00554           8.512        0.739619 
        4.02125         8.46093         0.73235 
        4.03698         8.38985        0.725167 
        4.05268         8.31275        0.718096 
        4.06839         8.23116        0.711115 
         4.0841         8.17533        0.704229 
        4.09983         8.12506        0.697424 
        4.11555         8.03344        0.690711 
        4.13124         7.99062        0.684106 
        4.14693          7.9241        0.677581 
        4.16266         7.87754        0.671126 
        4.17839         7.81264        0.664759 
        4.19408         7.77739        0.658489 
        4.20977         7.67073        0.652297 
        4.22551         7.64657         0.64617 
        4.24123         7.60499        0.640128 
        4.25691         7.54342         0.63418 
        4.27259         7.45354        0.628305 
        4.28831         7.41435        0.622492 
        4.30404         7.37304        0.616748 
        4.31974         7.30587        0.611089 
        4.33543         7.24577        0.605504 
        4.35116         7.17764        0.599975 
        4.36688         7.14592        0.594517 
        4.38255          7.0998        0.589148 
        4.39825         7.02524        0.583833 
        4.41398         6.97711        0.578573 
         4.4297         6.93033        0.573384 
        4.44541         6.88112        0.568259 
        4.46111         6.85441          0.5632 
        4.47683         6.78942          0.5582 
        4.49251         6.74649         0.55327 
        4.50819         6.69436        0.548401 
         4.5239          6.6239        0.543584 
        4.53962          6.5915        0.538818 
        4.55535         6.53797        0.534108 
        4.57106         6.50283         0.52946 
        4.58678         6.44277        0.524866 
         4.6025         6.39774        0.520326 
        4.61821         6.36568        0.515841 
        4.63391          6.3068        0.511414 
         4.6496         6.26526        0.507041 
        4.66532          6.2249        0.502712 
        4.68103         6.18062        0.498436 
        4.69673         6.13939        0.494213 
        4.71241         6.09125        0.490043 
        4.72811         6.05266        0.485915 
        4.74384         6.02772        0.481829 
        4.75955         5.96879        0.477796 
        4.77525         5.92814        0.473811 
        4.79096         5.88912        0.469867 
        4.80669         5.83107        0.465966 
         4.8224         5.80101        0.462114 
        4.83809         5.75895        0.458309 
        4.85379         5.71222        0.454545 
         4.8695         5.68377         0.45082 
        4.88521         5.64858        0.447138 
        4.90093         5.60242        0.443497 
        4.91663         5.55537          0.4399 
        4.93234         5.52924        0.436338 
        4.94807         5.48404        0.432814 
        4.96377         5.44914        0.429335 
        4.97943          5.4122        0.425902 
        4.99514         5.36678        0.422497 
        5.01086         5.34061        0.419127 
        5.02654         5.30741        0.415803 
        5.04227         5.26937        0.412504 
          5.058         5.21971         0.40924 
        5.07371         5.19246        0.406017 
        5.08942         5.16298        0.402829 
        5.10513         5.12939        0.399675 
        5.12084         5.09672        0.396552 
        5.13656         5.04636        0.393464 
        5.15225         5.02068        0.390414 
        5.16796           4.991        0.387391 
        5.18369         4.94484        0.384398 
         5.1994         4.91429        0.381441 
        5.21509         4.89221        0.378518 
        5.23079         4.85889        0.375623 
        5.24649         4.82677         0.37276 
        5.26217         4.79047        0.369929 
        5.27788          4.7677        0.367123 
        5.29359         4.72603        0.364345 
        5.30933         4.70018        0.361593 
        5.32504         4.66958        0.358873 
        5.34073          4.6414        0.356185 
        5.35646         4.61578        0.353518 
        5.37218         4.56639        0.350879 
        5.38789         4.54829         0.34827 
        5.40357         4.51469        0.345691 
        5.41929         4.48364        0.343132 
        5.43502         4.45384        0.340599 
         5.4507         4.43509        0.338098 
        5.46639         4.39834        0.335621 
        5.48212         4.38039        0.333163 
        5.49786         4.34235        0.330727 
        5.51353         4.31997        0.328328 
        5.52921         4.29925        0.325949 
        5.54495         4.26264        0.323588 
        5.56066         4.23474        0.321252 
        5.57637         4.20572         0.31894 
        5.59207         4.18083        0.316652 
        5.60778         4.15738        0.314386 
        5.62346         4.13592        0.312145 
        5.63916         4.09929        0.309924 
        5.65487           4.081        0.307724 
         5.6706         4.06124        0.305542 
        5.68633         4.03315         0.30338 
        5.70203         4.00693        0.301244 
        5.71773         3.98292        0.299129 
        5.73344         3.95526        0.297033 
        5.74916         3.93196        0.294955 
        5.76486          3.9042          0.2929 
        5.78054         3.88411        0.290867 
        5.79626         3.85926        0.288849 
          5.812         3.83387        0.286847 
         5.8277         3.80208         0.28487 
        5.84339         3.79329        0.282912 
        5.85911         3.76436        0.280968 
        5.87484          3.7436        0.279043 
        5.89053         3.71789        0.277139 
        5.90623         3.69986        0.275253 
        5.92195          3.6765        0.273381 
        5.93767         3.64705        0.271527 
        5.95336         3.63358        0.269694 
        5.96905         3.60223        0.267878 
        5.98476         3.59543        0.266076 
        6.00048         3.55901         0.26429 
        6.01617         3.54351        0.262523 
        6.03185         3.52541        0.260775 
        6.04756          3.4953        0.259038 
        6.06331         3.47956        0.257313 
        6.07903         3.45476        0.255607 
        6.09473          3.4394        0.253919 
        6.11044         3.41601        0.252244 
        6.12616         3.39718        0.250585 
        6.14186         3.37851        0.248942 
        6.15755          3.3549        0.247314 
        6.17326         3.33803        0.245699 
        6.18898         3.31523        0.244098 
        6.20467         3.29971        0.242514 
        6.22036         3.27929        0.240944 
         6.2361          3.2624        0.239384 
         6.2518         3.24428         0.23784 
        6.26748         3.22739        0.236313 
        6.28319         3.20228        0.234796 
        6.29893         3.18756         0.23329 
        6.31463         3.17057          0.2318 
        6.33033         3.15482        0.230324 
        6.34604         3.13453        0.228859 
        6.36177         3.11748        0.227406 
        6.37747         3.09486        0.225968 
