# k  (h/Mpc)    Pcb(k)  (Mpc/h)^3    Pcb_linear(k) (Mpc/h)^3   ShotnoiseSubtracted = true
      0.0200456         11705.8           11881 
      0.0350414         8865.69         8637.07 
      0.0492313         6215.77         6275.53 
      0.0637834         5029.74         5216.79 
      0.0800726          3962.3         4140.44 
       0.096163         3107.73         3004.25 
       0.111083         2525.18         2396.27 
       0.126058         2105.13         2123.58 
       0.142273         1815.52         1799.14 
       0.158546         1490.54         1420.94 
        0.17375         1304.04         1197.14 
       0.188953         1207.99         1083.99 
       0.204907         1031.79         959.106 
       0.220756           924.8         811.462 
        0.23588         821.686         705.901 
         0.2514         735.884         641.304 
       0.267535         713.219          580.27 
       0.283568         623.299          511.72 
       0.299022           593.9         455.916 
       0.314451         599.399         416.677 
       0.330372         515.211         382.254 
       0.346141         477.391         346.954 
       0.361624         455.827         315.334 
       0.377134         426.078         290.157 
       0.392932         413.372         268.476 
       0.408854         392.972         247.483 
       0.424564          379.57         228.109 
       0.440253         343.321         211.483 
       0.455999         328.458         197.027 
       0.471626          329.09         183.741 
        0.48727         312.417         171.314 
       0.502856         286.627         160.149 
       0.518488         287.699         150.188 
       0.534347         267.296         140.927 
       0.550082         259.806         132.388 
       0.565732          258.17         124.576 
       0.581496         244.131         117.421 
       0.597222         237.778         110.859 
       0.612804         231.204         104.826 
       0.628434         222.936         99.2019 
       0.644267         213.002         93.9441 
       0.660051         209.133         89.0982 
       0.675724         206.809         84.6235 
       0.691403         201.269         80.4524 
       0.707174         194.331          76.539 
       0.722871         191.325         72.9014 
        0.73838         189.528         69.5391 
       0.754018          179.11         66.3636 
       0.769845         179.002         63.3518 
        0.78569          174.35         60.5244 
       0.801365         169.414         57.8977 
       0.817031         165.351         55.4293 
       0.832809         162.621         53.0898 
       0.848511         158.704         50.8965 
       0.864097         155.472         48.8428 
       0.879701         154.074         46.9009 
       0.895507         150.092         45.0423 
       0.911279         145.987         43.2887 
        0.92691         143.596         41.6434 
       0.942635         141.343         40.0749 
       0.958396         139.101         38.5842 
       0.974128         136.227         37.1725 
       0.989692         132.717         35.8455 
        1.00528         131.503         34.5817 
        1.02113         128.187         33.3593 
        1.03692         127.147         32.2007 
        1.05264         125.525         31.1027 
        1.06832         122.591         30.0578 
        1.08405         120.851         29.0583 
        1.09979         120.058         28.1039 
        1.11537         117.036         27.2019 
        1.13105         115.898         26.3343 
        1.14679         113.849         25.5014 
        1.16256         111.756          24.703 
        1.17828         110.657         23.9415 
        1.19395         107.905         23.2148 
         1.2097         107.337         22.5147 
        1.22537         105.091          21.847 
          1.241           104.4         21.2084 
        1.25666         101.365         20.5939 
        1.27241         99.9582         20.0009 
        1.28819         99.5111         19.4303 
        1.30392         97.6514         18.8837 
        1.31957         96.2918         18.3607 
        1.33529         95.1225         17.8556 
        1.35108          94.505         17.3676 
        1.36674          92.647         16.9013 
         1.3824         92.2857         16.4527 
        1.39811         89.8853         16.0189 
        1.41389         88.9472         15.5991 
        1.42964          87.395         15.1951 
        1.44531          86.761         14.8074 
        1.46101           85.73         14.4325 
        1.47667         84.8345         14.0717 
        1.49229         83.9358         13.7242 
        1.50793          82.496         13.3882 
        1.52367         81.8694         13.0612 
        1.53953         80.7357          12.743 
        1.55526         79.3316         12.4379 
        1.57092         79.1324         12.1441 
        1.58662         78.0194         11.8592 
        1.60235         76.8091         11.5828 
        1.61809         75.8604         11.3152 
        1.63369         74.7902         11.0584 
        1.64941          74.777         10.8077 
        1.66519         72.9705         10.5639 
        1.68085         72.3056         10.3294 
        1.69652         71.0109          10.102 
        1.71228         70.3439         9.88011 
        1.72806         69.9884         9.66474 
        1.74368         68.8214         9.45797 
        1.75933         68.2115         9.25684 
        1.77505         67.5854         9.06063 
        1.79081         66.4415         8.86978 
         1.8065         66.2494         8.68524 
        1.82218         64.5492         8.50613 
        1.83797         64.2559         8.33086 
        1.85367         63.4245          8.1615 
        1.86928         62.8534         7.99787 
        1.88497         62.0773         7.83784 
        1.90073         61.2329         7.68161 
        1.91647         60.6888         7.52979 
        1.93218         60.1109         7.38239 
        1.94787         59.2639         7.23916 
        1.96363         58.5092         7.09918 
        1.97935         57.8877         6.96318 
        1.99499         57.3424         6.83153 
        2.01064          56.725         6.70309 
         2.0264         56.1859         6.57715 
        2.04216         55.3998         6.45452 
        2.05781         54.7345         6.33578 
        2.07353         54.0136         6.21962 
        2.08928         53.5706         6.10612 
        2.10499         53.0531         5.99576 
        2.12065         52.5069         5.88846 
        2.13633         52.0743          5.7837 
        2.15211         51.3085         5.68081 
        2.16785          50.549         5.58072 
        2.18349         50.0371         5.48366 
        2.19916         49.5073         5.38872 
        2.21489         49.2596         5.29571 
        2.23063         48.4452         5.20483 
         2.2463         48.0431          5.1165 
        2.26194         47.7187         5.03044 
        2.27765         46.9871         4.94592 
        2.29341         46.3116         4.86313 
        2.30914         45.8895          4.7824 
        2.32486         45.3102         4.70355 
        2.34061         45.0089         4.62635 
        2.35635         44.3386         4.55095 
        2.37203         43.9467          4.4775 
        2.38768         43.6663         4.40582 
        2.40339          43.196         4.33545 
        2.41914         42.7768         4.26645 
        2.43483         41.9645         4.19921 
         2.4505         41.8378         4.13352 
        2.46622         41.3793         4.06901 
        2.48195         40.8991         4.00588 
        2.49759          40.431         3.94443 
        2.51328         40.0684          3.8841 
        2.52906         39.6565         3.82466 
        2.54479         39.2881         3.76668 
        2.56049          38.736         3.71002 
        2.57618         38.4687         3.65457 
        2.59189         37.9953         3.60018 
        2.60758          37.512         3.54697 
        2.62325         37.4593         3.49491 
        2.63898         36.8935         3.44371 
        2.65468          36.507         3.39365 
        2.67044          36.248         3.34436 
        2.68618         35.9107         3.29617 
        2.70184         35.3827         3.24912 
        2.71755         35.1406         3.20287 
        2.73329         34.6002         3.15746 
        2.74897         34.3377         3.11307 
        2.76462         33.9231         3.06963 
        2.78034         33.7114         3.02684 
        2.79607         33.2711         2.98483 
        2.81179         33.0173         2.94366 
        2.82749         32.6787         2.90331 
        2.84321         32.2951         2.86367 
        2.85893          31.997         2.82479 
        2.87462         31.7411         2.78669 
        2.89033         31.4268         2.74927 
        2.90605         31.1775         2.71249 
        2.92176         30.9608         2.67641 
        2.93747         30.5739         2.64101 
        2.95318          30.263         2.60624 
        2.96891          30.025         2.57207 
        2.98456         29.6875         2.53867 
        3.00023         29.3233         2.50582 
        3.01596         29.1019         2.47344 
        3.03164         28.7677         2.44173 
        3.04738         28.5827         2.41049 
         3.0631         28.3364          2.3798 
        3.07883          27.933         2.34964 
        3.09456         27.6446         2.32001 
        3.11026         27.3809         2.29094 
        3.12596         27.0934         2.26237 
        3.14163         26.8572         2.23435 
        3.15734         26.6545         2.20674 
        3.17308         26.3164         2.17953 
        3.18879         26.1368         2.15285 
        3.20447         25.8776         2.12666 
         3.2202         25.5614         2.10083 
         3.2359         25.3576         2.07547 
        3.25157         25.1787         2.05058 
        3.26729         24.9681         2.02603 
        3.28304         24.6094         2.00184 
        3.29877         24.3973         1.97807 
        3.31446         24.2118         1.95474 
        3.33014         23.9762          1.9318 
        3.34585         23.7985          1.9092 
        3.36158         23.5355         1.88693 
        3.37727         23.3023         1.86508 
        3.39294         23.1285          1.8436 
        3.40867         22.9217         1.82237 
        3.42439         22.6897          1.8015 
        3.44008         22.4361         1.78099 
        3.45578         22.3203         1.76079 
        3.47153         22.0404         1.74085 
        3.48724         21.9202         1.72126 
        3.50292         21.6723         1.70201 
        3.51859         21.5045         1.68307 
        3.53431          21.323         1.66436 
        3.55007         21.0964         1.64589 
        3.56577          20.941         1.62776 
        3.58146         20.7044         1.60992 
        3.59719         20.5061         1.59231 
        3.61292         20.3518         1.57497 
        3.62859         20.1183         1.55795 
        3.64429         19.9044         1.54114 
        3.66003         19.8692         1.52454 
        3.67578         19.6635         1.50818 
        3.69146         19.4094         1.49213 
        3.70712         19.2683         1.47634 
        3.72284         19.0979         1.46072 
        3.73853         18.9438         1.44535 
        3.75422         18.7793          1.4302 
        3.76993         18.6064         1.41525 
        3.78564         18.4617         1.40052 
        3.80137         18.2887         1.38598 
        3.81707         18.1261         1.37167 
        3.83279         17.9263         1.35756 
        3.84853         17.7841         1.34362 
        3.86424         17.6165          1.3299 
        3.87992         17.4633          1.3164 
        3.89561         17.3407         1.30308 
        3.91134         17.1749         1.28992 
        3.92704         17.0505         1.27695 
        3.94273         16.9189         1.26418 
        3.95845         16.7246         1.25156 
        3.97418         16.5693          1.2391 
        3.98988         16.4429         1.22684 
        4.00554         16.3629         1.21477 
        4.02125         16.1261         1.20283 
        4.03698         15.9751         1.19103 
        4.05268          15.914         1.17942 
        4.06839         15.7537         1.16795 
         4.0841         15.6317         1.15664 
        4.09983         15.4286         1.14547 
        4.11555         15.3772         1.13444 
        4.13124         15.2535         1.12359 
        4.14693          15.119         1.11288 
        4.16266         15.0025         1.10227 
        4.17839         14.8372         1.09182 
        4.19408         14.7006         1.08152 
        4.20977         14.6189         1.07135 
        4.22551         14.4798         1.06129 
        4.24123         14.3419         1.05136 
        4.25691         14.2182         1.04159 
        4.27259         14.1035         1.03194 
        4.28831         14.0418          1.0224 
        4.30404         13.9217         1.01296 
        4.31974         13.7864         1.00367 
        4.33543         13.6447        0.994495 
        4.35116         13.5493        0.985414 
        4.36688         13.4198         0.97645 
        4.38255         13.3399        0.967631 
        4.39825         13.2215        0.958902 
        4.41398         13.1183        0.950263 
         4.4297         12.9912         0.94174 
        4.44541         12.8983        0.933322 
        4.46111         12.8072        0.925014 
        4.47683         12.6811        0.916801 
        4.49251         12.5803        0.908705 
        4.50819         12.4784        0.900708 
         4.5239         12.3975        0.892796 
        4.53962          12.301        0.884969 
        4.55535         12.1858        0.877232 
        4.57106         12.1081        0.869598 
        4.58678         12.0043        0.862054 
         4.6025         11.9059        0.854597 
        4.61821         11.8076         0.84723 
        4.63391         11.7261        0.839959 
         4.6496         11.6302        0.832777 
        4.66532         11.5503        0.825667 
        4.68103         11.4357        0.818643 
        4.69673         11.3341        0.811708 
        4.71241         11.2726         0.80486 
        4.72811         11.1918        0.798079 
        4.74384         11.0652        0.791368 
        4.75955         11.0126        0.784744 
        4.77525          10.926          0.7782 
        4.79096         10.8597        0.771722 
        4.80669         10.7492        0.765315 
         4.8224         10.6723        0.758988 
        4.83809         10.5797        0.752739 
        4.85379         10.5068        0.746556 
         4.8695         10.4129        0.740438 
        4.88521         10.3328        0.734391 
        4.90093         10.2657        0.728411 
        4.91663         10.1588        0.722502 
        4.93234         10.1078        0.716653 
        4.94807         10.0164        0.710865 
        4.96377         9.95971        0.705151 
        4.97943         9.86753        0.699512 
        4.99514         9.77606         0.69392 
        5.01086         9.75274        0.688385 
        5.02654         9.66615        0.682925 
        5.04227         9.56355        0.677507 
          5.058         9.49998        0.672146 
        5.07371         9.42192        0.666853 
        5.08942         9.37112        0.661617 
        5.10513         9.28104        0.656436 
        5.12084          9.2472        0.651308 
        5.13656         9.15224        0.646236 
        5.15225         9.06964        0.641226 
        5.16796         9.01889        0.636261 
        5.18369         8.94151        0.631344 
         5.1994         8.89072        0.626489 
        5.21509         8.83084        0.621688 
        5.23079         8.75464        0.616933 
        5.24649         8.67302         0.61223 
        5.26217         8.62313         0.60758 
        5.27788         8.58081        0.602972 
        5.29359         8.49969         0.59841 
        5.30933         8.44236        0.593889 
        5.32504         8.39508        0.589423 
        5.34073          8.3328        0.585007 
        5.35646         8.25442        0.580627 
        5.37218         8.19979        0.576292 
        5.38789         8.11762        0.572007 
        5.40357         8.08296        0.567772 
        5.41929          8.0327        0.563569 
        5.43502         7.97156        0.559409 
         5.4507         7.91701          0.5553 
        5.46639          7.8583        0.551232 
        5.48212         7.80114        0.547196 
        5.49786          7.7587        0.543195 
        5.51353         7.69888        0.539254 
        5.52921         7.64497        0.535348 
        5.54495         7.58076        0.531469 
        5.56066         7.52053        0.527632 
        5.57637         7.48723        0.523834 
        5.59207         7.43642        0.520077 
        5.60778         7.36909        0.516355 
        5.62346         7.31922        0.512675 
        5.63916         7.28283        0.509027 
        5.65487         7.24093        0.505413 
         5.6706         7.17657         0.50183 
        5.68633         7.13887         0.49828 
        5.70203         7.07732        0.494771 
        5.71773         7.04314        0.491297 
        5.73344         6.98972        0.487855 
        5.74916         6.93007        0.484442 
        5.76486         6.89717        0.481066 
        5.78054         6.83394        0.477728 
        5.79626         6.78793        0.474412 
          5.812         6.75418        0.471124 
         5.8277         6.69702        0.467877 
        5.84339         6.66036        0.464661 
        5.85911         6.60357        0.461469 
        5.87484         6.57468        0.458307 
        5.89053         6.52298        0.455181 
        5.90623         6.49296        0.452083 
        5.92195         6.43816        0.449008 
        5.93767         6.39717        0.445963 
        5.95336         6.34703        0.442952 
        5.96905         6.31085        0.439969 
        5.98476         6.27178         0.43701 
        6.00048         6.23072        0.434077 
        6.01617         6.18819        0.431175 
        6.03185          6.1485        0.428303 
        6.04756         6.10741         0.42545 
        6.06331         6.07239        0.422617 
        6.07903         6.01912        0.419816 
        6.09473         5.99097        0.417043 
        6.11044         5.94748        0.414292 
        6.12616         5.89976        0.411567 
        6.14186         5.87215        0.408868 
        6.15755          5.8463        0.406194 
        6.17326         5.79418        0.403542 
        6.18898         5.76171        0.400912 
        6.20467         5.71991        0.398311 
        6.22036          5.6889        0.395733 
         6.2361         5.65132         0.39317 
         6.2518           5.608        0.390635 
        6.26748         5.58263        0.388127 
        6.28319         5.54522        0.385634 
        6.29893         5.50695        0.383161 
        6.31463         5.49084        0.380714 
        6.33033         5.43458        0.378289 
        6.34604         5.40471        0.375884 
        6.36177         5.36872        0.373497 
        6.37747         5.33963        0.371135 
