# k  (h/Mpc)    Pcb(k)  (Mpc/h)^3    Pcb_linear(k) (Mpc/h)^3   ShotnoiseSubtracted = true
      0.0200456         291.931         295.696 
      0.0350414         216.743         214.961 
      0.0492313         156.832         156.187 
      0.0637834         129.158         129.837 
      0.0800726         102.301         103.048 
       0.096163          75.574         74.7704 
       0.111083         60.4455         59.6388 
       0.126058          52.649         52.8521 
       0.142273          44.492         44.7773 
       0.158546         35.4911         35.3647 
        0.17375         30.0929         29.7947 
       0.188953         27.0268         26.9785 
       0.204907         23.5518         23.8704 
       0.220756         20.2376         20.1958 
        0.23588         17.6161         17.5686 
         0.2514         15.9906         15.9609 
       0.267535         14.4938         14.4419 
       0.283568         12.7833         12.7358 
       0.299022         11.4154         11.3469 
       0.314451         10.5431         10.3703 
       0.330372           9.589         9.51362 
       0.346141         8.70951         8.63506 
       0.361624         7.90305         7.84809 
       0.377134         7.24969         7.22148 
       0.392932         6.84168         6.68189 
       0.408854         6.20298         6.15942 
       0.424564         5.80718         5.67722 
       0.440253          5.3368         5.26344 
       0.455999         4.92495         4.90365 
       0.471626         4.59588           4.573 
        0.48727         4.35188         4.26369 
       0.502856          4.0747         3.98583 
       0.518488         3.76401          3.7379 
       0.534347          3.5159         3.50742 
       0.550082          3.3498          3.2949 
       0.565732         3.18453         3.10047 
       0.581496         2.97836          2.9224 
       0.597222          2.8078         2.75909 
       0.612804         2.64878         2.60893 
       0.628434         2.51389         2.46896 
       0.644267         2.39196          2.3381 
       0.660051          2.2685         2.21749 
       0.675724         2.13878         2.10613 
       0.691403         2.03881         2.00232 
       0.707174         1.93888         1.90492 
       0.722871         1.88063         1.81439 
        0.73838         1.75894         1.73071 
       0.754018         1.67882         1.65167 
       0.769845         1.58963         1.57671 
        0.78569         1.53783         1.50634 
       0.801365         1.47356         1.44097 
       0.817031          1.4146         1.37954 
       0.832809         1.34343         1.32131 
       0.848511         1.29389         1.26672 
       0.864097         1.24736         1.21561 
       0.879701         1.20487         1.16728 
       0.895507         1.14213         1.12102 
       0.911279         1.10676         1.07738 
        0.92691         1.07277         1.03643 
       0.942635         1.01776        0.997393 
       0.958396        0.984254        0.960293 
       0.974128        0.949894        0.925156 
       0.989692        0.915083        0.892132 
        1.00528        0.878583        0.860678 
        1.02113        0.856587        0.830253 
        1.03692        0.829768        0.801418 
        1.05264        0.793032         0.77409 
        1.06832        0.769557        0.748085 
        1.08405        0.739585         0.72321 
        1.09979         0.71974        0.699456 
        1.11537        0.692371        0.677008 
        1.13105        0.666441        0.655415 
        1.14679        0.650853        0.634684 
        1.16256        0.631429        0.614814 
        1.17828        0.613758        0.595862 
        1.19395        0.594236        0.577776 
         1.2097        0.574334        0.560351 
        1.22537        0.555117        0.543732 
          1.241        0.540338        0.527839 
        1.25666        0.528138        0.512544 
        1.27241        0.510319        0.497786 
        1.28819         0.49404        0.483585 
        1.30392        0.482257        0.469982 
        1.31957        0.467831        0.456965 
        1.33529         0.45507        0.444394 
        1.35108        0.441593        0.432248 
        1.36674        0.429601        0.420644 
         1.3824        0.420435        0.409477 
        1.39811        0.406482        0.398681 
        1.41389         0.39792        0.388233 
        1.42964        0.387047        0.378179 
        1.44531           0.376        0.368531 
        1.46101        0.365053        0.359199 
        1.47667        0.357246         0.35022 
        1.49229        0.347101        0.341572 
        1.50793        0.339924        0.333207 
        1.52367        0.329749         0.32507 
        1.53953        0.321379         0.31715 
        1.55526        0.314299        0.309558 
        1.57092        0.309415        0.302246 
        1.58662         0.30128        0.295154 
        1.60235        0.293703        0.288276 
        1.61809        0.285532        0.281614 
        1.63369        0.278353        0.275223 
        1.64941        0.273047        0.268984 
        1.66519        0.267458        0.262917 
        1.68085        0.259785        0.257081 
        1.69652        0.254581         0.25142 
        1.71228        0.248113        0.245898 
        1.72806        0.243639        0.240538 
        1.74368        0.237767        0.235392 
        1.75933        0.233167        0.230386 
        1.77505        0.228573        0.225503 
        1.79081        0.221923        0.220753 
         1.8065        0.218678         0.21616 
        1.82218        0.212537        0.211703 
        1.83797        0.207473         0.20734 
        1.85367        0.204169        0.203125 
        1.86928        0.199132        0.199053 
        1.88497        0.194948         0.19507 
        1.90073        0.191047        0.191182 
        1.91647         0.18798        0.187403 
        1.93218        0.184897        0.183735 
        1.94787        0.179581         0.18017 
        1.96363        0.176411        0.176686 
        1.97935        0.172726        0.173301 
        1.99499        0.169119        0.170025 
        2.01064        0.166118        0.166828 
         2.0264        0.163142        0.163694 
        2.04216        0.159115        0.160641 
        2.05781        0.156241        0.157686 
        2.07353        0.153655        0.154795 
        2.08928        0.151079         0.15197 
        2.10499         0.14743        0.149224 
        2.12065        0.144985        0.146553 
        2.13633        0.142324        0.143946 
        2.15211        0.139957        0.141385 
        2.16785        0.136741        0.138894 
        2.18349        0.134591        0.136479 
        2.19916         0.13155        0.134116 
        2.21489        0.129098        0.131801 
        2.23063         0.12708        0.129539 
         2.2463        0.125006        0.127341 
        2.26194         0.12284        0.125199 
        2.27765        0.120471        0.123095 
        2.29341        0.118082        0.121035 
        2.30914        0.115909        0.119025 
        2.32486        0.113938        0.117063 
        2.34061        0.111935        0.115142 
        2.35635        0.110078        0.113265 
        2.37203        0.109137        0.111437 
        2.38768         0.10661        0.109653 
        2.40339        0.104824        0.107902 
        2.41914        0.102873        0.106184 
        2.43483        0.101435        0.104511 
         2.4505       0.0994297        0.102876 
        2.46622       0.0978611        0.101271 
        2.48195       0.0962719       0.0996993 
        2.49759        0.094845       0.0981698 
        2.51328       0.0923836       0.0966684 
        2.52906       0.0915393        0.095189 
        2.54479       0.0900066        0.093746 
        2.56049       0.0882657       0.0923358 
        2.57618       0.0874243       0.0909558 
        2.59189        0.085502        0.089602 
        2.60758       0.0845692       0.0882778 
        2.62325        0.082905       0.0869821 
        2.63898       0.0819766       0.0857078 
        2.65468       0.0802907       0.0844618 
        2.67044         0.07915       0.0832352 
        2.68618       0.0778549       0.0820358 
        2.70184       0.0769651       0.0808648 
        2.71755       0.0755523       0.0797138 
        2.73329       0.0744086       0.0785835 
        2.74897        0.073388       0.0774787 
        2.76462       0.0720165       0.0763977 
        2.78034       0.0711483       0.0753328 
        2.79607       0.0702271       0.0742871 
        2.81179       0.0688438       0.0732624 
        2.82749       0.0680804       0.0722582 
        2.84321       0.0669761       0.0712717 
        2.85893       0.0658063        0.070304 
        2.87462       0.0652379       0.0693559 
        2.89033       0.0640028       0.0684244 
        2.90605       0.0632312       0.0675092 
        2.92176       0.0624828       0.0666112 
        2.93747       0.0613154         0.06573 
        2.95318       0.0607607       0.0648646 
        2.96891       0.0597809       0.0640143 
        2.98456       0.0589084       0.0631831 
        3.00023       0.0583156       0.0623654 
        3.01596       0.0571087       0.0615596 
        3.03164       0.0564134       0.0607704 
        3.04738       0.0556899       0.0599927 
         3.0631       0.0546735       0.0592289 
        3.07883       0.0541508       0.0584784 
        3.09456       0.0535115       0.0577409 
        3.11026       0.0526372       0.0570174 
        3.12596       0.0522214       0.0563063 
        3.14163       0.0513305       0.0556089 
        3.15734       0.0508652       0.0549218 
        3.17308       0.0500737       0.0542446 
        3.18879       0.0493887       0.0535807 
        3.20447       0.0486165       0.0529288 
         3.2202        0.048141       0.0522858 
         3.2359       0.0476114       0.0516546 
        3.25157       0.0469951       0.0510354 
        3.26729       0.0463308       0.0504244 
        3.28304        0.045956       0.0498222 
        3.29877       0.0451941       0.0492306 
        3.31446       0.0445935       0.0486499 
        3.33014       0.0442664       0.0480791 
        3.34585       0.0435607       0.0475166 
        3.36158       0.0430764       0.0469623 
        3.37727       0.0424735       0.0464185 
        3.39294       0.0420961       0.0458838 
        3.40867       0.0416563       0.0453557 
        3.42439       0.0411739       0.0448361 
        3.44008        0.040737       0.0443257 
        3.45578       0.0403197       0.0438228 
        3.47153       0.0398805       0.0433266 
        3.48724       0.0393371        0.042839 
        3.50292       0.0390764       0.0423601 
        3.51859       0.0385463       0.0418886 
        3.53431       0.0380842       0.0414229 
        3.55007       0.0377432       0.0409632 
        3.56577       0.0373249       0.0405122 
        3.58146       0.0369432       0.0400682 
        3.59719       0.0364963       0.0396298 
        3.61292       0.0360454       0.0391981 
        3.62859       0.0357221       0.0387745 
        3.64429        0.035428       0.0383563 
        3.66003       0.0351385       0.0379431 
        3.67578       0.0348095        0.037536 
        3.69146       0.0344948       0.0371365 
        3.70712       0.0341103       0.0367435 
        3.72284       0.0336707       0.0363547 
        3.73853        0.033534       0.0359722 
        3.75422       0.0330439       0.0355951 
        3.76993        0.032791       0.0352231 
        3.78564       0.0324978       0.0348565 
        3.80137       0.0322706       0.0344946 
        3.81707        0.031861       0.0341385 
        3.83279       0.0315791       0.0337872 
        3.84853       0.0313089       0.0334403 
        3.86424       0.0311554       0.0330989 
        3.87992       0.0308695       0.0327628 
        3.89561       0.0304302       0.0324313 
        3.91134       0.0302374       0.0321037 
        3.92704       0.0299061        0.031781 
        3.94273       0.0296589       0.0314631 
        3.95845       0.0294192        0.031149 
        3.97418       0.0291177       0.0308391 
        3.98988       0.0287381       0.0305338 
        4.00554       0.0285811       0.0302334 
        4.02125       0.0282158       0.0299363 
        4.03698       0.0277999       0.0296427 
        4.05268       0.0275621       0.0293537 
        4.06839       0.0271165       0.0290683 
         4.0841       0.0266948       0.0287868 
        4.09983       0.0262895       0.0285086 
        4.11555       0.0259483       0.0282342 
        4.13124       0.0255528       0.0279642 
        4.14693       0.0252424       0.0276975 
        4.16266       0.0248409       0.0274336 
        4.17839       0.0245592       0.0271734 
        4.19408       0.0242544       0.0269171 
        4.20977       0.0239339        0.026664 
        4.22551       0.0236552       0.0264135 
        4.24123       0.0233592       0.0261665 
        4.25691        0.023143       0.0259234 
        4.27259       0.0228989       0.0256832 
        4.28831       0.0226775       0.0254456 
        4.30404       0.0223891       0.0252108 
        4.31974       0.0221895       0.0249795 
        4.33543       0.0219534       0.0247512 
        4.35116       0.0217334       0.0245252 
        4.36688       0.0216208       0.0243021 
        4.38255       0.0213612       0.0240826 
        4.39825       0.0213045       0.0238654 
        4.41398       0.0211229       0.0236504 
         4.4297       0.0209931       0.0234382 
        4.44541        0.020811       0.0232287 
        4.46111       0.0206502        0.023022 
        4.47683       0.0206296       0.0228176 
        4.49251        0.020497        0.022616 
        4.50819       0.0204196        0.022417 
         4.5239       0.0203027       0.0222201 
        4.53962       0.0202582       0.0220253 
        4.55535        0.020207       0.0218327 
        4.57106       0.0201953       0.0216428 
        4.58678       0.0200602        0.021455 
         4.6025       0.0200035       0.0212694 
        4.61821       0.0200592       0.0210861 
        4.63391       0.0200164       0.0209051 
         4.6496       0.0199724       0.0207263 
        4.66532       0.0199446       0.0205494 
        4.68103       0.0200887       0.0203746 
        4.69673        0.020028        0.020202 
        4.71241       0.0200961       0.0200315 
        4.72811       0.0200501       0.0198628 
        4.74384       0.0201119       0.0196957 
        4.75955       0.0202269       0.0195309 
        4.77525       0.0203007        0.019368 
        4.79096       0.0203622       0.0192068 
        4.80669       0.0204808       0.0190473 
         4.8224        0.020564       0.0188899 
        4.83809        0.020636       0.0187343 
        4.85379       0.0208584       0.0185805 
         4.8695       0.0209421       0.0184282 
        4.88521       0.0210573       0.0182777 
        4.90093       0.0211916       0.0181289 
        4.91663       0.0213491       0.0179818 
        4.93234       0.0215258       0.0178362 
        4.94807       0.0217283       0.0176922 
        4.96377       0.0218768         0.01755 
        4.97943       0.0222233       0.0174096 
        4.99514       0.0222829       0.0172704 
        5.01086       0.0225563       0.0171327 
        5.02654       0.0227673       0.0169968 
        5.04227        0.023005       0.0168619 
          5.058        0.023246       0.0167285 
        5.07371       0.0234651       0.0165968 
        5.08942       0.0237774       0.0164665 
        5.10513       0.0240963       0.0163375 
        5.12084       0.0244001       0.0162099 
        5.13656       0.0247942       0.0160837 
        5.15225       0.0250679        0.015959 
        5.16796       0.0254056       0.0158354 
        5.18369       0.0257566        0.015713 
         5.1994       0.0261297       0.0155922 
        5.21509       0.0265898       0.0154727 
        5.23079       0.0268838       0.0153544 
        5.24649       0.0273471       0.0152373 
        5.26217       0.0277219       0.0151216 
        5.27788       0.0282531       0.0150069 
        5.29359       0.0285979       0.0148934 
        5.30933       0.0291277       0.0147808 
        5.32504       0.0296189       0.0146697 
        5.34073       0.0301708       0.0145598 
        5.35646       0.0305788       0.0144508 
        5.37218       0.0311202       0.0143429 
        5.38789       0.0315699       0.0142362 
        5.40357       0.0323444       0.0141308 
        5.41929       0.0329921       0.0140262 
        5.43502       0.0334689       0.0139227 
         5.4507       0.0341096       0.0138204 
        5.46639       0.0347337       0.0137192 
        5.48212       0.0353927       0.0136187 
        5.49786       0.0361464       0.0135192 
        5.51353        0.037044       0.0134211 
        5.52921        0.037413       0.0133238 
        5.54495       0.0383474       0.0132273 
        5.56066       0.0392105       0.0131318 
        5.57637       0.0400618       0.0130373 
        5.59207       0.0407643       0.0129438 
        5.60778       0.0414016       0.0128512 
        5.62346        0.042414       0.0127596 
        5.63916       0.0433453       0.0126688 
        5.65487       0.0441716       0.0125788 
         5.6706       0.0450174       0.0124896 
        5.68633       0.0458908       0.0124013 
        5.70203       0.0470551        0.012314 
        5.71773       0.0483298       0.0122275 
        5.73344       0.0492697       0.0121418 
        5.74916       0.0504869       0.0120569 
        5.76486       0.0517138       0.0119729 
        5.78054       0.0532598       0.0118898 
        5.79626       0.0537867       0.0118073 
          5.812       0.0554394       0.0117254 
         5.8277       0.0564258       0.0116446 
        5.84339       0.0578767       0.0115646 
        5.85911       0.0591196       0.0114851 
        5.87484       0.0603004       0.0114064 
        5.89053       0.0622531       0.0113286 
        5.90623       0.0634411       0.0112515 
        5.92195       0.0649377        0.011175 
        5.93767       0.0668343       0.0110992 
        5.95336       0.0676208       0.0110243 
        5.96905       0.0696825       0.0109501 
        5.98476       0.0708584       0.0108764 
        6.00048       0.0729957       0.0108034 
        6.01617       0.0750761       0.0107312 
        6.03185       0.0766202       0.0106597 
        6.04756       0.0786061       0.0105887 
        6.06331       0.0810837       0.0105182 
        6.07903       0.0824959       0.0104485 
        6.09473       0.0843087       0.0103795 
        6.11044       0.0867962        0.010311 
        6.12616       0.0887744       0.0102432 
        6.14186       0.0911923        0.010176 
        6.15755       0.0934068       0.0101095 
        6.17326       0.0957475       0.0100434 
        6.18898       0.0987119        0.009978 
        6.20467        0.100634      0.00991325 
        6.22036        0.104214      0.00984908 
         6.2361        0.106238       0.0097853 
         6.2518        0.108978       0.0097222 
        6.26748        0.110576      0.00965979 
        6.28319        0.114355      0.00959775 
        6.29893        0.117113       0.0095362 
        6.31463        0.120485       0.0094753 
        6.33033        0.123425      0.00941495 
        6.34604        0.126992      0.00935508 
        6.36177        0.129692      0.00929567 
        6.37747        0.132655      0.00923689 
