# k  (h/Mpc)    Pcb(k)  (Mpc/h)^3    Pcb_linear(k) (Mpc/h)^3   ShotnoiseSubtracted = true
      0.0200456         11025.2         11236.1 
      0.0350414         7926.67         8168.26 
      0.0492313         5883.98          5934.9 
      0.0637834         5029.69         4933.63 
      0.0800726         3980.15          3915.7 
       0.096163         2782.43         2841.18 
       0.111083         2213.36          2266.2 
       0.126058         2038.65         2008.31 
       0.142273         1760.84         1701.48 
       0.158546            1472         1343.82 
        0.17375         1181.62         1132.16 
       0.188953         1139.34         1025.15 
       0.204907         1069.73         907.047 
       0.220756         908.869         767.417 
        0.23588         800.007         667.586 
         0.2514         698.974         606.495 
       0.267535         680.291         548.774 
       0.283568         616.728         483.945 
       0.299022         574.686          431.17 
       0.314451         539.287          394.06 
       0.330372         497.497         361.506 
       0.346141         451.581         328.122 
       0.361624         434.112         298.218 
       0.377134         403.972         274.407 
       0.392932         382.494         253.904 
       0.408854         367.035          234.05 
       0.424564         349.035         215.727 
       0.440253         336.857         200.004 
       0.455999         316.976         186.332 
       0.471626         295.617         173.768 
        0.48727         286.969         162.015 
       0.502856         277.373         151.456 
       0.518488         273.992         142.036 
       0.534347         257.974         133.277 
       0.550082         242.418         125.202 
       0.565732         238.546         117.814 
       0.581496         226.413         111.048 
       0.597222          220.96         104.842 
       0.612804         213.029          99.136 
       0.628434         205.749         93.8174 
       0.644267         199.073         88.8449 
       0.660051         196.639          84.262 
       0.675724         192.244         80.0303 
       0.691403         186.727         76.0856 
       0.707174         178.877         72.3846 
       0.722871         177.333         68.9444 
        0.73838         173.455         65.7647 
       0.754018         168.279         62.7614 
       0.769845         163.444         59.9131 
        0.78569         161.292         57.2392 
       0.801365         156.538         54.7551 
       0.817031         151.401         52.4206 
       0.832809         149.293         50.2081 
       0.848511         145.551         48.1339 
       0.864097         143.061         46.1916 
       0.879701         139.972         44.3552 
       0.895507         136.503         42.5974 
       0.911279         133.868          40.939 
        0.92691          132.57          39.383 
       0.942635         129.293         37.8997 
       0.958396         129.021         36.4899 
       0.974128         125.363         35.1548 
       0.989692         122.317         33.8999 
        1.00528         120.017         32.7047 
        1.02113          119.27         31.5486 
        1.03692         114.745         30.4529 
        1.05264         114.116         29.4145 
        1.06832         111.541         28.4263 
        1.08405         110.084         27.4811 
        1.09979         109.536         26.5784 
        1.11537         105.891         25.7255 
        1.13105         105.655          24.905 
        1.14679         104.498         24.1172 
        1.16256         102.973         23.3622 
        1.17828         100.376          22.642 
        1.19395         99.1633         21.9548 
         1.2097         97.0196         21.2927 
        1.22537          97.029         20.6611 
          1.241         94.7764         20.0572 
        1.25666         92.9174          19.476 
        1.27241         91.7735         18.9152 
        1.28819         90.3651         18.3756 
        1.30392         89.2759         17.8587 
        1.31957         87.9986         17.3641 
        1.33529         86.4234         16.8864 
        1.35108         85.5429         16.4249 
        1.36674         84.6004         15.9839 
         1.3824         83.0443         15.5596 
        1.39811         82.1797         15.1494 
        1.41389         80.9709         14.7524 
        1.42964         79.9882         14.3703 
        1.44531         78.2953         14.0037 
        1.46101         77.3915         13.6491 
        1.47667         77.1978         13.3079 
        1.49229         75.6452         12.9793 
        1.50793          75.144         12.6615 
        1.52367         73.9379         12.3522 
        1.53953         72.8631         12.0513 
        1.55526         72.1969         11.7628 
        1.57092         71.9207          11.485 
        1.58662          70.341         11.2155 
        1.60235         69.8511         10.9541 
        1.61809         68.8848          10.701 
        1.63369         67.8731         10.4581 
        1.64941          67.251         10.2211 
        1.66519         65.9207         9.99053 
        1.68085         65.4977         9.76875 
        1.69652         64.3556         9.55366 
        1.71228         64.0417         9.34383 
        1.72806         63.3053         9.14015 
        1.74368          62.495          8.9446 
        1.75933         61.7389         8.75439 
        1.77505         61.1834         8.56883 
        1.79081         60.3183         8.38834 
         1.8065         59.7934         8.21382 
        1.82218         58.9452         8.04443 
        1.83797         58.3484         7.87867 
        1.85367         57.6875          7.7185 
        1.86928         57.1704         7.56376 
        1.88497          56.414         7.41242 
        1.90073         55.6587         7.26467 
        1.91647         55.3548         7.12108 
        1.93218         54.6352         6.98169 
        1.94787         54.0319         6.84623 
        1.96363         53.3185         6.71384 
        1.97935         52.9324         6.58523 
        1.99499         52.1468         6.46072 
        2.01064          51.988         6.33926 
         2.0264         50.7196         6.22015 
        2.04216         50.4944         6.10417 
        2.05781         49.8732         5.99189 
        2.07353         49.3474         5.88203 
        2.08928         48.7792         5.77469 
        2.10499         48.3984         5.67032 
        2.12065         47.7901         5.56884 
        2.13633         47.5686         5.46977 
        2.15211         47.1536         5.37246 
        2.16785         46.2533          5.2778 
        2.18349          45.972         5.18602 
        2.19916         45.5201         5.09623 
        2.21489         45.0611         5.00827 
        2.23063         44.3996         4.92232 
         2.2463         43.9906         4.83879 
        2.26194         43.3097          4.7574 
        2.27765         42.8878         4.67747 
        2.29341         42.3932         4.59916 
        2.30914         41.9221         4.52282 
        2.32486          41.368         4.44825 
        2.34061         41.1063         4.37524 
        2.35635         40.6573         4.30393 
        2.37203         40.1708         4.23447 
        2.38768         39.7918         4.16668 
        2.40339         39.5353         4.10013 
        2.41914         39.1554         4.03488 
        2.43483         38.5142         3.97128 
         2.4505         38.2468         3.90916 
        2.46622         37.8747         3.84815 
        2.48195         37.5064         3.78845 
        2.49759          37.068         3.73033 
        2.51328         36.5677         3.67328 
        2.52906         36.3732         3.61706 
        2.54479         35.7786         3.56223 
        2.56049         35.4734         3.50865 
        2.57618         35.1534         3.45621 
        2.59189         34.8186         3.40476 
        2.60758         34.5791         3.35445 
        2.62325         34.1027         3.30521 
        2.63898         33.8016         3.25679 
        2.65468         33.4322         3.20944 
        2.67044         33.0773         3.16283 
        2.68618          32.814         3.11726 
        2.70184         32.4282         3.07276 
        2.71755         32.2645         3.02903 
        2.73329         31.8865         2.98607 
        2.74897          31.533         2.94409 
        2.76462         31.1248         2.90302 
        2.78034         31.0083         2.86255 
        2.79607         30.6534         2.82282 
        2.81179         30.3915         2.78388 
        2.82749         30.0988         2.74572 
        2.84321          29.644         2.70824 
        2.85893         29.4008         2.67146 
        2.87462         29.1264         2.63544 
        2.89033         28.8613         2.60004 
        2.90605         28.6763         2.56526 
        2.92176         28.4968         2.53114 
        2.93747         28.0976         2.49766 
        2.95318         27.7175         2.46477 
        2.96891         27.5519         2.43246 
        2.98456         27.1918         2.40088 
        3.00023         26.9515         2.36981 
        3.01596         26.6825         2.33919 
        3.03164         26.5119          2.3092 
        3.04738         26.2796         2.27965 
         3.0631         26.0153         2.25062 
        3.07883         25.7466          2.2221 
        3.09456         25.4407         2.19408 
        3.11026         25.2277         2.16659 
        3.12596         25.0489         2.13957 
        3.14163         24.7923         2.11307 
        3.15734         24.5545         2.08696 
        3.17308         24.3012         2.06123 
        3.18879         24.1312           2.036 
        3.20447         23.8522         2.01123 
         3.2202         23.6379          1.9868 
         3.2359         23.3649         1.96281 
        3.25157         23.3437         1.93928 
        3.26729         23.0309         1.91606 
        3.28304         22.8111         1.89318 
        3.29877         22.5211          1.8707 
        3.31446         22.3259         1.84864 
        3.33014         22.1262         1.82695 
        3.34585         21.9825         1.80557 
        3.36158           21.72         1.78451 
        3.37727         21.5118         1.76385 
        3.39294         21.3795         1.74353 
        3.40867          21.166         1.72346 
        3.42439         20.9791         1.70372 
        3.44008         20.7886         1.68432 
        3.45578         20.6031         1.66521 
        3.47153          20.352         1.64636 
        3.48724         20.2068         1.62783 
        3.50292         20.0742         1.60963 
        3.51859         19.8496         1.59172 
        3.53431         19.6701         1.57402 
        3.55007         19.4715         1.55655 
        3.56577         19.2778         1.53941 
        3.58146         19.1646         1.52254 
        3.59719         18.9407         1.50588 
        3.61292         18.7966         1.48948 
        3.62859         18.6344         1.47338 
        3.64429         18.4868         1.45749 
        3.66003         18.3446         1.44179 
        3.67578         18.1222         1.42632 
        3.69146         18.0344         1.41114 
        3.70712         17.8416         1.39621 
        3.72284         17.7611         1.38143 
        3.73853         17.5271          1.3669 
        3.75422         17.3231         1.35257 
        3.76993         17.2286         1.33843 
        3.78564         17.0742          1.3245 
        3.80137         16.8968         1.31075 
        3.81707         16.7439         1.29722 
        3.83279         16.6239         1.28387 
        3.84853         16.4528         1.27069 
        3.86424         16.3388         1.25772 
        3.87992         16.1926         1.24494 
        3.89561           16.01         1.23235 
        3.91134         15.9336          1.2199 
        3.92704         15.7762         1.20764 
        3.94273         15.6533         1.19556 
        3.95845         15.4754         1.18362 
        3.97418         15.4021         1.17185 
        3.98988         15.2227         1.16025 
        4.00554         15.1205         1.14883 
        4.02125         14.9966         1.13754 
        4.03698         14.9172         1.12638 
        4.05268         14.7197          1.1154 
        4.06839         14.6095         1.10456 
         4.0841         14.5064         1.09386 
        4.09983         14.3479         1.08329 
        4.11555          14.227         1.07287 
        4.13124         14.1268         1.06261 
        4.14693         14.0083         1.05247 
        4.16266         13.8914         1.04244 
        4.17839         13.7572         1.03255 
        4.19408         13.6322         1.02282 
        4.20977         13.5761          1.0132 
        4.22551         13.4173         1.00368 
        4.24123         13.3304        0.994296 
        4.25691          13.223        0.985056 
        4.27259         13.0875        0.975931 
        4.28831         12.9592        0.966903 
        4.30404         12.8828        0.957981 
        4.31974         12.7652         0.94919 
        4.33543         12.6824        0.940515 
        4.35116         12.5884        0.931927 
        4.36688         12.4434         0.92345 
        4.38255          12.349         0.91511 
        4.39825           12.25        0.906854 
        4.41398         12.2083        0.898684 
         4.4297          12.048        0.890624 
        4.44541         11.9538        0.882663 
        4.46111         11.8649        0.874806 
        4.47683         11.7904        0.867039 
        4.49251         11.6866        0.859381 
        4.50819         11.6119        0.851819 
         4.5239         11.5064        0.844336 
        4.53962         11.4235        0.836934 
        4.55535         11.3171        0.829617 
        4.57106         11.2157        0.822398 
        4.58678         11.1166        0.815263 
         4.6025         11.0453        0.808211 
        4.61821         10.9653        0.801244 
        4.63391         10.8688        0.794368 
         4.6496         10.7799        0.787575 
        4.66532         10.6888        0.780851 
        4.68103         10.6237        0.774209 
        4.69673         10.5333        0.767649 
        4.71241         10.4278        0.761173 
        4.72811         10.3534        0.754761 
        4.74384         10.3029        0.748414 
        4.75955          10.202         0.74215 
        4.77525         10.1171         0.73596 
        4.79096         10.0672        0.729834 
        4.80669         9.98066        0.723775 
         4.8224         9.91526        0.717791 
        4.83809          9.8248        0.711881 
        4.85379         9.74997        0.706035 
         4.8695         9.70731        0.700248 
        4.88521         9.60015         0.69453 
        4.90093         9.52466        0.688874 
        4.91663         9.46832        0.683286 
        4.93234         9.40734        0.677754 
        4.94807         9.31288         0.67228 
        4.96377         9.23888        0.666876 
        4.97943         9.18032        0.661544 
        4.99514         9.12193        0.656255 
        5.01086         9.05498        0.651021 
        5.02654         8.98117        0.645857 
        5.04227         8.92079        0.640733 
          5.058         8.82617        0.635663 
        5.07371           8.786        0.630657 
        5.08942         8.72641        0.625705 
        5.10513         8.64851        0.620805 
        5.12084         8.58111        0.615956 
        5.13656         8.52716        0.611159 
        5.15225          8.4656        0.606421 
        5.16796         8.40919        0.601726 
        5.18369         8.35264        0.597076 
         5.1994         8.25147        0.592484 
        5.21509         8.22437        0.587944 
        5.23079         8.15853        0.583446 
        5.24649         8.10209        0.578999 
        5.26217         8.04041        0.574602 
        5.27788         7.98303        0.570243 
        5.29359         7.91969        0.565929 
        5.30933         7.85689        0.561654 
        5.32504         7.80543         0.55743 
        5.34073         7.77314        0.553253 
        5.35646         7.68694        0.549112 
        5.37218         7.65167        0.545011 
        5.38789           7.588         0.54096 
        5.40357         7.54312        0.536954 
        5.41929         7.48508        0.532979 
        5.43502         7.43015        0.529045 
         5.4507         7.38558        0.525159 
        5.46639         7.35311        0.521312 
        5.48212         7.29048        0.517495 
        5.49786         7.25106        0.513711 
        5.51353         7.17677        0.509984 
        5.52921         7.13027         0.50629 
        5.54495         7.08985        0.502621 
        5.56066         7.03708        0.498993 
        5.57637         6.97045        0.495402 
        5.59207         6.94122        0.491848 
        5.60778         6.87156        0.488328 
        5.62346         6.83548        0.484848 
        5.63916         6.78825        0.481398 
        5.65487         6.75176         0.47798 
         5.6706         6.69022        0.474591 
        5.68633         6.64637        0.471234 
        5.70203         6.61385        0.467916 
        5.71773         6.56646         0.46463 
        5.73344         6.51735        0.461375 
        5.74916         6.47946        0.458147 
        5.76486         6.44073        0.454955 
        5.78054         6.39408        0.451798 
        5.79626          6.3445        0.448662 
          5.812         6.30912        0.445553 
         5.8277         6.26594        0.442482 
        5.84339         6.21038         0.43944 
        5.85911         6.18544        0.436421 
        5.87484         6.13665        0.433431 
        5.89053         6.09651        0.430474 
        5.90623         6.05651        0.427544 
        5.92195         5.99719        0.424636 
        5.93767         5.97984        0.421757 
        5.95336         5.93109        0.418909 
        5.96905         5.90652        0.416088 
        5.98476         5.85723         0.41329 
        6.00048          5.8317        0.410516 
        6.01617         5.78514        0.407772 
        6.03185         5.75935        0.405055 
        6.04756         5.70883        0.402357 
        6.06331         5.67284        0.399678 
        6.07903         5.64449        0.397029 
        6.09473         5.59557        0.394406 
        6.11044         5.56041        0.391805 
        6.12616         5.53353        0.389227 
        6.14186         5.49305        0.386676 
        6.15755         5.45515        0.384147 
        6.17326         5.41839        0.381639 
        6.18898         5.37932        0.379152 
        6.20467           5.356        0.376691 
        6.22036         5.32443        0.374253 
         6.2361         5.28641        0.371829 
         6.2518         5.25362        0.369431 
        6.26748         5.22661         0.36706 
        6.28319          5.1814        0.364703 
        6.29893         5.15407        0.362364 
        6.31463          5.1306         0.36005 
        6.33033         5.08499        0.357756 
        6.34604         5.07021        0.355481 
        6.36177         5.03139        0.353224 
        6.37747          4.9957        0.350991 
