# k  (h/Mpc)    Pcb(k)  (Mpc/h)^3    Pcb_linear(k) (Mpc/h)^3   ShotnoiseSubtracted = true
      0.0200456         1425.06         1443.36 
      0.0350414         1063.18         1049.27 
      0.0492313         764.576         762.383 
      0.0637834         626.513         633.762 
      0.0800726         495.882         503.001 
       0.096163         371.239         364.971 
       0.111083         298.117          291.11 
       0.126058          256.61         257.983 
       0.142273         217.017         218.568 
       0.158546         174.467         172.623 
        0.17375         148.967         145.435 
       0.188953           133.9         131.688 
       0.204907         115.131         116.517 
       0.220756         100.428         98.5804 
        0.23588         87.6283         85.7564 
         0.2514         79.4335         77.9088 
       0.267535         72.8776         70.4941 
       0.283568          64.097         62.1664 
       0.299022         57.9607          55.387 
       0.314451         54.2352           50.62 
       0.330372         48.7897         46.4381 
       0.346141         44.4734         42.1497 
       0.361624         40.5896         38.3083 
       0.377134         37.1572         35.2497 
       0.392932         35.7089         32.6158 
       0.408854         32.3606         30.0655 
       0.424564         30.7729         27.7118 
       0.440253         28.0838          25.692 
       0.455999         25.6912         23.9358 
       0.471626         24.1747         22.3218 
        0.48727         23.3256          20.812 
       0.502856         21.8255         19.4557 
       0.518488         20.1926         18.2455 
       0.534347         18.9256         17.1205 
       0.550082         18.1535         16.0831 
       0.565732         17.3761         15.1341 
       0.581496         16.3453         14.2649 
       0.597222         15.3893         13.4678 
       0.612804         14.5462         12.7348 
       0.628434         14.1376         12.0515 
       0.644267         13.3999         11.4128 
       0.660051         12.6841         10.8241 
       0.675724         12.0131         10.2805 
       0.691403         11.6529         9.77376 
       0.707174         11.1032         9.29834 
       0.722871          10.791         8.85643 
        0.73838         10.1234         8.44796 
       0.754018         9.64657         8.06218 
       0.769845         9.24801         7.69629 
        0.78569           9.001          7.3528 
       0.801365         8.60256          7.0337 
       0.817031         8.31109         6.73382 
       0.832809          7.9278         6.44961 
       0.848511         7.70331         6.18316 
       0.864097         7.41947         5.93366 
       0.879701         7.24292         5.69776 
       0.895507          6.9509         5.47196 
       0.911279         6.67664         5.25892 
        0.92691         6.49117         5.05904 
       0.942635         6.25345          4.8685 
       0.958396         6.04384         4.68741 
       0.974128         5.89301          4.5159 
       0.989692         5.61563          4.3547 
        1.00528         5.53006         4.20116 
        1.02113         5.35032         4.05265 
        1.03692         5.21237          3.9119 
        1.05264         5.02211         3.77851 
        1.06832         4.89586         3.65157 
        1.08405         4.76252         3.53015 
        1.09979         4.64125          3.4142 
        1.11537         4.50965         3.30463 
        1.13105         4.37421         3.19923 
        1.14679         4.26656         3.09804 
        1.16256         4.13429         3.00104 
        1.17828         4.07507         2.90854 
        1.19395         3.93001         2.82025 
         1.2097          3.8182          2.7352 
        1.22537          3.7066         2.65408 
          1.241         3.62844          2.5765 
        1.25666         3.58706         2.50184 
        1.27241         3.50371          2.4298 
        1.28819         3.36286         2.36049 
        1.30392         3.28901         2.29409 
        1.31957         3.23995         2.23055 
        1.33529         3.13059         2.16919 
        1.35108         3.07046          2.1099 
        1.36674         2.99189         2.05326 
         1.3824         2.95654         1.99875 
        1.39811         2.87625         1.94605 
        1.41389         2.80496         1.89505 
        1.42964         2.75359         1.84598 
        1.44531         2.70406         1.79888 
        1.46101         2.64875         1.75333 
        1.47667         2.59372          1.7095 
        1.49229         2.50923         1.66729 
        1.50793         2.45171         1.62646 
        1.52367         2.41094         1.58674 
        1.53953         2.35429         1.54808 
        1.55526         2.35493         1.51102 
        1.57092         2.28914         1.47533 
        1.58662         2.26397         1.44071 
        1.60235         2.19264         1.40714 
        1.61809         2.15773         1.37462 
        1.63369         2.11423         1.34342 
        1.64941          2.0783         1.31297 
        1.66519         2.04939         1.28336 
        1.68085         2.00029         1.25487 
        1.69652         1.96678         1.22724 
        1.71228         1.92891         1.20029 
        1.72806         1.90235         1.17412 
        1.74368         1.86753           1.149 
        1.75933         1.83989         1.12457 
        1.77505         1.80536         1.10073 
        1.79081         1.76785         1.07754 
         1.8065         1.74577         1.05513 
        1.82218         1.70678         1.03337 
        1.83797         1.67899         1.01207 
        1.85367         1.65339          0.9915 
        1.86928         1.62841        0.971621 
        1.88497         1.59591         0.95218 
        1.90073         1.58347        0.933201 
        1.91647         1.54664        0.914756 
        1.93218         1.52705         0.89685 
        1.94787         1.50389         0.87945 
        1.96363         1.48312        0.862444 
        1.97935         1.45624        0.845923 
        1.99499         1.43466        0.829928 
        2.01064         1.41513        0.814325 
         2.0264         1.38888        0.799025 
        2.04216         1.37395        0.784127 
        2.05781         1.34704        0.769703 
        2.07353         1.33775        0.755591 
        2.08928         1.31299        0.741802 
        2.10499         1.29189        0.728395 
        2.12065         1.27546         0.71536 
        2.13633         1.25809        0.702632 
        2.15211         1.23446        0.690133 
        2.16785         1.22282        0.677973 
        2.18349         1.20176        0.666183 
        2.19916         1.19181        0.654648 
        2.21489         1.17572        0.643349 
        2.23063         1.15153        0.632309 
         2.2463         1.13556        0.621578 
        2.26194         1.12595        0.611123 
        2.27765         1.10516        0.600855 
        2.29341         1.09404        0.590797 
        2.30914         1.07479         0.58099 
        2.32486         1.06776        0.571411 
        2.34061         1.05281        0.562032 
        2.35635         1.03839        0.552873 
        2.37203         1.02396        0.543949 
        2.38768         1.01206        0.535241 
        2.40339         1.00291        0.526692 
        2.41914          0.9903         0.51831 
        2.43483        0.977618        0.510141 
         2.4505        0.963071        0.502161 
        2.46622        0.950792        0.494324 
        2.48195         0.94125        0.486655 
        2.49759        0.927783        0.479189 
        2.51328         0.91629         0.47186 
        2.52906        0.909163        0.464639 
        2.54479        0.894897        0.457596 
        2.56049        0.886553        0.450712 
        2.57618        0.875412        0.443976 
        2.59189        0.866776        0.437368 
        2.60758        0.855437        0.430904 
        2.62325        0.844941        0.424579 
        2.63898        0.837404        0.418359 
        2.65468        0.823186        0.412277 
        2.67044        0.819336         0.40629 
        2.68618        0.812174        0.400435 
        2.70184        0.799534         0.39472 
        2.71755         0.79376        0.389101 
        2.73329        0.782858        0.383584 
        2.74897        0.773887        0.378191 
        2.76462        0.765051        0.372914 
        2.78034        0.760346        0.367716 
        2.79607        0.751235        0.362612 
        2.81179        0.741362         0.35761 
        2.82749         0.73408        0.352709 
        2.84321        0.726469        0.347893 
        2.85893        0.717528         0.34317 
        2.87462        0.710979        0.338542 
        2.89033        0.706735        0.333995 
        2.90605        0.700162        0.329527 
        2.92176        0.691689        0.325144 
        2.93747        0.685624        0.320843 
        2.95318        0.677291        0.316619 
        2.96891        0.674658        0.312468 
        2.98456        0.661969        0.308411 
        3.00023         0.65809         0.30442 
        3.01596        0.652106        0.300486 
        3.03164         0.64673        0.296634 
        3.04738        0.639992        0.292838 
         3.0631        0.631585         0.28911 
        3.07883        0.627835        0.285446 
        3.09456         0.62278        0.281847 
        3.11026        0.616646        0.278315 
        3.12596        0.610379        0.274844 
        3.14163        0.608279         0.27144 
        3.15734        0.600937        0.268086 
        3.17308        0.594794         0.26478 
        3.18879        0.592066        0.261539 
        3.20447        0.585908        0.258358 
         3.2202        0.577135        0.255219 
         3.2359        0.574019        0.252138 
        3.25157        0.567724        0.249115 
        3.26729         0.56522        0.246133 
        3.28304        0.560933        0.243193 
        3.29877        0.555217        0.240306 
        3.31446        0.553038        0.237471 
        3.33014        0.544528        0.234685 
        3.34585        0.541382        0.231939 
        3.36158        0.537165        0.229233 
        3.37727        0.534366        0.226579 
        3.39294        0.530312        0.223969 
        3.40867        0.524828        0.221391 
        3.42439        0.521259        0.218855 
        3.44008        0.516351        0.216364 
        3.45578        0.512516        0.213909 
        3.47153        0.510047        0.211487 
        3.48724        0.504991        0.209107 
        3.50292        0.500664        0.206769 
        3.51859        0.499043        0.204468 
        3.53431         0.49343        0.202195 
        3.55007        0.490583         0.19995 
        3.56577        0.487125        0.197749 
        3.58146          0.4836        0.195582 
        3.59719        0.479642        0.193442 
        3.61292        0.475343        0.191335 
        3.62859        0.472708        0.189267 
        3.64429        0.468544        0.187226 
        3.66003        0.465136        0.185209 
        3.67578        0.462553        0.183222 
        3.69146        0.459263        0.181272 
        3.70712        0.457115        0.179353 
        3.72284        0.453553        0.177456 
        3.73853        0.449901        0.175589 
        3.75422        0.446921        0.173748 
        3.76993        0.443088        0.171932 
        3.78564        0.439835        0.170143 
        3.80137        0.437632        0.168376 
        3.81707        0.433898        0.166638 
        3.83279        0.431427        0.164923 
        3.84853        0.427531        0.163229 
        3.86424        0.425479        0.161563 
        3.87992        0.423406        0.159922 
        3.89561        0.420037        0.158304 
        3.91134        0.415987        0.156705 
        3.92704        0.413294         0.15513 
        3.94273        0.411086        0.153579 
        3.95845        0.409074        0.152045 
        3.97418        0.406911        0.150532 
        3.98988        0.403321        0.149042 
        4.00554        0.398973        0.147576 
        4.02125        0.397231        0.146126 
        4.03698        0.393094        0.144693 
        4.05268        0.388417        0.143282 
        4.06839        0.386459        0.141889 
         4.0841        0.381757        0.140515 
        4.09983        0.379859        0.139157 
        4.11555        0.375967        0.137818 
        4.13124        0.373268          0.1365 
        4.14693        0.370696        0.135198 
        4.16266        0.365469         0.13391 
        4.17839        0.362943        0.132639 
        4.19408        0.361457        0.131388 
        4.20977        0.358067        0.130153 
        4.22551        0.355733         0.12893 
        4.24123        0.352714        0.127725 
        4.25691        0.350489        0.126538 
        4.27259        0.347398        0.125366 
        4.28831        0.345454        0.124206 
        4.30404        0.343082         0.12306 
        4.31974        0.340854        0.121931 
        4.33543        0.337817        0.120816 
        4.35116         0.33641        0.119713 
        4.36688        0.334022        0.118624 
        4.38255        0.331582        0.117553 
        4.39825        0.329705        0.116492 
        4.41398        0.327779        0.115443 
         4.4297        0.326089        0.114407 
        4.44541        0.323953        0.113385 
        4.46111        0.322389        0.112375 
        4.47683        0.321237        0.111378 
        4.49251        0.319168        0.110394 
        4.50819        0.318463        0.109422 
         4.5239        0.316425        0.108461 
        4.53962        0.314345         0.10751 
        4.55535        0.313634         0.10657 
        4.57106        0.312479        0.105643 
        4.58678        0.310324        0.104727 
         4.6025        0.309856        0.103821 
        4.61821        0.308409        0.102926 
        4.63391        0.308265        0.102042 
         4.6496        0.306294         0.10117 
        4.66532        0.305478        0.100306 
        4.68103        0.303843       0.0994529 
        4.69673        0.302911       0.0986103 
        4.71241        0.302515       0.0977784 
        4.72811        0.302473       0.0969546 
        4.74384        0.300915       0.0961393 
        4.75955        0.300255       0.0953347 
        4.77525         0.29938       0.0945396 
        4.79096        0.299149       0.0937527 
        4.80669        0.298518       0.0929743 
         4.8224        0.297639       0.0922057 
        4.83809        0.296996       0.0914465 
        4.85379        0.296944       0.0906954 
         4.8695         0.29729       0.0899522 
        4.88521        0.296782       0.0892175 
        4.90093        0.296366        0.088491 
        4.91663        0.295992       0.0877732 
        4.93234        0.295027       0.0870626 
        4.94807         0.29546       0.0863594 
        4.96377        0.295664       0.0856653 
        4.97943        0.295377       0.0849802 
        4.99514        0.294921       0.0843009 
        5.01086        0.296024       0.0836285 
        5.02654         0.29577       0.0829651 
        5.04227        0.295447        0.082307 
          5.058        0.296372       0.0816557 
        5.07371        0.295941       0.0810127 
        5.08942        0.297486       0.0803765 
        5.10513        0.297323       0.0797471 
        5.12084        0.297318       0.0791241 
        5.13656        0.297687       0.0785079 
        5.15225        0.298373       0.0778993 
        5.16796         0.29887       0.0772962 
        5.18369        0.298496       0.0766989 
         5.1994        0.300555        0.076109 
        5.21509        0.300577       0.0755258 
        5.23079        0.300677       0.0749481 
        5.24649        0.302178       0.0743768 
        5.26217         0.30202       0.0738119 
        5.27788        0.303817        0.073252 
        5.29359        0.304456       0.0726979 
        5.30933        0.305033       0.0721486 
        5.32504        0.306374        0.071606 
        5.34073        0.307993       0.0710695 
        5.35646        0.308335       0.0705375 
        5.37218        0.309304       0.0700108 
        5.38789        0.308993       0.0694903 
        5.40357         0.31177       0.0689757 
        5.41929        0.312749       0.0684652 
        5.43502        0.313877       0.0679598 
         5.4507         0.31541       0.0674607 
        5.46639         0.31595       0.0669665 
        5.48212        0.317154       0.0664761 
        5.49786        0.318282         0.06599 
        5.51353        0.320503       0.0655112 
        5.52921        0.320803       0.0650367 
        5.54495        0.323357       0.0645655 
        5.56066        0.324134       0.0640994 
        5.57637        0.325285        0.063638 
        5.59207        0.327484       0.0631816 
        5.60778        0.328609       0.0627294 
        5.62346        0.330463       0.0622824 
        5.63916        0.331567       0.0618392 
        5.65487        0.332919       0.0614001 
         5.6706        0.334479       0.0609648 
        5.68633        0.336655       0.0605335 
        5.70203        0.339442       0.0601073 
        5.71773        0.339295       0.0596852 
        5.73344        0.342075        0.059267 
        5.74916        0.344678       0.0588524 
        5.76486        0.345468       0.0584423 
        5.78054         0.34697       0.0580368 
        5.79626        0.348594        0.057634 
          5.812        0.351479       0.0572346 
         5.8277        0.352947       0.0568401 
        5.84339        0.353934       0.0564493 
        5.85911        0.357635       0.0560615 
        5.87484        0.358163       0.0556774 
        5.89053        0.361226       0.0552976 
        5.90623         0.36279       0.0549212 
        5.92195        0.363748       0.0545477 
        5.93767        0.366085       0.0541778 
        5.95336        0.367717        0.053812 
        5.96905         0.36953       0.0534497 
        5.98476        0.371096       0.0530902 
        6.00048        0.372763       0.0527339 
        6.01617        0.376245       0.0523813 
        6.03185        0.377192       0.0520324 
        6.04756         0.37881       0.0516858 
        6.06331        0.381843       0.0513417 
        6.07903        0.383278       0.0510014 
        6.09473        0.384764       0.0506644 
        6.11044        0.386148       0.0503303 
        6.12616        0.389213       0.0499992 
        6.14186        0.389555       0.0496714 
        6.15755        0.394453       0.0493465 
        6.17326        0.394972       0.0490243 
        6.18898        0.396419       0.0487049 
        6.20467         0.39907       0.0483888 
        6.22036        0.399789       0.0480756 
         6.2361        0.402017       0.0477643 
         6.2518          0.4047       0.0474562 
        6.26748        0.405946       0.0471516 
        6.28319        0.409344       0.0468488 
        6.29893        0.411055       0.0465484 
        6.31463        0.412243       0.0462511 
        6.33033        0.414866       0.0459565 
        6.34604        0.416543       0.0456643 
        6.36177        0.418076       0.0453743 
        6.37747        0.419229       0.0450874 
