# k  (h/Mpc)    Pcb(k)  (Mpc/h)^3    Pcb_linear(k) (Mpc/h)^3   ShotnoiseSubtracted = true
      0.0200456         9205.23         9337.16 
      0.0350414         6954.82          6787.8 
      0.0492313         4900.12         4931.89 
      0.0637834         3971.82         4099.83 
      0.0800726          3132.2         3253.94 
       0.096163         2437.45         2361.01 
       0.111083         1977.66         1883.21 
       0.126058         1655.67          1668.9 
       0.142273         1421.29         1413.93 
       0.158546         1164.95         1116.71 
        0.17375         1013.93         940.825 
       0.188953          932.88         851.896 
       0.204907         795.128         753.754 
       0.220756         710.944         637.721 
        0.23588         629.875         554.762 
         0.2514         564.165         503.996 
       0.267535         544.153          456.03 
       0.283568         474.396         402.157 
       0.299022         449.896         358.301 
       0.314451         447.407         327.463 
       0.330372         385.332          300.41 
       0.346141          357.04         272.668 
       0.361624         339.278         247.818 
       0.377134         313.972         228.032 
       0.392932         305.564         210.993 
       0.408854         289.568         194.495 
       0.424564         278.228         179.269 
       0.440253         251.055         166.203 
       0.455999         238.612         154.842 
       0.471626         236.015         144.401 
        0.48727          225.44         134.634 
       0.502856         205.808          125.86 
       0.518488         205.538         118.031 
       0.534347         191.202         110.753 
       0.550082         186.781         104.043 
       0.565732         184.414         97.9032 
       0.581496         171.461         92.2803 
       0.597222         167.671         87.1236 
       0.612804         162.406         82.3818 
       0.628434         157.431          77.962 
       0.644267         149.754         73.8299 
       0.660051         145.868         70.0215 
       0.675724         144.223          66.505 
       0.691403         140.534         63.2269 
       0.707174         135.663         60.1514 
       0.722871         133.437         57.2926 
        0.73838         131.163         54.6503 
       0.754018         123.152         52.1546 
       0.769845         122.841         49.7877 
        0.78569         119.522         47.5656 
       0.801365         115.818         45.5013 
       0.817031         112.394         43.5614 
       0.832809         110.471         41.7228 
       0.848511         107.908         39.9991 
       0.864097         106.054         38.3851 
       0.879701         104.366         36.8591 
       0.895507         100.775         35.3984 
       0.911279         98.8997         34.0202 
        0.92691         96.4485         32.7272 
       0.942635         94.4039         31.4945 
       0.958396         93.7796          30.323 
       0.974128         91.6538         29.2135 
       0.989692         89.6345         28.1707 
        1.00528         88.1521         27.1775 
        1.02113         85.9145         26.2168 
        1.03692         85.8012         25.3063 
        1.05264         84.4763         24.4434 
        1.06832         81.6289         23.6222 
        1.08405         80.9897         22.8367 
        1.09979         80.2689         22.0866 
        1.11537         78.0914         21.3778 
        1.13105         76.8773          20.696 
        1.14679         75.7732         20.0413 
        1.16256         74.2762         19.4139 
        1.17828         73.6711         18.8155 
        1.19395         71.6408         18.2444 
         1.2097         71.7786         17.6941 
        1.22537         70.0008         17.1694 
          1.241         69.7309         16.6675 
        1.25666         67.3232         16.1845 
        1.27241         67.1895         15.7185 
        1.28819         66.5352         15.2701 
        1.30392          65.165         14.8406 
        1.31957          64.793         14.4295 
        1.33529            63.8         14.0326 
        1.35108         63.1018          13.649 
        1.36674         62.0996         13.2826 
         1.3824         61.3227           12.93 
        1.39811          60.132         12.5891 
        1.41389         59.2311         12.2592 
        1.42964         58.7695         11.9417 
        1.44531         57.9875          11.637 
        1.46101         57.4802         11.3424 
        1.47667         56.5507         11.0588 
        1.49229         55.8333         10.7858 
        1.50793         55.2623         10.5216 
        1.52367         54.7365         10.2647 
        1.53953         53.9484         10.0146 
        1.55526         53.0844         9.77486 
        1.57092          52.833         9.54399 
        1.58662         52.1003         9.32003 
        1.60235         51.3957         9.10285 
        1.61809         50.5823          8.8925 
        1.63369          49.975         8.69067 
        1.64941         49.6213         8.49369 
        1.66519         48.6005         8.30211 
        1.68085         48.3651         8.11781 
        1.69652         47.3879         7.93906 
        1.71228         47.2347          7.7647 
        1.72806         46.5758         7.59544 
        1.74368         45.9664         7.43294 
        1.75933         45.6945         7.27488 
        1.77505         45.2391         7.12068 
        1.79081         44.6449         6.97069 
         1.8065         44.0725         6.82566 
        1.82218          43.092          6.6849 
        1.83797         42.8515         6.54716 
        1.85367         42.4961         6.41406 
        1.86928         42.3007         6.28546 
        1.88497         41.4404          6.1597 
        1.90073         41.0318         6.03692 
        1.91647         40.8817          5.9176 
        1.93218          40.684         5.80176 
        1.94787         39.9695          5.6892 
        1.96363         39.3089         5.57919 
        1.97935         39.1102         5.47231 
        1.99499         38.6456         5.36884 
        2.01064         38.1022         5.26791 
         2.0264         37.9474         5.16893 
        2.04216         37.5062         5.07255 
        2.05781         37.0415         4.97924 
        2.07353         36.5234         4.88795 
        2.08928          36.483         4.79875 
        2.10499         36.0834         4.71202 
        2.12065         35.5826         4.62769 
        2.13633         35.4176         4.54536 
        2.15211         34.7864          4.4645 
        2.16785         34.3647         4.38584 
        2.18349         34.0928         4.30957 
        2.19916         33.7501         4.23495 
        2.21489         33.5101         4.16186 
        2.23063         33.1689         4.09044 
         2.2463         32.9416         4.02102 
        2.26194          32.424         3.95338 
        2.27765         32.1093         3.88696 
        2.29341         31.7948         3.82189 
        2.30914         31.4703         3.75845 
        2.32486         31.0842         3.69648 
        2.34061         30.8867         3.63581 
        2.35635         30.5906         3.57656 
        2.37203         30.3254         3.51883 
        2.38768         30.0527          3.4625 
        2.40339         29.8425          3.4072 
        2.41914         29.4958         3.35297 
        2.43483         29.3435         3.30012 
         2.4505         28.8873          3.2485 
        2.46622           28.56         3.19781 
        2.48195         28.4034         3.14819 
        2.49759         27.9421          3.0999 
        2.51328         27.7506         3.05249 
        2.52906         27.5936         3.00577 
        2.54479         27.2703         2.96021 
        2.56049         27.1852         2.91568 
        2.57618         26.7996          2.8721 
        2.59189         26.4989         2.82935 
        2.60758          26.301         2.78754 
        2.62325         25.9764         2.74662 
        2.63898         25.8904         2.70639 
        2.65468         25.5385         2.66704 
        2.67044         25.3107         2.62831 
        2.68618         25.0402         2.59043 
        2.70184         24.7491         2.55346 
        2.71755         24.5782         2.51711 
        2.73329         24.3026         2.48142 
        2.74897          24.136         2.44654 
        2.76462         23.9705          2.4124 
        2.78034         23.6065         2.37877 
        2.79607         23.3984         2.34575 
        2.81179          23.216          2.3134 
        2.82749         23.0142         2.28169 
        2.84321         22.8013         2.25054 
        2.85893         22.6061         2.21998 
        2.87462         22.4143         2.19004 
        2.89033         22.2101         2.16063 
        2.90605         21.9151         2.13173 
        2.92176         21.6649         2.10337 
        2.93747         21.5807         2.07555 
        2.95318         21.4489         2.04822 
        2.96891          21.145         2.02137 
        2.98456         21.0135         1.99512 
        3.00023         20.7149          1.9693 
        3.01596         20.4552         1.94386 
        3.03164         20.3692         1.91894 
        3.04738         20.2216         1.89438 
         3.0631         20.0143         1.87026 
        3.07883         19.8135         1.84656 
        3.09456         19.6418         1.82328 
        3.11026         19.4297         1.80043 
        3.12596         19.2193         1.77798 
        3.14163         19.1144         1.75596 
        3.15734         18.9571         1.73426 
        3.17308         18.7779         1.71287 
        3.18879         18.5586         1.69191 
        3.20447         18.4819         1.67133 
         3.2202           18.22         1.65102 
         3.2359         18.0692         1.63109 
        3.25157         17.9242         1.61154 
        3.26729         17.7822         1.59224 
        3.28304         17.6818         1.57323 
        3.29877         17.5494         1.55455 
        3.31446         17.3433         1.53621 
        3.33014         17.1314         1.51819 
        3.34585         17.0988         1.50043 
        3.36158         16.8675         1.48292 
        3.37727         16.7386         1.46575 
        3.39294         16.5706         1.44887 
        3.40867         16.4523         1.43219 
        3.42439         16.2803         1.41578 
        3.44008         16.1298         1.39967 
        3.45578         16.0014         1.38379 
        3.47153         15.8982         1.36812 
        3.48724         15.7564         1.35272 
        3.50292         15.6519          1.3376 
        3.51859         15.4897         1.32271 
        3.53431         15.3507         1.30801 
        3.55007          15.215         1.29349 
        3.56577         15.1201         1.27925 
        3.58146         14.9515         1.26523 
        3.59719         14.8445         1.25138 
        3.61292         14.7064         1.23775 
        3.62859         14.5506         1.22438 
        3.64429         14.4593         1.21117 
        3.66003         14.3488         1.19812 
        3.67578         14.2624         1.18527 
        3.69146         14.1309         1.17265 
        3.70712         13.9783         1.16024 
        3.72284         13.8448         1.14797 
        3.73853         13.7738         1.13589 
        3.75422         13.5906         1.12398 
        3.76993         13.5006         1.11224 
        3.78564         13.4268         1.10066 
        3.80137         13.2906         1.08923 
        3.81707         13.1386         1.07799 
        3.83279         13.1056         1.06689 
        3.84853         12.9664         1.05594 
        3.86424         12.8528         1.04516 
        3.87992         12.7508         1.03455 
        3.89561         12.6329         1.02408 
        3.91134         12.5529         1.01373 
        3.92704         12.4498         1.00355 
        3.94273         12.3699        0.993507 
        3.95845         12.2412        0.983588 
        3.97418         12.1265        0.973801 
        3.98988         12.0612        0.964161 
        4.00554         11.9443        0.954678 
        4.02125         11.8532        0.945294 
        4.03698         11.7793        0.936023 
        4.05268         11.6543        0.926897 
        4.06839         11.5461        0.917885 
         4.0841         11.4669        0.908996 
        4.09983         11.3713        0.900213 
        4.11555         11.2939        0.891549 
        4.13124         11.1839        0.883022 
        4.14693         11.1021          0.8746 
        4.16266         11.0285        0.866269 
        4.17839         10.9305         0.85805 
        4.19408         10.8608        0.849957 
        4.20977         10.7427        0.841965 
        4.22551         10.6774        0.834056 
        4.24123          10.607        0.826257 
        4.25691         10.4888        0.818579 
        4.27259         10.4093        0.810996 
        4.28831         10.3259        0.803494 
        4.30404         10.2693        0.796079 
        4.31974         10.1781        0.788775 
        4.33543         10.0821        0.781566 
        4.35116         10.0239        0.774429 
        4.36688         9.93451        0.767385 
        4.38255         9.86098        0.760454 
        4.39825         9.77533        0.753594 
        4.41398           9.706        0.746804 
         4.4297         9.61238        0.740106 
        4.44541          9.5697        0.733491 
        4.46111         9.46679        0.726961 
        4.47683         9.39823        0.720507 
        4.49251         9.32202        0.714144 
        4.50819         9.26148        0.707859 
         4.5239         9.21042        0.701641 
        4.53962         9.11049         0.69549 
        4.55535         9.06161        0.689409 
        4.57106         8.97094         0.68341 
        4.58678         8.93201        0.677481 
         4.6025         8.84219        0.671621 
        4.61821          8.7709        0.665832 
        4.63391         8.68944        0.660117 
         4.6496         8.63813        0.654473 
        4.66532         8.59012        0.648885 
        4.68103         8.48704        0.643365 
        4.69673         8.44497        0.637915 
        4.71241         8.36439        0.632533 
        4.72811         8.29655        0.627204 
        4.74384         8.27458         0.62193 
        4.75955         8.20319        0.616724 
        4.77525         8.15135        0.611581 
        4.79096         8.08202         0.60649 
        4.80669         8.00621        0.601455 
         4.8224          7.9486        0.596483 
        4.83809         7.90535        0.591572 
        4.85379         7.85026        0.586713 
         4.8695         7.79359        0.581905 
        4.88521         7.71357        0.577152 
        4.90093         7.68766        0.572452 
        4.91663         7.62353        0.567809 
        4.93234         7.56565        0.563212 
        4.94807          7.5011        0.558663 
        4.96377         7.44918        0.554173 
        4.97943         7.38306        0.549741 
        4.99514         7.34096        0.545346 
        5.01086         7.28319        0.540997 
        5.02654          7.2407        0.536705 
        5.04227         7.17209        0.532448 
          5.058         7.12603        0.528234 
        5.07371          7.1103        0.524075 
        5.08942         7.01928        0.519959 
        5.10513         6.98536        0.515888 
        5.12084         6.92193        0.511858 
        5.13656         6.88267        0.507871 
        5.15225         6.83557        0.503934 
        5.16796          6.7921        0.500033 
        5.18369         6.74448        0.496169 
         5.1994         6.70131        0.492353 
        5.21509         6.64053         0.48858 
        5.23079         6.59575        0.484842 
        5.24649         6.55288        0.481147 
        5.26217          6.5132        0.477492 
        5.27788         6.46396        0.473871 
        5.29359         6.42823        0.470286 
        5.30933         6.36517        0.466733 
        5.32504         6.33857        0.463223 
        5.34073         6.28869        0.459752 
        5.35646         6.24968         0.45631 
        5.37218         6.20267        0.452903 
        5.38789         6.15928        0.449536 
        5.40357         6.10398        0.446207 
        5.41929         6.08015        0.442905 
        5.43502         6.03811        0.439635 
         5.4507         5.98908        0.436406 
        5.46639         5.94601        0.433209 
        5.48212         5.91138        0.430037 
        5.49786          5.8679        0.426893 
        5.51353         5.83836        0.423795 
        5.52921         5.78908        0.420725 
        5.54495         5.75517        0.417677 
        5.56066         5.72189        0.414662 
        5.57637           5.679        0.411677 
        5.59207         5.63163        0.408725 
        5.60778         5.60729          0.4058 
        5.62346         5.56963        0.402907 
        5.63916         5.52084        0.400041 
        5.65487         5.48308          0.3972 
         5.6706         5.44916        0.394384 
        5.68633         5.41946        0.391594 
        5.70203         5.37743        0.388837 
        5.71773         5.35089        0.386107 
        5.73344         5.31271        0.383401 
        5.74916         5.27179        0.380719 
        5.76486         5.25361        0.378066 
        5.78054          5.1987        0.375443 
        5.79626         5.17124        0.372837 
          5.812         5.13434        0.370253 
         5.8277         5.10672        0.367701 
        5.84339         5.07317        0.365173 
        5.85911         5.04393        0.362665 
        5.87484         4.99933         0.36018 
        5.89053         4.96619        0.357723 
        5.90623         4.94816        0.355288 
        5.92195         4.91988        0.352872 
        5.93767         4.85967        0.350479 
        5.95336         4.84591        0.348112 
        5.96905         4.82559        0.345768 
        5.98476         4.78895        0.343443 
        6.00048         4.76075        0.341138 
        6.01617         4.73123        0.338857 
        6.03185         4.69885          0.3366 
        6.04756         4.66965        0.334358 
        6.06331            4.64        0.332132 
        6.07903         4.61014         0.32993 
        6.09473         4.58835        0.327751 
        6.11044         4.54648        0.325589 
        6.12616          4.5265        0.323447 
        6.14186         4.49019        0.321326 
        6.15755         4.46122        0.319225 
        6.17326          4.4343        0.317141 
        6.18898         4.41724        0.315074 
        6.20467         4.37736        0.313029 
        6.22036         4.36383        0.311003 
         6.2361          4.3232        0.308989 
         6.2518          4.3042        0.306997 
        6.26748         4.26916        0.305026 
        6.28319         4.25681        0.303067 
        6.29893           4.223        0.301123 
        6.31463         4.20436          0.2992 
        6.33033         4.17837        0.297295 
        6.34604         4.14771        0.295404 
        6.36177         4.12534        0.293528 
        6.37747         4.10407        0.291672 
