# k  (h/Mpc)    Pcb(k)  (Mpc/h)^3    Pcb_linear(k) (Mpc/h)^3   ShotnoiseSubtracted = true
      0.0200456         701.492         711.261 
      0.0350414         515.259         517.063 
      0.0492313         377.085         375.688 
      0.0637834         314.411         312.306 
      0.0800726         249.238          247.87 
       0.096163         179.604         179.851 
       0.111083         142.728         143.454 
       0.126058          127.52         127.129 
       0.142273          108.44         107.706 
       0.158546         86.0828         85.0655 
        0.17375         71.5961         71.6676 
       0.188953         65.3588         64.8934 
       0.204907         59.1143         57.4174 
       0.220756         49.4703         48.5786 
        0.23588         43.0464         42.2592 
         0.2514         38.7482          38.392 
       0.267535         35.2376         34.7382 
       0.283568         31.2627         30.6344 
       0.299022         28.0728         27.2937 
       0.314451         25.1986         24.9446 
       0.330372         23.3235         22.8839 
       0.346141         21.1904         20.7706 
       0.361624         19.4088         18.8776 
       0.377134         18.0351         17.3704 
       0.392932         16.1553         16.0725 
       0.408854         15.3578         14.8157 
       0.424564         14.1367         13.6559 
       0.440253         13.0754         12.6606 
       0.455999         12.2907         11.7951 
       0.471626         11.5346         10.9998 
        0.48727         10.7278         10.2558 
       0.502856         9.98817         9.58742 
       0.518488         9.52188         8.99106 
       0.534347         9.04653         8.43666 
       0.550082         8.28989         7.92547 
       0.565732         7.66305          7.4578 
       0.581496         7.45144         7.02948 
       0.597222         7.10313         6.63666 
       0.612804         6.63176         6.27545 
       0.628434         6.37575         5.93878 
       0.644267         6.04427         5.62401 
       0.660051         5.69947         5.33391 
       0.675724         5.42302         5.06604 
       0.691403         5.21572         4.81633 
       0.707174         4.93521         4.58205 
       0.722871         4.70816         4.36428 
        0.73838         4.52376           4.163 
       0.754018         4.36884         3.97289 
       0.769845         4.13371         3.79259 
        0.78569         3.97854         3.62332 
       0.801365         3.79875         3.46608 
       0.817031         3.66286          3.3183 
       0.832809         3.51846         3.17825 
       0.848511         3.33439         3.04695 
       0.864097         3.19898           2.924 
       0.879701         3.08492         2.80775 
       0.895507         2.96444         2.69648 
       0.911279         2.90054          2.5915 
        0.92691         2.78306           2.493 
       0.942635         2.66513         2.39911 
       0.958396         2.56192         2.30987 
       0.974128         2.48231         2.22535 
       0.989692         2.42231         2.14591 
        1.00528         2.31654         2.07025 
        1.02113         2.22651         1.99707 
        1.03692         2.18356         1.92771 
        1.05264         2.10091         1.86198 
        1.06832         2.04477         1.79943 
        1.08405         1.94534         1.73959 
        1.09979         1.90072         1.68245 
        1.11537         1.84976         1.62846 
        1.13105         1.80006         1.57652 
        1.14679         1.75026         1.52666 
        1.16256         1.68307         1.47886 
        1.17828         1.64122         1.43327 
        1.19395         1.59397         1.38977 
         1.2097         1.52454         1.34786 
        1.22537         1.49548         1.30788 
          1.241         1.45881         1.26965 
        1.25666          1.4408         1.23286 
        1.27241         1.37233         1.19736 
        1.28819         1.33899         1.16321 
        1.30392         1.31363         1.13048 
        1.31957          1.2795         1.09917 
        1.33529         1.23916         1.06893 
        1.35108         1.20888         1.03972 
        1.36674         1.16635         1.01181 
         1.3824         1.14588        0.984948 
        1.39811         1.11474        0.958978 
        1.41389         1.09275        0.933847 
        1.42964         1.06733        0.909663 
        1.44531         1.03713        0.886455 
        1.46101         1.01809         0.86401 
        1.47667        0.978044        0.842411 
        1.49229        0.969881         0.82161 
        1.50793        0.941325        0.801489 
        1.52367        0.923842        0.781915 
        1.53953        0.894393        0.762865 
        1.55526        0.877295        0.744603 
        1.57092        0.856646        0.727016 
        1.58662        0.841279        0.709956 
        1.60235        0.820925        0.693413 
        1.61809        0.798188        0.677389 
        1.63369         0.79316        0.662015 
        1.64941        0.767504        0.647009 
        1.66519        0.752979        0.632415 
        1.68085        0.730579        0.618376 
        1.69652         0.71774        0.604761 
        1.71228        0.707063        0.591478 
        1.72806        0.685863        0.578585 
        1.74368        0.678572        0.566206 
        1.75933        0.660532        0.554166 
        1.77505         0.64868         0.54242 
        1.79081        0.635726        0.530994 
         1.8065        0.617702        0.519947 
        1.82218        0.611005        0.509224 
        1.83797         0.59783        0.498731 
        1.85367        0.591981        0.488593 
        1.86928        0.577776        0.478797 
        1.88497        0.564094        0.469217 
        1.90073        0.551849        0.459864 
        1.91647        0.546457        0.450775 
        1.93218        0.532619        0.441951 
        1.94787        0.523285        0.433377 
        1.96363        0.512596        0.424996 
        1.97935        0.502524        0.416855 
        1.99499        0.493969        0.408973 
        2.01064         0.48477        0.401284 
         2.0264        0.475687        0.393745 
        2.04216        0.469733        0.386403 
        2.05781        0.460037        0.379295 
        2.07353        0.450375        0.372341 
        2.08928        0.440893        0.365546 
        2.10499        0.435911        0.358939 
        2.12065        0.431005        0.352516 
        2.13633        0.422201        0.346244 
        2.15211        0.413793        0.340085 
        2.16785        0.405875        0.334093 
        2.18349        0.398771        0.328283 
        2.19916        0.393807        0.322599 
        2.21489         0.38585        0.317031 
        2.23063         0.38025         0.31159 
         2.2463        0.375245        0.306302 
        2.26194        0.364369         0.30115 
        2.27765        0.360732         0.29609 
        2.29341        0.356278        0.291134 
        2.30914        0.351913        0.286301 
        2.32486        0.344349        0.281581 
        2.34061        0.338734        0.276959 
        2.35635        0.332127        0.272445 
        2.37203        0.327816        0.268048 
        2.38768        0.322867        0.263757 
        2.40339        0.318647        0.259544 
        2.41914        0.313781        0.255414 
        2.43483        0.308518        0.251388 
         2.4505        0.302653        0.247455 
        2.46622        0.298448        0.243594 
        2.48195        0.295464        0.239814 
        2.49759        0.290672        0.236135 
        2.51328        0.285341        0.232524 
        2.52906        0.282304        0.228965 
        2.54479        0.276901        0.225495 
        2.56049        0.271957        0.222102 
        2.57618        0.268778        0.218783 
        2.59189        0.265846        0.215527 
        2.60758        0.262392        0.212342 
        2.62325        0.257549        0.209225 
        2.63898        0.254474         0.20616 
        2.65468        0.250019        0.203162 
        2.67044        0.246831        0.200212 
        2.68618        0.243168        0.197327 
        2.70184        0.240115         0.19451 
        2.71755        0.235848        0.191742 
        2.73329        0.233095        0.189023 
        2.74897        0.230468        0.186366 
        2.76462         0.22721        0.183765 
        2.78034        0.223787        0.181204 
        2.79607        0.220856        0.178688 
        2.81179        0.218295        0.176224 
        2.82749         0.21492        0.173808 
        2.84321        0.212659        0.171435 
        2.85893        0.209695        0.169108 
        2.87462        0.206589        0.166827 
        2.89033        0.203789        0.164586 
        2.90605        0.201578        0.162385 
        2.92176        0.198772        0.160225 
        2.93747        0.195929        0.158105 
        2.95318         0.19407        0.156024 
        2.96891        0.191255        0.153979 
        2.98456        0.188719        0.151979 
        3.00023        0.186889        0.150012 
        3.01596        0.184204        0.148074 
        3.03164        0.182456        0.146176 
        3.04738         0.17907        0.144305 
         3.0631        0.177891        0.142468 
        3.07883        0.174943        0.140662 
        3.09456        0.173016        0.138889 
        3.11026        0.171473        0.137148 
        3.12596        0.168712        0.135438 
        3.14163         0.16713         0.13376 
        3.15734         0.16564        0.132108 
        3.17308        0.163713        0.130479 
        3.18879        0.161875        0.128882 
        3.20447        0.158824        0.127314 
         3.2202        0.158258        0.125767 
         3.2359         0.15598        0.124249 
        3.25157        0.154624        0.122759 
        3.26729        0.152278         0.12129 
        3.28304        0.151406        0.119841 
        3.29877         0.14928        0.118418 
        3.31446        0.147805        0.117021 
        3.33014        0.146417        0.115648 
        3.34585        0.145545        0.114295 
        3.36158        0.143418        0.112962 
        3.37727        0.142306        0.111654 
        3.39294        0.140313        0.110368 
        3.40867        0.138647        0.109097 
        3.42439        0.137659        0.107848 
        3.44008        0.135715         0.10662 
        3.45578        0.135081         0.10541 
        3.47153        0.133562        0.104217 
        3.48724        0.132338        0.103044 
        3.50292        0.131081        0.101892 
        3.51859        0.129278        0.100758 
        3.53431        0.127996       0.0996377 
        3.55007        0.127367       0.0985318 
        3.56577         0.12563        0.097447 
        3.58146        0.124602        0.096379 
        3.59719        0.123674       0.0953246 
        3.61292        0.122742       0.0942863 
        3.62859        0.121283       0.0932673 
        3.64429         0.12007       0.0922615 
        3.66003        0.119214       0.0912674 
        3.67578        0.118087       0.0902883 
        3.69146         0.11693       0.0893272 
        3.70712        0.116179       0.0883819 
        3.72284        0.115091       0.0874468 
        3.73853         0.11423       0.0865268 
        3.75422        0.113322       0.0856197 
        3.76993        0.112163       0.0847248 
        3.78564        0.111046       0.0838431 
        3.80137        0.110155       0.0829725 
        3.81707        0.109231        0.082116 
        3.83279         0.10856        0.081271 
        3.84853        0.107304       0.0804365 
        3.86424        0.106412       0.0796153 
        3.87992        0.105512       0.0788068 
        3.89561        0.104607       0.0780095 
        3.91134        0.104036       0.0772216 
        3.92704        0.102787       0.0764454 
        3.94273        0.101846       0.0756807 
        3.95845        0.100915       0.0749251 
        3.97418        0.100556       0.0741796 
        3.98988       0.0989767       0.0734452 
        4.00554       0.0984949       0.0727228 
        4.02125       0.0973385       0.0720081 
        4.03698       0.0959897       0.0713018 
        4.05268       0.0949579       0.0706066 
        4.06839       0.0936784       0.0699202 
         4.0841       0.0924581       0.0692431 
        4.09983       0.0913975        0.068574 
        4.11555       0.0901025        0.067914 
        4.13124       0.0887436       0.0672645 
        4.14693       0.0880226       0.0666229 
        4.16266       0.0867671       0.0659883 
        4.17839       0.0858649       0.0653622 
        4.19408         0.08491       0.0647457 
        4.20977       0.0840356       0.0641369 
        4.22551        0.083164       0.0635345 
        4.24123       0.0821756       0.0629404 
        4.25691       0.0812407       0.0623555 
        4.27259        0.080515       0.0617779 
        4.28831       0.0795862       0.0612064 
        4.30404       0.0790272       0.0606416 
        4.31974       0.0785724       0.0600851 
        4.33543        0.077714        0.059536 
        4.35116       0.0769036       0.0589924 
        4.36688       0.0762116       0.0584557 
        4.38255       0.0753822       0.0579278 
        4.39825        0.075191       0.0574052 
        4.41398       0.0746166        0.056888 
         4.4297       0.0741379       0.0563778 
        4.44541       0.0737557       0.0558739 
        4.46111       0.0731565       0.0553765 
        4.47683       0.0727192       0.0548848 
        4.49251       0.0722665       0.0544001 
        4.50819       0.0718801       0.0539214 
         4.5239       0.0714933       0.0534477 
        4.53962       0.0712513       0.0529791 
        4.55535       0.0709773        0.052516 
        4.57106       0.0705981        0.052059 
        4.58678       0.0701697       0.0516073 
         4.6025       0.0702482       0.0511609 
        4.61821       0.0701551       0.0507199 
        4.63391       0.0699458       0.0502846 
         4.6496        0.069707       0.0498546 
        4.66532        0.069642        0.049429 
        4.68103        0.069568       0.0490085 
        4.69673       0.0692388       0.0485933 
        4.71241       0.0694094       0.0481834 
        4.72811       0.0692809       0.0477774 
        4.74384       0.0693275       0.0473757 
        4.75955       0.0696815       0.0469792 
        4.77525       0.0697331       0.0465874 
        4.79096       0.0694987       0.0461996 
        4.80669       0.0695417        0.045816 
         4.8224       0.0700173       0.0454372 
        4.83809        0.069894       0.0450631 
        4.85379       0.0700594        0.044693 
         4.8695       0.0702407       0.0443268 
        4.88521       0.0707404       0.0439647 
        4.90093       0.0707449       0.0436067 
        4.91663       0.0710139        0.043253 
        4.93234       0.0712108       0.0429028 
        4.94807       0.0718959       0.0425563 
        4.96377       0.0722279       0.0422143 
        4.97943       0.0729157       0.0418767 
        4.99514       0.0728122       0.0415419 
        5.01086       0.0735176       0.0412106 
        5.02654       0.0738337       0.0408837 
        5.04227       0.0744435       0.0405593 
          5.058       0.0750021       0.0402384 
        5.07371       0.0756978       0.0399215 
        5.08942       0.0758555       0.0396081 
        5.10513       0.0767892       0.0392979 
        5.12084       0.0773183       0.0389909 
        5.13656       0.0777699       0.0386873 
        5.15225       0.0789873       0.0383873 
        5.16796       0.0796947       0.0380901 
        5.18369        0.080224       0.0377958 
         5.1994       0.0813997       0.0375051 
        5.21509       0.0818978       0.0372177 
        5.23079         0.08289        0.036933 
        5.24649       0.0839776       0.0366515 
        5.26217        0.084998       0.0363731 
        5.27788       0.0859394       0.0360972 
        5.29359       0.0866849       0.0358242 
        5.30933       0.0876744       0.0355535 
        5.32504       0.0889569       0.0352861 
        5.34073       0.0899018       0.0350218 
        5.35646       0.0907203       0.0347596 
        5.37218       0.0927152          0.0345 
        5.38789       0.0933875       0.0342435 
        5.40357        0.094499         0.03399 
        5.41929       0.0959935       0.0337384 
        5.43502       0.0975058       0.0334893 
         5.4507       0.0987123       0.0332434 
        5.46639        0.100051       0.0329998 
        5.48212        0.101655       0.0327582 
        5.49786        0.103095       0.0325187 
        5.51353        0.104711       0.0322827 
        5.52921        0.105674       0.0320489 
        5.54495        0.108126       0.0318167 
        5.56066        0.109316        0.031587 
        5.57637        0.111259       0.0313596 
        5.59207         0.11325       0.0311347 
        5.60778        0.115134       0.0309119 
        5.62346        0.117113       0.0306916 
        5.63916        0.118842       0.0304732 
        5.65487        0.120521       0.0302568 
         5.6706        0.122868       0.0300423 
        5.68633        0.124158       0.0298298 
        5.70203        0.125998       0.0296197 
        5.71773        0.128882       0.0294118 
        5.73344        0.130477       0.0292057 
        5.74916        0.133506       0.0290014 
        5.76486         0.13552       0.0287993 
        5.78054        0.137475       0.0285995 
        5.79626        0.139734       0.0284009 
          5.812        0.142524       0.0282041 
         5.8277        0.145376       0.0280097 
        5.84339        0.147086       0.0278172 
        5.85911        0.150407       0.0276261 
        5.87484        0.152566       0.0274368 
        5.89053        0.155979       0.0272497 
        5.90623        0.158518       0.0270642 
        5.92195        0.160933       0.0268801 
        5.93767        0.163475       0.0266978 
        5.95336        0.167588       0.0265176 
        5.96905        0.169612        0.026339 
        5.98476        0.172102       0.0261619 
        6.00048         0.17566       0.0259863 
        6.01617        0.178111       0.0258125 
        6.03185        0.182094       0.0256406 
        6.04756         0.18536       0.0254698 
        6.06331        0.187962       0.0253002 
        6.07903        0.191547       0.0251325 
        6.09473        0.195003       0.0249665 
        6.11044        0.198679       0.0248018 
        6.12616        0.200749       0.0246387 
        6.14186        0.205078       0.0244771 
        6.15755        0.207971        0.024317 
        6.17326        0.213039       0.0241583 
        6.18898        0.215392       0.0240009 
        6.20467        0.220596       0.0238451 
        6.22036        0.223263       0.0236908 
         6.2361        0.225896       0.0235373 
         6.2518        0.231114       0.0233856 
        6.26748        0.233997       0.0232354 
        6.28319        0.238487       0.0230862 
        6.29893        0.242991       0.0229382 
        6.31463        0.247283       0.0227917 
        6.33033        0.251264       0.0226465 
        6.34604        0.253659       0.0225025 
        6.36177        0.258542       0.0223596 
        6.37747        0.264075       0.0222182 
