# k  (h/Mpc)    Pcb(k)  (Mpc/h)^3    Pcb_linear(k) (Mpc/h)^3   ShotnoiseSubtracted = true
      0.0200456         1878.52         1902.71 
      0.0350414         1403.29         1383.21 
      0.0492313          1007.4         1005.01 
      0.0637834         824.457         835.457 
      0.0800726         652.404         663.082 
       0.096163         490.232         481.124 
       0.111083         394.117         383.757 
       0.126058         338.203         340.086 
       0.142273         286.219         288.128 
       0.158546         230.634         227.561 
        0.17375          197.27          191.72 
       0.188953         177.517         173.598 
       0.204907         152.223         153.599 
       0.220756         133.277         129.954 
        0.23588         116.411         113.049 
         0.2514         105.425         102.703 
       0.267535         97.1709          92.929 
       0.283568         85.3729         81.9509 
       0.299022         77.5729          73.014 
       0.314451         72.8609         66.7298 
       0.330372         65.3015         61.2171 
       0.346141         59.6183         55.5639 
       0.361624         54.5886            50.5 
       0.377134         49.9376         46.4679 
       0.392932         48.1531         42.9959 
       0.408854         43.8014         39.6339 
       0.424564         41.7249         36.5311 
       0.440253         38.0567         33.8686 
       0.455999         34.7927         31.5534 
       0.471626         32.8384         29.4258 
        0.48727         31.7899         27.4355 
       0.502856         29.7026         25.6475 
       0.518488         27.6159         24.0522 
       0.534347         25.9353         22.5691 
       0.550082         24.8975         21.2016 
       0.565732         23.8765         19.9505 
       0.581496         22.4536         18.8047 
       0.597222         21.1705         17.7539 
       0.612804         20.0783         16.7876 
       0.628434          19.611          15.887 
       0.644267         18.5641         15.0449 
       0.660051         17.5889         14.2689 
       0.675724         16.7067         13.5523 
       0.691403         16.2846         12.8843 
       0.707174         15.5533         12.2575 
       0.722871         15.0737          11.675 
        0.73838         14.2041         11.1365 
       0.754018         13.5093          10.628 
       0.769845         13.0494         10.1456 
        0.78569         12.6756         9.69284 
       0.801365         12.1399         9.27218 
       0.817031         11.7213         8.87687 
       0.832809         11.2548         8.50221 
       0.848511         10.9247         8.15096 
       0.864097         10.5308         7.82206 
       0.879701         10.3163         7.51108 
       0.895507         9.92121         7.21342 
       0.911279         9.50902         6.93258 
        0.92691         9.27144         6.66909 
       0.942635         8.98866         6.41791 
       0.958396         8.67484         6.17918 
       0.974128         8.46764         5.95309 
       0.989692         8.06744         5.74058 
        1.00528         7.98558         5.53819 
        1.02113         7.71248         5.34241 
        1.03692         7.52271         5.15687 
        1.05264         7.29352         4.98103 
        1.06832         7.11727         4.81369 
        1.08405         6.93368         4.65362 
        1.09979         6.75189         4.50077 
        1.11537         6.57531         4.35633 
        1.13105         6.41065         4.21739 
        1.14679         6.26531         4.08399 
        1.16256         6.08731         3.95613 
        1.17828         5.98062         3.83418 
        1.19395         5.80351          3.7178 
         1.2097          5.6275         3.60568 
        1.22537         5.49334         3.49874 
          1.241          5.3624         3.39648 
        1.25666         5.32897         3.29806 
        1.27241         5.20592         3.20309 
        1.28819         4.99626         3.11172 
        1.30392         4.91017         3.02419 
        1.31957         4.82448         2.94042 
        1.33529         4.70865         2.85953 
        1.35108          4.6065         2.78138 
        1.36674          4.4917         2.70671 
         1.3824         4.44319         2.63486 
        1.39811         4.33682         2.56538 
        1.41389         4.22612         2.49816 
        1.42964         4.16615         2.43346 
        1.44531         4.08464         2.37138 
        1.46101         4.02626         2.31133 
        1.47667         3.93332         2.25355 
        1.49229          3.8178         2.19791 
        1.50793         3.74759         2.14408 
        1.52367         3.67918         2.09172 
        1.53953         3.60594         2.04076 
        1.55526         3.60173         1.99191 
        1.57092         3.50145         1.94486 
        1.58662         3.45803         1.89922 
        1.60235         3.37808         1.85496 
        1.61809         3.32107          1.8121 
        1.63369         3.26266         1.77097 
        1.64941         3.20717         1.73083 
        1.66519         3.16604         1.69179 
        1.68085          3.1007         1.65423 
        1.69652         3.05469         1.61781 
        1.71228         3.00773         1.58228 
        1.72806         2.96364         1.54779 
        1.74368         2.91584         1.51467 
        1.75933         2.87136         1.48246 
        1.77505         2.81582         1.45104 
        1.79081         2.78095         1.42047 
         1.8065         2.74045         1.39092 
        1.82218         2.68764         1.36224 
        1.83797         2.64157         1.33417 
        1.85367         2.60462         1.30705 
        1.86928         2.57826         1.28084 
        1.88497         2.52085         1.25521 
        1.90073         2.50166         1.23019 
        1.91647         2.45979         1.20588 
        1.93218         2.42577         1.18227 
        1.94787         2.39462         1.15934 
        1.96363         2.36324         1.13692 
        1.97935         2.32428         1.11514 
        1.99499         2.29495         1.09405 
        2.01064         2.26858         1.07349 
         2.0264         2.22781         1.05332 
        2.04216         2.20295         1.03368 
        2.05781         2.16846         1.01466 
        2.07353         2.15545        0.996058 
        2.08928         2.11808        0.977881 
        2.10499         2.08314        0.960207 
        2.12065         2.07408        0.943024 
        2.13633         2.03918        0.926246 
        2.15211          2.0063        0.909769 
        2.16785          1.9866        0.893739 
        2.18349         1.95854        0.878196 
        2.19916         1.94483        0.862991 
        2.21489         1.92234        0.848096 
        2.23063         1.88516        0.833542 
         2.2463         1.85738        0.819396 
        2.26194         1.84564        0.805614 
        2.27765         1.80627        0.792078 
        2.29341          1.7951        0.778819 
        2.30914         1.77028        0.765891 
        2.32486         1.76438        0.753263 
        2.34061          1.7402          0.7409 
        2.35635         1.71934        0.728825 
        2.37203         1.70148        0.717061 
        2.38768         1.68155        0.705582 
        2.40339         1.66125        0.694313 
        2.41914         1.64375        0.683263 
        2.43483         1.62567        0.672493 
         2.4505         1.60615        0.661974 
        2.46622         1.58455        0.651644 
        2.48195         1.57355        0.641533 
        2.49759         1.55209        0.631691 
        2.51328         1.53959        0.622031 
        2.52906         1.52675        0.612511 
        2.54479         1.50463        0.603226 
        2.56049           1.492        0.594152 
        2.57618         1.47532        0.585272 
        2.59189         1.46599         0.57656 
        2.60758         1.44584         0.56804 
        2.62325         1.42759        0.559702 
        2.63898          1.4139        0.551503 
        2.65468         1.39464        0.543485 
        2.67044         1.39214        0.535592 
        2.68618         1.37704        0.527874 
        2.70184         1.36192         0.52034 
        2.71755         1.35337        0.512933 
        2.73329         1.33223         0.50566 
        2.74897         1.32282        0.498551 
        2.76462         1.31021        0.491595 
        2.78034         1.30669        0.484742 
        2.79607         1.28689        0.478014 
        2.81179         1.27468         0.47142 
        2.82749         1.26157        0.464959 
        2.84321         1.25336        0.458611 
        2.85893         1.23925        0.452384 
        2.87462         1.23115        0.446283 
        2.89033         1.21837        0.440289 
        2.90605         1.21047          0.4344 
        2.92176         1.20005        0.428622 
        2.93747         1.18908        0.422952 
        2.95318         1.17503        0.417383 
        2.96891         1.17285        0.411912 
        2.98456          1.1565        0.406563 
        3.00023         1.14592        0.401301 
        3.01596         1.13409        0.396117 
        3.03164         1.12773        0.391038 
        3.04738         1.12031        0.386034 
         3.0631          1.1075        0.381119 
        3.07883         1.10027         0.37629 
        3.09456         1.08868        0.371545 
        3.11026         1.08454        0.366889 
        3.12596         1.07148        0.362313 
        3.14163         1.06724        0.357826 
        3.15734         1.05559        0.353404 
        3.17308         1.05015        0.349047 
        3.18879         1.04294        0.344775 
        3.20447         1.03263         0.34058 
         3.2202         1.02403        0.336443 
         3.2359         1.01657        0.332381 
        3.25157         1.00837        0.328396 
        3.26729         1.00228        0.324465 
        3.28304        0.994237         0.32059 
        3.29877        0.985267        0.316783 
        3.31446        0.981922        0.313047 
        3.33014        0.966595        0.309374 
        3.34585        0.964558        0.305754 
        3.36158        0.957276        0.302187 
        3.37727        0.953844        0.298688 
        3.39294        0.942354        0.295248 
        3.40867        0.939521        0.291849 
        3.42439        0.934921        0.288506 
        3.44008        0.925506        0.285222 
        3.45578        0.917839        0.281986 
        3.47153        0.912074        0.278793 
        3.48724        0.905142        0.275656 
        3.50292        0.896458        0.272574 
        3.51859         0.89717         0.26954 
        3.53431        0.886433        0.266543 
        3.55007        0.883297        0.263585 
        3.56577        0.877245        0.260683 
        3.58146        0.872178        0.257826 
        3.59719        0.865449        0.255005 
        3.61292        0.858365        0.252227 
        3.62859        0.853986        0.249502 
        3.64429        0.846604        0.246811 
        3.66003        0.841277        0.244151 
        3.67578        0.836722        0.241532 
        3.69146         0.83245        0.238961 
        3.70712        0.826963        0.236433 
        3.72284        0.821653        0.233931 
        3.73853        0.814758         0.23147 
        3.75422        0.812144        0.229043 
        3.76993        0.804854        0.226649 
        3.78564         0.80043        0.224291 
        3.80137        0.796121        0.221962 
        3.81707        0.790282        0.219671 
        3.83279        0.785695         0.21741 
        3.84853        0.780756        0.215177 
        3.86424        0.773243        0.212981 
        3.87992        0.773474        0.210818 
        3.89561        0.767294        0.208685 
        3.91134        0.760533        0.206577 
        3.92704        0.756418        0.204501 
        3.94273        0.751967        0.202455 
        3.95845        0.747544        0.200434 
        3.97418         0.74339         0.19844 
        3.98988        0.739062        0.196475 
        4.00554         0.73235        0.194543 
        4.02125         0.72813        0.192631 
        4.03698        0.722767        0.190741 
        4.05268        0.718031        0.188881 
        4.06839        0.711595        0.187045 
         4.0841        0.706005        0.185234 
        4.09983        0.702392        0.183444 
        4.11555        0.697266        0.181678 
        4.13124        0.690317        0.179941 
        4.14693        0.688145        0.178225 
        4.16266        0.679606        0.176527 
        4.17839        0.675773        0.174852 
        4.19408        0.673785        0.173203 
        4.20977        0.668148        0.171574 
        4.22551        0.665578        0.169963 
        4.24123        0.659002        0.168373 
        4.25691        0.654669        0.166809 
        4.27259        0.651718        0.165263 
        4.28831        0.648463        0.163735 
        4.30404        0.645596        0.162224 
        4.31974        0.638934        0.160735 
        4.33543        0.635766        0.159266 
        4.35116        0.631662        0.157812 
        4.36688        0.627165        0.156376 
        4.38255        0.625236        0.154964 
        4.39825        0.622382        0.153566 
        4.41398         0.61751        0.152183 
         4.4297        0.617044        0.150818 
        4.44541        0.610873         0.14947 
        4.46111        0.608769        0.148139 
        4.47683        0.606071        0.146824 
        4.49251        0.603186        0.145527 
        4.50819        0.600416        0.144246 
         4.5239        0.597471        0.142979 
        4.53962        0.591759        0.141726 
        4.55535        0.592952        0.140487 
        4.57106        0.588914        0.139264 
        4.58678         0.58711        0.138056 
         4.6025        0.584055        0.136862 
        4.61821        0.582116        0.135682 
        4.63391        0.581699        0.134518 
         4.6496        0.577431        0.133367 
        4.66532        0.575242        0.132229 
        4.68103        0.573427        0.131104 
        4.69673        0.569586        0.129993 
        4.71241        0.569929        0.128896 
        4.72811        0.567182        0.127811 
        4.74384        0.566213        0.126736 
        4.75955        0.564832        0.125675 
        4.77525        0.561475        0.124627 
        4.79096        0.561094         0.12359 
        4.80669        0.558395        0.122564 
         4.8224        0.556395         0.12155 
        4.83809        0.554804        0.120549 
        4.85379        0.554434        0.119559 
         4.8695        0.552542         0.11858 
        4.88521        0.551301        0.117611 
        4.90093        0.549615        0.116653 
        4.91663        0.548509        0.115707 
        4.93234        0.546315         0.11477 
        4.94807        0.546608        0.113843 
        4.96377        0.546516        0.112928 
        4.97943        0.544316        0.112025 
        4.99514        0.542627         0.11113 
        5.01086        0.541737        0.110243 
        5.02654        0.542076        0.109369 
        5.04227        0.539767        0.108501 
          5.058        0.540355        0.107643 
        5.07371        0.538028        0.106795 
        5.08942         0.53928        0.105956 
        5.10513        0.538118        0.105127 
        5.12084        0.535764        0.104305 
        5.13656        0.536855        0.103493 
        5.15225        0.536128        0.102691 
        5.16796        0.535619        0.101896 
        5.18369        0.534118        0.101108 
         5.1994        0.534651        0.100331 
        5.21509        0.534289        0.099562 
        5.23079        0.532528       0.0988004 
        5.24649        0.533756       0.0980473 
        5.26217        0.533818       0.0973026 
        5.27788        0.534045       0.0965646 
        5.29359        0.533588       0.0958341 
        5.30933        0.533253         0.09511 
        5.32504        0.532308       0.0943947 
        5.34073          0.5328       0.0936875 
        5.35646         0.53245       0.0929862 
        5.37218        0.533936       0.0922918 
        5.38789        0.531516       0.0916057 
        5.40357        0.531849       0.0909273 
        5.41929        0.533214       0.0902543 
        5.43502        0.532897       0.0895881 
         5.4507        0.533268       0.0889301 
        5.46639         0.53298       0.0882787 
        5.48212        0.533922       0.0876322 
        5.49786        0.534319       0.0869914 
        5.51353        0.533832       0.0863603 
        5.52921        0.533708       0.0857347 
        5.54495        0.534815       0.0851135 
        5.56066        0.535245       0.0844991 
        5.57637        0.535073       0.0838909 
        5.59207        0.536512       0.0832892 
        5.60778        0.536276       0.0826932 
        5.62346        0.535979       0.0821038 
        5.63916        0.536568       0.0815196 
        5.65487        0.536319       0.0809408 
         5.6706        0.536762       0.0803669 
        5.68633        0.538752       0.0797984 
        5.70203        0.538763       0.0792365 
        5.71773        0.539019       0.0786801 
        5.73344        0.540281       0.0781288 
        5.74916        0.539832       0.0775823 
        5.76486         0.54137       0.0770417 
        5.78054        0.541337       0.0765071 
        5.79626        0.540495        0.075976 
          5.812        0.541744       0.0754495 
         5.8277        0.542772       0.0749295 
        5.84339        0.543238       0.0744144 
        5.85911        0.544741       0.0739032 
        5.87484        0.544252       0.0733968 
        5.89053        0.546198       0.0728962 
        5.90623        0.546773          0.0724 
        5.92195        0.546298       0.0719076 
        5.93767        0.547993         0.07142 
        5.95336        0.548879       0.0709377 
        5.96905         0.54767       0.0704601 
        5.98476        0.547995       0.0699862 
        6.00048        0.549459       0.0695165 
        6.01617        0.549207       0.0690517 
        6.03185        0.550835       0.0685918 
        6.04756        0.551337       0.0681349 
        6.06331        0.553294       0.0676812 
        6.07903        0.553541       0.0672326 
        6.09473         0.55349       0.0667885 
        6.11044        0.552633       0.0663479 
        6.12616        0.555598       0.0659115 
        6.14186        0.554666       0.0654793 
        6.15755        0.556022       0.0650511 
        6.17326         0.55742       0.0646264 
        6.18898        0.557126       0.0642052 
        6.20467         0.55906       0.0637886 
        6.22036        0.559102       0.0633757 
         6.2361        0.558725       0.0629653 
         6.2518        0.559419       0.0625592 
        6.26748        0.560279       0.0621576 
        6.28319        0.560823       0.0617585 
        6.29893         0.56275       0.0613624 
        6.31463        0.562886       0.0609705 
        6.33033         0.56195       0.0605822 
        6.34604        0.563647        0.060197 
        6.36177        0.563583       0.0598147 
        6.37747        0.565778       0.0594365 
