# k  (h/Mpc)    Pcb(k)  (Mpc/h)^3    Pcb_linear(k) (Mpc/h)^3   ShotnoiseSubtracted = true
      0.0200456         21204.3         21574.8 
      0.0350414         16173.4         15684.1 
      0.0492313         11157.6         11395.8 
      0.0637834         8995.96         9473.21 
      0.0800726         7061.27         7518.66 
       0.096163         5668.32         5455.44 
       0.111083         4616.72          4351.4 
       0.126058         3816.69         3856.22 
       0.142273         3341.38         3267.07 
       0.158546         2742.88          2580.3 
        0.17375         2448.71          2173.9 
       0.188953         2318.62         1968.42 
       0.204907         1994.21         1741.65 
       0.220756         1802.49         1473.54 
        0.23588          1609.2         1281.85 
         0.2514         1456.22         1164.55 
       0.267535         1406.66         1053.72 
       0.283568         1251.93         929.238 
       0.299022         1194.47         827.903 
       0.314451         1243.16         756.647 
       0.330372          1095.6         694.138 
       0.346141         1006.86         630.036 
       0.361624         966.636         572.617 
       0.377134         926.181         526.898 
       0.392932         884.782         487.528 
       0.408854         847.722         449.407 
       0.424564          829.36         414.225 
       0.440253         767.775         384.034 
       0.455999         734.515         357.783 
       0.471626         748.362         333.658 
        0.48727         706.286          311.09 
       0.502856         675.323         290.816 
       0.518488         657.874         272.727 
       0.534347         629.821          255.91 
       0.550082         601.032         240.404 
       0.565732         593.505         226.218 
       0.581496          581.09         213.226 
       0.597222         567.927         201.311 
       0.612804         554.864         190.354 
       0.628434         532.071         180.142 
       0.644267         516.855         170.594 
       0.660051         511.059         161.794 
       0.675724         500.631         153.669 
       0.691403          487.57         146.094 
       0.707174         472.012         138.988 
       0.722871         466.147         132.382 
        0.73838          457.23         126.277 
       0.754018         444.833          120.51 
       0.769845         440.226         115.041 
        0.78569         431.143         109.907 
       0.801365         416.427         105.137 
       0.817031         413.563         100.654 
       0.832809         407.211         96.4062 
       0.848511         399.999         92.4234 
       0.864097         390.376          88.694 
       0.879701         388.886         85.1678 
       0.895507         374.363         81.7927 
       0.911279          368.71         78.6083 
        0.92691         365.271         75.6205 
       0.942635         361.391         72.7723 
       0.958396         349.225         70.0655 
       0.974128         345.571         67.5018 
       0.989692          334.54         65.0922 
        1.00528         332.797         62.7973 
        1.02113         327.293         60.5774 
        1.03692         321.955         58.4735 
        1.05264          316.98         56.4796 
        1.06832          311.79         54.5822 
        1.08405         308.737         52.7672 
        1.09979         303.083         51.0341 
        1.11537         295.336         49.3962 
        1.13105         291.893         47.8208 
        1.14679         287.697         46.3082 
        1.16256         285.892         44.8584 
        1.17828          281.15         43.4756 
        1.19395         274.044          42.156 
         1.2097         273.635         40.8847 
        1.22537         268.814         39.6721 
          1.241         262.592         38.5125 
        1.25666         260.532         37.3966 
        1.27241         256.661         36.3197 
        1.28819         251.485         35.2836 
        1.30392         251.051         34.2911 
        1.31957         243.661         33.3413 
        1.33529         240.772         32.4241 
        1.35108         239.658         31.5379 
        1.36674         232.986         30.6912 
         1.3824         231.678         29.8765 
        1.39811         229.537         29.0888 
        1.41389         223.105         28.3265 
        1.42964         220.782         27.5929 
        1.44531         218.866         26.8889 
        1.46101         215.103         26.2081 
        1.47667         212.558         25.5529 
        1.49229         209.557          24.922 
        1.50793         206.646         24.3117 
        1.52367         203.743         23.7179 
        1.53953         199.725         23.1401 
        1.55526         198.486         22.5861 
        1.57092          196.83         22.0527 
        1.58662         192.179         21.5352 
        1.60235         190.323         21.0334 
        1.61809         187.942         20.5473 
        1.63369         184.436          20.081 
        1.64941         182.238         19.6258 
        1.66519         180.018         19.1831 
        1.68085         176.987         18.7573 
        1.69652         175.359         18.3443 
        1.71228         172.428         17.9414 
        1.72806          170.77         17.5503 
        1.74368         168.647         17.1748 
        1.75933         167.438         16.8096 
        1.77505         164.901         16.4533 
        1.79081          161.31         16.1067 
         1.8065         160.025         15.7716 
        1.82218         156.755         15.4464 
        1.83797         155.881         15.1281 
        1.85367         153.622         14.8205 
        1.86928         151.491         14.5234 
        1.88497          150.37         14.2328 
        1.90073         148.669         13.9491 
        1.91647          145.76         13.6734 
        1.93218         144.042         13.4057 
        1.94787         142.086         13.1457 
        1.96363         141.548         12.8915 
        1.97935         139.693         12.6445 
        1.99499         137.634         12.4054 
        2.01064         134.847         12.1722 
         2.0264          134.17         11.9435 
        2.04216         132.205         11.7208 
        2.05781         130.027         11.5052 
        2.07353         128.885         11.2943 
        2.08928         127.266         11.0882 
        2.10499         126.074         10.8877 
        2.12065         124.647         10.6929 
        2.13633         123.123         10.5027 
        2.15211          121.06         10.3158 
        2.16785         119.769         10.1341 
        2.18349         118.273         9.95783 
        2.19916          117.03         9.78542 
        2.21489         115.739         9.61652 
        2.23063         113.894          9.4515 
         2.2463         112.584          9.2911 
        2.26194         111.642         9.13482 
        2.27765         110.069         8.98134 
        2.29341         109.034         8.83099 
        2.30914         107.884          8.6844 
        2.32486         105.914         8.54122 
        2.34061         105.049         8.40103 
        2.35635         104.086         8.26411 
        2.37203         102.266         8.13073 
        2.38768         101.576         8.00056 
        2.40339         100.169         7.87278 
        2.41914         98.8724         7.74749 
        2.43483         98.2529         7.62537 
         2.4505         96.8114         7.50609 
        2.46622         95.6252         7.38896 
        2.48195         94.8751         7.27432 
        2.49759         93.4435         7.16272 
        2.51328         92.7427         7.05318 
        2.52906         91.3628         6.94523 
        2.54479         90.2585         6.83995 
        2.56049         89.0663         6.73706 
        2.57618          88.116         6.63637 
        2.59189         87.4647         6.53759 
        2.60758         85.8993         6.44098 
        2.62325         85.6453         6.34644 
        2.63898         84.5027         6.25346 
        2.65468         83.5196         6.16255 
        2.67044         82.2411         6.07305 
        2.68618         81.4936         5.98554 
        2.70184         80.4942         5.90011 
        2.71755         79.8481         5.81613 
        2.73329         78.5936         5.73365 
        2.74897         78.0317         5.65305 
        2.76462         77.2935         5.57417 
        2.78034         75.8569         5.49647 
        2.79607          75.167         5.42017 
        2.81179         74.6372         5.34541 
        2.82749         73.8864         5.27215 
        2.84321         72.9461         5.20017 
        2.85893         72.0779         5.12956 
        2.87462         71.3623         5.06038 
        2.89033         70.6884         4.99242 
        2.90605         70.0882         4.92564 
        2.92176         69.2486         4.86012 
        2.93747         68.6785         4.79583 
        2.95318         67.5074         4.73269 
        2.96891         67.1153         4.67065 
        2.98456         66.2868            4.61 
        3.00023         65.6315         4.55034 
        3.01596          65.158         4.49155 
        3.03164         64.3401         4.43397 
        3.04738         64.0339         4.37722 
         3.0631            62.9         4.32149 
        3.07883         62.3967         4.26673 
        3.09456          61.654         4.21293 
        3.11026         61.1033         4.16013 
        3.12596         60.4739         4.10825 
        3.14163         59.7669         4.05737 
        3.15734         59.0777         4.00724 
        3.17308         58.6333         3.95783 
        3.18879         58.0185         3.90938 
        3.20447         57.6118         3.86182 
         3.2202         56.8303         3.81491 
         3.2359         56.1483         3.76886 
        3.25157         55.7955         3.72367 
        3.26729         55.1553         3.67909 
        3.28304          54.553         3.63515 
        3.29877         54.0738         3.59199 
        3.31446         53.6364         3.54963 
        3.33014         53.0258         3.50798 
        3.34585         52.4096         3.46694 
        3.36158         52.0689         3.42649 
        3.37727         51.3861         3.38681 
        3.39294          51.037          3.3478 
        3.40867         50.5279         3.30927 
        3.42439         49.9648         3.27136 
        3.44008         49.3909         3.23411 
        3.45578         49.0741         3.19742 
        3.47153         48.5191         3.16122 
        3.48724         48.0612         3.12565 
        3.50292         47.6367          3.0907 
        3.51859         47.0993          3.0563 
        3.53431          46.519         3.02232 
        3.55007         46.1787         2.98878 
        3.56577         45.7762         2.95587 
        3.58146         45.2584         2.92348 
        3.59719         44.8487         2.89149 
        3.61292          44.362            2.86 
        3.62859         44.1126         2.82909 
        3.64429         43.7091         2.79858 
        3.66003         43.3205         2.76842 
        3.67578         42.8953         2.73872 
        3.69146         42.4814         2.70957 
        3.70712         42.0609          2.6809 
        3.72284         41.7383         2.65253 
        3.73853         41.3015         2.62463 
        3.75422         40.9103         2.59711 
        3.76993          40.563         2.56997 
        3.78564         40.2356         2.54322 
        3.80137         39.8892         2.51681 
        3.81707         39.3505         2.49084 
        3.83279         39.1157          2.4652 
        3.84853         38.7417         2.43989 
        3.86424          38.293         2.41498 
        3.87992         38.0841         2.39046 
        3.89561         37.7439         2.36627 
        3.91134         37.4581         2.34237 
        3.92704         37.0695         2.31883 
        3.94273         36.7186         2.29563 
        3.95845         36.4409         2.27271 
        3.97418         36.0896          2.2501 
        3.98988          35.676         2.22782 
        4.00554         35.4677         2.20591 
        4.02125         35.2011         2.18423 
        4.03698         34.8108         2.16281 
        4.05268         34.5817         2.14172 
        4.06839         34.1216          2.1209 
         4.0841         33.9638         2.10036 
        4.09983         33.6388         2.08006 
        4.11555         33.3473         2.06004 
        4.13124          33.027         2.04034 
        4.14693         32.7442         2.02088 
        4.16266         32.4365         2.00163 
        4.17839         32.1849         1.98264 
        4.19408         31.9388         1.96394 
        4.20977         31.6731         1.94547 
        4.22551         31.3452          1.9272 
        4.24123         31.0992         1.90918 
        4.25691         30.8342         1.89144 
        4.27259         30.6576         1.87391 
        4.28831         30.2877         1.85658 
        4.30404         30.0661         1.83945 
        4.31974         29.7613         1.82257 
        4.33543         29.5786         1.80591 
        4.35116         29.3255         1.78942 
        4.36688         29.0447         1.77314 
        4.38255         28.8995         1.75713 
        4.39825         28.5603         1.74128 
        4.41398         28.3396         1.72559 
         4.4297         28.1448         1.71011 
        4.44541         27.9743         1.69483 
        4.46111         27.6511         1.67974 
        4.47683         27.4342         1.66483 
        4.49251         27.2468         1.65012 
        4.50819         27.0474          1.6356 
         4.5239          26.758         1.62124 
        4.53962         26.6133         1.60702 
        4.55535         26.3398         1.59297 
        4.57106         26.1383         1.57911 
        4.58678         25.9521         1.56541 
         4.6025         25.6984         1.55187 
        4.61821         25.5146         1.53849 
        4.63391         25.1955         1.52529 
         4.6496         25.0854         1.51225 
        4.66532         24.9216         1.49934 
        4.68103         24.6201         1.48658 
        4.69673         24.4799         1.47399 
        4.71241         24.3022         1.46155 
        4.72811          24.068         1.44924 
        4.74384         23.8647         1.43705 
        4.75955         23.7241         1.42502 
        4.77525          23.542         1.41314 
        4.79096         23.3097         1.40138 
        4.80669         23.1739         1.38974 
         4.8224         22.9675         1.37825 
        4.83809         22.7387         1.36691 
        4.85379         22.5713         1.35568 
         4.8695         22.4374         1.34457 
        4.88521         22.2189         1.33359 
        4.90093         22.0787         1.32273 
        4.91663         21.8991           1.312 
        4.93234          21.744         1.30138 
        4.94807         21.5699         1.29087 
        4.96377         21.4608         1.28049 
        4.97943         21.1835         1.27025 
        4.99514         21.0635          1.2601 
        5.01086           20.92         1.25004 
        5.02654         20.7666         1.24013 
        5.04227         20.6113         1.23029 
          5.058         20.4184         1.22056 
        5.07371         20.2503         1.21094 
        5.08942         20.1015         1.20144 
        5.10513         19.9838         1.19203 
        5.12084         19.8464         1.18272 
        5.13656          19.625          1.1735 
        5.15225         19.4935         1.16441 
        5.16796         19.3584         1.15539 
        5.18369         19.2181         1.14646 
         5.1994         19.1046         1.13765 
        5.21509         18.9388         1.12893 
        5.23079         18.8185         1.12029 
        5.24649         18.6621         1.11175 
        5.26217         18.5517         1.10331 
        5.27788         18.3752         1.09494 
        5.29359         18.2447         1.08666 
        5.30933         18.1093         1.07845 
        5.32504         17.9579         1.07034 
        5.34073         17.8603         1.06232 
        5.35646          17.719         1.05437 
        5.37218         17.5555         1.04649 
        5.38789         17.4258         1.03871 
        5.40357         17.3077         1.03102 
        5.41929         17.1937         1.02339 
        5.43502         17.0321         1.01584 
         5.4507         16.9369         1.00837 
        5.46639         16.8116         1.00099 
        5.48212         16.7093        0.993658 
        5.49786         16.5822        0.986392 
        5.51353         16.4784        0.979235 
        5.52921         16.3446        0.972142 
        5.54495         16.2321        0.965098 
        5.56066          16.091        0.958132 
        5.57637         15.9757        0.951236 
        5.59207         15.8718        0.944413 
        5.60778         15.7592        0.937654 
        5.62346         15.6603        0.930971 
        5.63916         15.5274        0.924347 
        5.65487         15.4254        0.917784 
         5.6706         15.2972        0.911277 
        5.68633         15.2191         0.90483 
        5.70203         15.1064        0.898459 
        5.71773         14.9906        0.892151 
        5.73344         14.8742        0.885899 
        5.74916         14.7868        0.879702 
        5.76486         14.6871        0.873572 
        5.78054         14.5948         0.86751 
        5.79626         14.4531        0.861489 
          5.812         14.3764        0.855519 
         5.8277         14.2695        0.849623 
        5.84339         14.1678        0.843782 
        5.85911         14.0616        0.837985 
        5.87484         13.9726        0.832243 
        5.89053         13.8612        0.826567 
        5.90623         13.7835        0.820941 
        5.92195         13.6537        0.815357 
        5.93767         13.5647        0.809828 
        5.95336         13.5073         0.80436 
        5.96905         13.4058        0.798944 
        5.98476         13.3388        0.793571 
        6.00048         13.2259        0.788245 
        6.01617         13.1567        0.782975 
        6.03185          13.033        0.777759 
        6.04756         12.9438        0.772579 
        6.06331         12.8766        0.767434 
        6.07903         12.7598        0.762348 
        6.09473         12.6921        0.757311 
        6.11044         12.5871        0.752316 
        6.12616         12.5101        0.747367 
        6.14186         12.4164        0.742467 
        6.15755         12.3486        0.737612 
        6.17326         12.2621        0.732796 
        6.18898         12.1736         0.72802 
        6.20467         12.0866        0.723296 
        6.22036         12.0096        0.718614 
         6.2361         11.9183        0.713961 
         6.2518         11.8632        0.709357 
        6.26748         11.7884        0.704803 
        6.28319         11.7159        0.700276 
        6.29893         11.6264        0.695786 
        6.31463         11.5492        0.691342 
        6.33033         11.4753        0.686939 
        6.34604         11.3752        0.682571 
        6.36177          11.332        0.678236 
        6.37747         11.2589        0.673948 
