# k  (h/Mpc)    Pcb(k)  (Mpc/h)^3    Pcb_linear(k) (Mpc/h)^3   ShotnoiseSubtracted = true
      0.0200456         15447.8         15773.7 
      0.0350414         11043.3           11467 
      0.0492313         8215.01         8331.68 
      0.0637834         7064.03         6926.05 
      0.0800726         5582.92         5497.04 
       0.096163         3885.12         3988.58 
       0.111083         3102.44         3181.39 
       0.126058         2861.22         2819.36 
       0.142273            2475         2388.62 
       0.158546         2112.67         1886.51 
        0.17375         1689.67         1589.38 
       0.188953         1642.64         1439.15 
       0.204907         1544.18         1273.35 
       0.220756         1325.34         1077.33 
        0.23588         1174.05         937.187 
         0.2514         1021.63         851.425 
       0.267535         1009.76         770.394 
       0.283568         915.651         679.384 
       0.299022         860.135         605.296 
       0.314451         816.567         553.199 
       0.330372         751.889         507.498 
       0.346141         696.027         460.632 
       0.361624         669.372         418.651 
       0.377134          621.42         385.225 
       0.392932         596.956         356.441 
       0.408854         576.923          328.57 
       0.424564         541.493         302.848 
       0.440253         530.582         280.775 
       0.455999         501.541         261.582 
       0.471626         475.633         243.944 
        0.48727         459.089         227.444 
       0.502856          445.94         212.621 
       0.518488         441.504         199.396 
       0.534347         412.551         187.101 
       0.550082         394.524         175.764 
       0.565732         393.434         165.393 
       0.581496         370.219         155.894 
       0.597222         364.597         147.182 
       0.612804         354.025         139.172 
       0.628434         340.841         131.705 
       0.644267         331.415         124.724 
       0.660051         323.646         118.291 
       0.675724         319.208          112.35 
       0.691403         309.477         106.812 
       0.707174         298.505         101.617 
       0.722871         294.817         96.7873 
        0.73838         290.447         92.3234 
       0.754018         282.451         88.1073 
       0.769845         273.353         84.1087 
        0.78569         273.058         80.3549 
       0.801365         263.585         76.8676 
       0.817031          255.51         73.5904 
       0.832809         253.577         70.4844 
       0.848511         246.604         67.5725 
       0.864097          243.15         64.8459 
       0.879701         239.355         62.2679 
       0.895507         233.761         59.8002 
       0.911279         226.276          57.472 
        0.92691         226.256         55.2877 
       0.942635         220.526         53.2053 
       0.958396         218.208         51.2262 
       0.974128         213.786         49.3519 
       0.989692         209.157         47.5902 
        1.00528         206.587         45.9123 
        1.02113         204.722         44.2893 
        1.03692         199.521         42.7511 
        1.05264         195.674         41.2934 
        1.06832         192.277         39.9061 
        1.08405         189.017         38.5792 
        1.09979         187.102          37.312 
        1.11537         182.906         36.1145 
        1.13105         179.596         34.9627 
        1.14679         179.765         33.8568 
        1.16256         176.354         32.7968 
        1.17828         172.815         31.7859 
        1.19395         170.229         30.8211 
         1.2097         169.613         29.8916 
        1.22537         165.782          29.005 
          1.241         164.156         28.1572 
        1.25666         161.063         27.3413 
        1.27241         158.376         26.5541 
        1.28819         156.686         25.7966 
        1.30392         153.951         25.0709 
        1.31957         153.381         24.3765 
        1.33529         149.147         23.7059 
        1.35108         148.087          23.058 
        1.36674         146.762          22.439 
         1.3824         144.093         21.8433 
        1.39811         143.695         21.2674 
        1.41389         140.685         20.7101 
        1.42964         137.929         20.1737 
        1.44531         135.873          19.659 
        1.46101         134.425         19.1613 
        1.47667         132.363         18.6822 
        1.49229         130.716         18.2209 
        1.50793         129.689         17.7747 
        1.52367         128.222         17.3406 
        1.53953         125.473         16.9182 
        1.55526         124.227         16.5132 
        1.57092          122.73         16.1231 
        1.58662         120.825         15.7448 
        1.60235         119.908         15.3779 
        1.61809         117.811         15.0225 
        1.63369         116.565         14.6816 
        1.64941         115.411         14.3488 
        1.66519         113.365         14.0252 
        1.68085          112.64         13.7138 
        1.69652         109.934         13.4119 
        1.71228         109.861         13.1173 
        1.72806         108.427         12.8314 
        1.74368         107.187         12.5568 
        1.75933         105.616         12.2898 
        1.77505         104.369         12.0293 
        1.79081         103.138         11.7759 
         1.8065         101.793         11.5309 
        1.82218         100.012         11.2931 
        1.83797         98.6036         11.0604 
        1.85367         97.7974         10.8356 
        1.86928         96.8174         10.6183 
        1.88497          94.957         10.4059 
        1.90073         94.5743         10.1985 
        1.91647         93.1596         9.99689 
        1.93218         92.0594          9.8012 
        1.94787         91.1723         9.61105 
        1.96363         89.7882          9.4252 
        1.97935         88.5545         9.24465 
        1.99499         87.8588         9.06985 
        2.01064          86.858         8.89933 
         2.0264         85.3448         8.73213 
        2.04216         84.6066         8.56931 
        2.05781         83.5032         8.41168 
        2.07353         82.0877         8.25746 
        2.08928         81.1493         8.10677 
        2.10499         80.1082         7.96025 
        2.12065         79.8171         7.81779 
        2.13633         78.7962          7.6787 
        2.15211         77.8129          7.5421 
        2.16785         76.6095         7.40922 
        2.18349         75.6743         7.28036 
        2.19916         74.9827         7.15431 
        2.21489         74.0202         7.03083 
        2.23063         73.1559         6.91018 
         2.2463         72.3436          6.7929 
        2.26194         72.0737         6.67865 
        2.27765         70.8578         6.56644 
        2.29341         69.9248         6.45651 
        2.30914         68.9879         6.34933 
        2.32486         68.2359         6.24465 
        2.34061         67.5154         6.14216 
        2.35635         66.7362         6.04206 
        2.37203          65.734         5.94453 
        2.38768         65.0673         5.84937 
        2.40339         64.3852         5.75594 
        2.41914         63.7303         5.66434 
        2.43483         63.4151         5.57506 
         2.4505         62.4588         5.48785 
        2.46622          61.754         5.40221 
        2.48195         60.9864          5.3184 
        2.49759         60.1611         5.23681 
        2.51328         59.6006         5.15672 
        2.52906         59.1245          5.0778 
        2.54479         58.3781         5.00082 
        2.56049         57.5408         4.92559 
        2.57618          57.105         4.85198 
        2.59189         56.3106         4.77976 
        2.60758         55.9577         4.70913 
        2.62325         55.2622            4.64 
        2.63898         54.6883         4.57203 
        2.65468         54.2428         4.50556 
        2.67044         53.3871         4.44013 
        2.68618         53.0633         4.37615 
        2.70184         52.3635         4.31368 
        2.71755         52.0984         4.25228 
        2.73329         51.1447         4.19198 
        2.74897         50.7332         4.13305 
        2.76462          50.158         4.07538 
        2.78034         49.7405         4.01858 
        2.79607         49.0249          3.9628 
        2.81179         48.5272         3.90814 
        2.82749          47.969         3.85457 
        2.84321         47.5538         3.80195 
        2.85893         46.9848         3.75032 
        2.87462         46.4143         3.69974 
        2.89033         45.9317         3.65005 
        2.90605         45.4944         3.60123 
        2.92176         45.0353         3.55333 
        2.93747         44.6006         3.50632 
        2.95318         44.0048         3.46016 
        2.96891         43.4423          3.4148 
        2.98456         43.2841         3.37046 
        3.00023          42.695         3.32684 
        3.01596         42.4121         3.28386 
        3.03164         41.8033         3.24176 
        3.04738         41.5661         3.20027 
         3.0631         41.0412         3.15953 
        3.07883         40.6503         3.11949 
        3.09456         40.1744         3.08015 
        3.11026         39.6827         3.04155 
        3.12596         39.4903         3.00362 
        3.14163         38.9436         2.96642 
        3.15734         38.3334         2.92977 
        3.17308         38.3146         2.89364 
        3.18879         38.0015         2.85823 
        3.20447         37.4245         2.82346 
         3.2202           36.99         2.78915 
         3.2359         36.6473         2.75548 
        3.25157         36.3156         2.72245 
        3.26729         35.9297         2.68986 
        3.28304         35.4783         2.65773 
        3.29877         35.2491         2.62618 
        3.31446          34.968          2.5952 
        3.33014         34.5354         2.56475 
        3.34585         34.2771         2.53474 
        3.36158         33.9094         2.50517 
        3.37727         33.5404         2.47616 
        3.39294         33.2374         2.44764 
        3.40867         32.9154         2.41947 
        3.42439          32.599         2.39175 
        3.44008         32.4738         2.36452 
        3.45578         31.9223          2.3377 
        3.47153         31.6224         2.31123 
        3.48724         31.3815         2.28522 
        3.50292         31.0935         2.25967 
        3.51859         30.7932         2.23452 
        3.53431         30.5267         2.20968 
        3.55007         30.2589         2.18515 
        3.56577         29.9825          2.1611 
        3.58146         29.7034         2.13741 
        3.59719         29.3786         2.11403 
        3.61292           29.17           2.091 
        3.62859         28.8153          2.0684 
        3.64429          28.485         2.04609 
        3.66003         28.2443         2.02405 
        3.67578         28.0161         2.00233 
        3.69146         27.8146         1.98102 
        3.70712         27.5172         1.96006 
        3.72284         27.3891         1.93932 
        3.73853         27.0534         1.91892 
        3.75422         26.7847          1.8988 
        3.76993         26.6286         1.87895 
        3.78564         26.3294          1.8594 
        3.80137         26.1116         1.84009 
        3.81707         25.9003          1.8211 
        3.83279         25.6872         1.80236 
        3.84853         25.3465         1.78385 
        3.86424         25.1103         1.76564 
        3.87992         24.9197         1.74771 
        3.89561         24.6737         1.73003 
        3.91134         24.4954         1.71255 
        3.92704         24.2743         1.69534 
        3.94273         24.0476         1.67838 
        3.95845         23.7414         1.66162 
        3.97418         23.6481         1.64509 
        3.98988         23.3769          1.6288 
        4.00554         23.1591         1.61278 
        4.02125         23.0647         1.59693 
        4.03698         22.7607         1.58127 
        4.05268         22.6022         1.56585 
        4.06839         22.3663         1.55063 
         4.0841         22.2297         1.53561 
        4.09983         22.0418         1.52077 
        4.11555         21.8488         1.50614 
        4.13124         21.5406         1.49173 
        4.14693         21.3779         1.47751 
        4.16266         21.1967         1.46343 
        4.17839          21.026         1.44955 
        4.19408         20.8318         1.43587 
        4.20977         20.7117         1.42237 
        4.22551         20.4881         1.40901 
        4.24123         20.3243         1.39584 
        4.25691         20.1574         1.38287 
        4.27259         19.9735         1.37006 
        4.28831         19.8018         1.35738 
        4.30404         19.6002         1.34486 
        4.31974          19.501         1.33252 
        4.33543         19.3257         1.32034 
        4.35116         19.1907         1.30828 
        4.36688         18.9861         1.29638 
        4.38255         18.8643         1.28467 
        4.39825         18.7377         1.27308 
        4.41398          18.518         1.26161 
         4.4297         18.3721          1.2503 
        4.44541          18.256         1.23912 
        4.46111         18.0788         1.22809 
        4.47683         17.9209         1.21719 
        4.49251         17.8049         1.20644 
        4.50819         17.6386         1.19582 
         4.5239         17.5136         1.18532 
        4.53962         17.3279         1.17493 
        4.55535         17.1992         1.16465 
        4.57106         17.0698         1.15452 
        4.58678         16.9342          1.1445 
         4.6025         16.7881          1.1346 
        4.61821         16.6758         1.12482 
        4.63391         16.5118         1.11517 
         4.6496         16.3839         1.10563 
        4.66532         16.2411         1.09619 
        4.68103          16.087         1.08687 
        4.69673         16.0098         1.07766 
        4.71241         15.9026         1.06857 
        4.72811         15.7174         1.05957 
        4.74384         15.6238         1.05066 
        4.75955         15.5007         1.04186 
        4.77525            15.4         1.03317 
        4.79096          15.251         1.02457 
        4.80669         15.1474         1.01607 
         4.8224         15.0023         1.00767 
        4.83809         14.8777        0.999371 
        4.85379         14.7538        0.991163 
         4.8695          14.697         0.98304 
        4.88521         14.5728        0.975012 
        4.90093         14.4452        0.967072 
        4.91663         14.3464        0.959228 
        4.93234         14.2372        0.951462 
        4.94807         14.1143        0.943777 
        4.96377         13.9845        0.936191 
        4.97943         13.8913        0.928705 
        4.99514          13.764        0.921281 
        5.01086         13.6857        0.913932 
        5.02654         13.5553        0.906682 
        5.04227          13.484         0.89949 
          5.058         13.3557        0.892372 
        5.07371         13.2755        0.885345 
        5.08942         13.1536        0.878393 
        5.10513         13.0735        0.871514 
        5.12084         12.9583        0.864706 
        5.13656         12.8744        0.857972 
        5.15225         12.7455        0.851321 
        5.16796         12.6815         0.84473 
        5.18369         12.5646        0.838202 
         5.1994         12.4966        0.831755 
        5.21509         12.3854        0.825382 
        5.23079         12.2931        0.819068 
        5.24649         12.2025        0.812825 
        5.26217         12.1038        0.806651 
        5.27788         12.0039        0.800533 
        5.29359         11.9476        0.794477 
        5.30933         11.8375        0.788475 
        5.32504          11.783        0.782545 
        5.34073         11.6669        0.776682 
        5.35646         11.6089        0.770868 
        5.37218         11.4994        0.765112 
        5.38789         11.4193        0.759423 
        5.40357         11.3373          0.7538 
        5.41929         11.2517         0.74822 
        5.43502         11.1903        0.742697 
         5.4507         11.0864        0.737242 
        5.46639         11.0155        0.731842 
        5.48212         10.9671        0.726483 
        5.49786         10.8616        0.721171 
        5.51353         10.7931        0.715938 
        5.52921         10.7065        0.710752 
        5.54495         10.6224        0.705602 
        5.56066         10.5336        0.700509 
        5.57637         10.4607        0.695467 
        5.59207         10.3938        0.690479 
        5.60778         10.3259        0.685537 
        5.62346          10.266        0.680651 
        5.63916          10.177        0.675808 
        5.65487         10.1101         0.67101 
         5.6706         10.0502        0.666252 
        5.68633         9.96761        0.661539 
        5.70203         9.90972        0.656881 
        5.71773         9.84078        0.652269 
        5.73344          9.7605        0.647698 
        5.74916         9.69703        0.643167 
        5.76486         9.61249        0.638686 
        5.78054         9.56053        0.634254 
        5.79626         9.49735        0.629851 
          5.812         9.43351        0.625487 
         5.8277         9.35595        0.621176 
        5.84339         9.31373        0.616905 
        5.85911         9.23847        0.612667 
        5.87484         9.15962        0.608469 
        5.89053         9.10199        0.604319 
        5.90623         9.03295        0.600206 
        5.92195          8.9885        0.596123 
        5.93767         8.92163        0.592081 
        5.95336           8.867        0.588083 
        5.96905         8.81794        0.584124 
        5.98476         8.75398        0.580195 
        6.00048         8.69395        0.576301 
        6.01617          8.6439        0.572448 
        6.03185         8.57314        0.568635 
        6.04756         8.52151        0.564847 
        6.06331         8.45794        0.561086 
        6.07903         8.40997        0.557367 
        6.09473         8.35919        0.553685 
        6.11044         8.30205        0.550033 
        6.12616         8.24104        0.546415 
        6.14186         8.17436        0.542832 
        6.15755         8.12142        0.539282 
        6.17326         8.08409        0.535761 
        6.18898         8.01357         0.53227 
        6.20467         7.96052        0.528816 
        6.22036         7.91701        0.525393 
         6.2361         7.85869        0.521991 
         6.2518         7.80241        0.518624 
        6.26748         7.75844        0.515295 
        6.28319          7.7182        0.511986 
        6.29893         7.65922        0.508703 
        6.31463         7.60708        0.505454 
        6.33033         7.55942        0.502234 
        6.34604          7.5192        0.499041 
        6.36177         7.46249        0.495872 
        6.37747         7.41822        0.492736 
