# k  (h/Mpc)    Pcb(k)  (Mpc/h)^3    Pcb_linear(k) (Mpc/h)^3   ShotnoiseSubtracted = true
      0.0200456         6852.39         6946.79 
      0.0350414          5163.2         5050.08 
      0.0492313         3656.28         3669.29 
      0.0637834         2969.69         3050.25 
      0.0800726          2344.4         2420.91 
       0.096163         1808.66         1756.58 
       0.111083         1464.68         1401.09 
       0.126058          1232.7         1241.65 
       0.142273         1053.35         1051.95 
       0.158546         860.812         830.822 
        0.17375         745.544         699.967 
       0.188953         681.249         633.805 
       0.204907         579.868         560.788 
       0.220756         516.876          474.46 
        0.23588         456.226         412.739 
         0.2514         409.348          374.97 
       0.267535         391.316         339.283 
       0.283568          341.11         299.202 
       0.299022         320.993         266.574 
       0.314451         313.726          243.63 
       0.330372         272.137         223.503 
       0.346141         251.604         202.863 
       0.361624           237.3         184.375 
       0.377134         217.808         169.654 
       0.392932         212.105         156.978 
       0.408854         199.886         144.703 
       0.424564         190.987         133.375 
       0.440253         172.724         123.654 
       0.455999         162.201         115.201 
       0.471626         158.007         107.433 
        0.48727         152.169         100.167 
       0.502856         139.063         93.6389 
       0.518488         136.868         87.8144 
       0.534347          128.18         82.3996 
       0.550082         124.993         77.4069 
       0.565732         122.237         72.8393 
       0.581496         112.693         68.6559 
       0.597222          110.01         64.8193 
       0.612804         106.326         61.2915 
       0.628434         103.534         58.0032 
       0.644267         98.1061         54.9289 
       0.660051         94.9621         52.0956 
       0.675724          93.079         49.4792 
       0.691403         91.0506         47.0404 
       0.707174         87.8583         44.7522 
       0.722871         85.9858         42.6253 
        0.73838         83.2996         40.6594 
       0.754018         78.5398         38.8027 
       0.769845         77.9692         37.0417 
        0.78569         75.5279         35.3885 
       0.801365         73.3141         33.8527 
       0.817031         70.8041         32.4094 
       0.832809         69.5625         31.0415 
       0.848511         67.9003         29.7591 
       0.864097         66.6407         28.5583 
       0.879701         65.2888         27.4229 
       0.895507         62.8642         26.3361 
       0.911279         61.9067         25.3108 
        0.92691         60.1381         24.3488 
       0.942635         58.8988         23.4317 
       0.958396          58.666         22.5601 
       0.974128         57.1863         21.7347 
       0.989692         55.6767         20.9588 
        1.00528         54.6955         20.2199 
        1.02113         53.4884         19.5051 
        1.03692          53.184         18.8277 
        1.05264         51.9669         18.1857 
        1.06832         50.6656         17.5747 
        1.08405         49.7722         16.9903 
        1.09979         49.5196         16.4323 
        1.11537         48.1189         15.9049 
        1.13105          46.974         15.3976 
        1.14679         46.4596         14.9106 
        1.16256         45.7837         14.4438 
        1.17828         45.2258         13.9986 
        1.19395         44.0566         13.5737 
         1.2097         44.0004         13.1643 
        1.22537         42.9654         12.7739 
          1.241         42.3311         12.4005 
        1.25666         41.4647         12.0412 
        1.27241         41.2862         11.6945 
        1.28819         40.1834         11.3609 
        1.30392         39.8921         11.0413 
        1.31957          39.489         10.7355 
        1.33529         38.7581         10.4401 
        1.35108         38.0745         10.1548 
        1.36674         37.6644         9.88217 
         1.3824         37.0636         9.61984 
        1.39811         36.3833          9.3662 
        1.41389         35.9563         9.12075 
        1.42964         35.7031         8.88455 
        1.44531         34.9119         8.65788 
        1.46101         34.7285         8.43866 
        1.47667         34.2893          8.2277 
        1.49229         33.6668         8.02454 
        1.50793         33.3786         7.82803 
        1.52367         32.8111         7.63685 
        1.53953         32.6686         7.45079 
        1.55526         32.1212         7.27243 
        1.57092         31.7504         7.10066 
        1.58662         31.2728         6.93404 
        1.60235         30.8953         6.77246 
        1.61809         30.5761         6.61596 
        1.63369         30.2752          6.4658 
        1.64941          29.868         6.31924 
        1.66519         29.4065         6.17671 
        1.68085          29.003          6.0396 
        1.69652         28.7538         5.90661 
        1.71228         28.5712         5.77688 
        1.72806         28.0865         5.65096 
        1.74368         27.7453         5.53006 
        1.75933         27.5534         5.41246 
        1.77505         27.3202         5.29774 
        1.79081         26.9639         5.18614 
         1.8065         26.5997         5.07825 
        1.82218         26.3055         4.97352 
        1.83797         26.1562         4.87104 
        1.85367         25.8011         4.77201 
        1.86928         25.7707         4.67634 
        1.88497         25.2507         4.58277 
        1.90073         25.0485         4.49143 
        1.91647         24.7788         4.40265 
        1.93218         24.7826         4.31647 
        1.94787         24.4094         4.23273 
        1.96363         24.1059         4.15088 
        1.97935         23.8029         4.07136 
        1.99499         23.6599         3.99438 
        2.01064         23.3166         3.91929 
         2.0264         23.1403         3.84565 
        2.04216         23.0226         3.77394 
        2.05781         22.7299         3.70452 
        2.07353         22.5337          3.6366 
        2.08928          22.148         3.57024 
        2.10499         22.0134         3.50571 
        2.12065         21.7996         3.44297 
        2.13633         21.6605         3.38172 
        2.15211         21.3062         3.32156 
        2.16785         21.2943         3.26303 
        2.18349         21.0039         3.20629 
        2.19916         20.8105         3.15077 
        2.21489         20.5633         3.09639 
        2.23063         20.4849         3.04326 
         2.2463         20.2232         2.99161 
        2.26194         20.0509         2.94129 
        2.27765         19.7568         2.89187 
        2.29341         19.6208         2.84346 
        2.30914         19.4226         2.79626 
        2.32486         19.3338         2.75016 
        2.34061         19.1465         2.70502 
        2.35635          18.865         2.66093 
        2.37203         18.7661         2.61799 
        2.38768         18.5901         2.57607 
        2.40339         18.5093         2.53493 
        2.41914         18.2899         2.49459 
        2.43483         18.1059         2.45527 
         2.4505         17.8734         2.41686 
        2.46622          17.807         2.37915 
        2.48195         17.5994         2.34223 
        2.49759         17.3515          2.3063 
        2.51328         17.3192         2.27103 
        2.52906         17.1763         2.23627 
        2.54479         16.9799         2.20237 
        2.56049         16.8351         2.16924 
        2.57618          16.777         2.13682 
        2.59189           16.54         2.10502 
        2.60758          16.343         2.07391 
        2.62325         16.2451         2.04347 
        2.63898         16.1667         2.01353 
        2.65468         15.9391         1.98426 
        2.67044         15.8115         1.95544 
        2.68618         15.7236         1.92727 
        2.70184         15.5527         1.89976 
        2.71755         15.4079         1.87272 
        2.73329         15.2984         1.84616 
        2.74897         15.1599         1.82021 
        2.76462           15.05         1.79481 
        2.78034         14.8797         1.76979 
        2.79607         14.7896         1.74522 
        2.81179         14.6722         1.72115 
        2.82749         14.5313         1.69756 
        2.84321         14.4205         1.67439 
        2.85893          14.234         1.65165 
        2.87462          14.203         1.62938 
        2.89033         14.0349         1.60749 
        2.90605          13.941         1.58599 
        2.92176         13.8144         1.56489 
        2.93747         13.6894         1.54419 
        2.95318         13.5865         1.52386 
        2.96891         13.4736         1.50389 
        2.98456         13.3607         1.48436 
        3.00023         13.2506         1.46515 
        3.01596         13.1706         1.44622 
        3.03164         13.0519         1.42768 
        3.04738         12.9458         1.40941 
         3.0631         12.7967         1.39146 
        3.07883         12.7227         1.37383 
        3.09456         12.6179         1.35651 
        3.11026         12.5399         1.33951 
        3.12596         12.4398          1.3228 
        3.14163         12.3171         1.30642 
        3.15734         12.2117         1.29028 
        3.17308         12.1571         1.27437 
        3.18879         12.0143         1.25877 
        3.20447         11.9649         1.24346 
         3.2202         11.8356         1.22835 
         3.2359         11.7212         1.21352 
        3.25157         11.6856         1.19897 
        3.26729         11.5399         1.18462 
        3.28304         11.4333         1.17047 
        3.29877         11.4024         1.15657 
        3.31446         11.2835         1.14293 
        3.33014         11.2075         1.12952 
        3.34585         11.0815         1.11631 
        3.36158          11.016         1.10328 
        3.37727         10.9724         1.09051 
        3.39294          10.862         1.07795 
        3.40867         10.7611         1.06554 
        3.42439         10.6644         1.05333 
        3.44008          10.616         1.04134 
        3.45578         10.5002         1.02953 
        3.47153         10.4498         1.01787 
        3.48724         10.3651         1.00642 
        3.50292          10.276        0.995164 
        3.51859          10.196        0.984089 
        3.53431         10.0819        0.973148 
        3.55007         10.0225        0.962346 
        3.56577          9.9262        0.951751 
        3.58146         9.84204         0.94132 
        3.59719         9.76756        0.931022 
        3.61292         9.74011         0.92088 
        3.62859          9.6623        0.910928 
        3.64429         9.55811        0.901104 
        3.66003         9.50951        0.891395 
        3.67578         9.41267        0.881833 
        3.69146         9.37918        0.872446 
        3.70712          9.2823        0.863214 
        3.72284         9.20959         0.85408 
        3.73853         9.15284        0.845095 
        3.75422         9.08896        0.836235 
        3.76993         8.98894        0.827495 
        3.78564          8.9422        0.818884 
        3.80137         8.87599         0.81038 
        3.81707         8.79017        0.802016 
        3.83279         8.71038        0.793762 
        3.84853         8.66799        0.785611 
        3.86424         8.60865        0.777591 
        3.87992         8.56249        0.769695 
        3.89561         8.47882        0.761907 
        3.91134         8.40421        0.754212 
        3.92704         8.34419        0.746631 
        3.94273         8.27954        0.739163 
        3.95845         8.23015        0.731782 
        3.97418         8.16119        0.724501 
        3.98988         8.11411        0.717329 
        4.00554         8.04625        0.710274 
        4.02125          8.0048        0.703293 
        4.03698          7.9241        0.696395 
        4.05268         7.85768        0.689605 
        4.06839         7.77946          0.6829 
         4.0841         7.73939        0.676287 
        4.09983         7.68351        0.669752 
        4.11555         7.60439        0.663306 
        4.13124         7.55991        0.656963 
        4.14693         7.49946        0.650697 
        4.16266         7.44906        0.644498 
        4.17839         7.40208        0.638384 
        4.19408         7.35383        0.632362 
        4.20977         7.26803        0.626416 
        4.22551         7.24245        0.620532 
        4.24123         7.19483         0.61473 
        4.25691         7.13814        0.609017 
        4.27259         7.05325        0.603376 
        4.28831         7.02205        0.597794 
        4.30404         6.97038        0.592278 
        4.31974           6.916        0.586843 
        4.33543         6.85634        0.581479 
        4.35116         6.80602         0.57617 
        4.36688         6.76936        0.570929 
        4.38255         6.71762        0.565772 
        4.39825         6.66018        0.560669 
        4.41398         6.60564        0.555617 
         4.4297          6.5688        0.550634 
        4.44541         6.51739        0.545712 
        4.46111         6.49268        0.540854 
        4.47683         6.43592        0.536052 
        4.49251         6.39525        0.531318 
        4.50819         6.35037        0.526642 
         4.5239         6.28086        0.522016 
        4.53962          6.2516         0.51744 
        4.55535         6.20278        0.512916 
        4.57106         6.15894        0.508453 
        4.58678         6.11509        0.504042 
         4.6025         6.07157        0.499682 
        4.61821         6.04155        0.495374 
        4.63391         5.98244        0.491123 
         4.6496         5.94539        0.486923 
        4.66532         5.90256        0.482766 
        4.68103         5.86595        0.478659 
        4.69673         5.82933        0.474604 
        4.71241         5.78605          0.4706 
        4.72811         5.73648        0.466636 
        4.74384         5.71981        0.462712 
        4.75955         5.66194        0.458839 
        4.77525         5.62402        0.455012 
        4.79096         5.58938        0.451225 
        4.80669         5.53839        0.447479 
         4.8224         5.51177        0.443779 
        4.83809         5.47016        0.440125 
        4.85379         5.42013         0.43651 
         4.8695         5.39973        0.432933 
        4.88521         5.36704        0.429397 
        4.90093         5.31763        0.425901 
        4.91663         5.27805        0.422446 
        4.93234          5.2559        0.419026 
        4.94807          5.2143        0.415641 
        4.96377         5.17969        0.412301 
        4.97943          5.1462        0.409004 
        4.99514         5.10105        0.405734 
        5.01086         5.07873        0.402498 
        5.02654         5.04914        0.399305 
        5.04227         5.01133        0.396137 
          5.058         4.96615        0.393003 
        5.07371         4.94013        0.389908 
        5.08942          4.9111        0.386846 
        5.10513         4.87842        0.383817 
        5.12084         4.84722        0.380819 
        5.13656          4.8023        0.377853 
        5.15225         4.77545        0.374924 
        5.16796         4.74962        0.372021 
        5.18369         4.70662        0.369146 
         5.1994         4.67413        0.366307 
        5.21509          4.6556          0.3635 
        5.23079         4.62399        0.360719 
        5.24649         4.59331         0.35797 
        5.26217         4.55597        0.355251 
        5.27788          4.5371        0.352557 
        5.29359           4.501        0.349889 
        5.30933         4.47514        0.347246 
        5.32504         4.44704        0.344634 
        5.34073         4.42031        0.342052 
        5.35646         4.39467        0.339492 
        5.37218         4.35181        0.336957 
        5.38789         4.33271        0.334452 
        5.40357         4.30364        0.331975 
        5.41929          4.2736        0.329518 
        5.43502         4.24514        0.327085 
         5.4507         4.22532        0.324683 
        5.46639         4.19101        0.322305 
        5.48212         4.17657        0.319945 
        5.49786         4.13867        0.317605 
        5.51353         4.11685        0.315301 
        5.52921         4.09751        0.313017 
        5.54495         4.06383        0.310749 
        5.56066         4.04047        0.308506 
        5.57637         4.01278        0.306285 
        5.59207         3.98453        0.304088 
        5.60778          3.9718        0.301912 
        5.62346         3.94474         0.29976 
        5.63916         3.91277        0.297627 
        5.65487         3.89252        0.295514 
         5.6706         3.87236        0.293419 
        5.68633         3.84841        0.291343 
        5.70203         3.82108        0.289292 
        5.71773         3.79925        0.287261 
        5.73344         3.77498        0.285248 
        5.74916         3.75125        0.283252 
        5.76486         3.72796        0.281279 
        5.78054         3.70592        0.279327 
        5.79626          3.6834        0.277388 
          5.812         3.65715        0.275466 
         5.8277         3.63014        0.273567 
        5.84339         3.62345        0.271687 
        5.85911         3.59672         0.26982 
        5.87484          3.5733        0.267971 
        5.89053         3.54897        0.266143 
        5.90623         3.53316        0.264332 
        5.92195         3.51107        0.262534 
        5.93767         3.48585        0.260754 
        5.95336         3.47011        0.258993 
        5.96905         3.44324        0.257249 
        5.98476         3.43309        0.255519 
        6.00048         3.40041        0.253804 
        6.01617         3.38439        0.252107 
        6.03185         3.37221        0.250428 
        6.04756         3.34226         0.24876 
        6.06331         3.32534        0.247104 
        6.07903         3.30357        0.245466 
        6.09473         3.28756        0.243844 
        6.11044          3.2636        0.242236 
        6.12616         3.24966        0.240642 
        6.14186         3.23295        0.239065 
        6.15755         3.21202        0.237501 
        6.17326         3.19275         0.23595 
        6.18898         3.17003        0.234413 
        6.20467         3.15466        0.232892 
        6.22036         3.13653        0.231384 
         6.2361         3.11967        0.229886 
         6.2518         3.10124        0.228403 
        6.26748         3.08449        0.226937 
        6.28319         3.06353         0.22548 
        6.29893         3.05114        0.224034 
        6.31463         3.03561        0.222603 
        6.33033         3.01884        0.221185 
        6.34604         2.99741        0.219779 
        6.36177         2.98294        0.218383 
        6.37747         2.96143        0.217002 
