# k  (h/Mpc)    Pcb(k)  (Mpc/h)^3    Pcb_linear(k) (Mpc/h)^3   ShotnoiseSubtracted = true
      0.0200456         13938.9         14155.7 
      0.0350414         10577.2         10290.7 
      0.0492313         7385.34         7477.02 
      0.0637834            5969         6215.58 
      0.0800726         4697.99         4933.15 
       0.096163         3707.63         3579.43 
       0.111083         3015.44         2855.05 
       0.126058         2506.59         2530.15 
       0.142273          2170.2          2143.6 
       0.158546         1782.71         1692.99 
        0.17375         1566.97         1426.34 
       0.188953         1459.82         1291.52 
       0.204907         1249.21         1142.73 
       0.220756         1121.89         966.822 
        0.23588         998.561         841.051 
         0.2514          895.29         764.086 
       0.267535         868.826         691.367 
       0.283568         762.016         609.693 
       0.299022         727.522         543.205 
       0.314451         741.947         496.452 
       0.330372         639.113         455.439 
       0.346141         591.218         413.381 
       0.361624         565.875         375.706 
       0.377134         533.296         345.709 
       0.392932         515.451         319.878 
       0.408854         490.877         294.866 
       0.424564         475.856         271.782 
       0.440253         432.491         251.973 
       0.455999         414.377         234.749 
       0.471626         418.665          218.92 
        0.48727          396.21         204.113 
       0.502856         366.327         190.811 
       0.518488          366.54         178.942 
       0.534347         341.835         167.908 
       0.550082         330.225         157.734 
       0.565732         328.436         148.427 
       0.581496         315.184         139.902 
       0.597222         306.227         132.084 
       0.612804         298.463         124.895 
       0.628434          287.01         118.195 
       0.644267         275.161          111.93 
       0.660051         271.101         106.157 
       0.675724         267.564         100.825 
       0.691403         260.627         95.8556 
       0.707174         251.124         91.1929 
       0.722871         247.382         86.8589 
        0.73838         244.951         82.8529 
       0.754018         233.609         79.0693 
       0.769845         233.179         75.4809 
        0.78569         227.412         72.1122 
       0.801365         221.232         68.9826 
       0.817031         216.954         66.0416 
       0.832809         213.406         63.2542 
       0.848511         208.005          60.641 
       0.864097         203.244          58.194 
       0.879701         202.251         55.8805 
       0.895507         197.425         53.6659 
       0.911279         191.691         51.5766 
        0.92691         189.339         49.6163 
       0.942635         187.569         47.7475 
       0.958396         183.317         45.9715 
       0.974128         179.993         44.2894 
       0.989692         174.525         42.7084 
        1.00528         173.747         41.2026 
        1.02113         170.256         39.7461 
        1.03692         167.322         38.3657 
        1.05264         164.909         37.0575 
        1.06832         163.543         35.8126 
        1.08405         159.487         34.6217 
        1.09979         158.557         33.4846 
        1.11537         155.267         32.4099 
        1.13105         153.167         31.3762 
        1.14679          151.12         30.3838 
        1.16256         148.674         29.4326 
        1.17828         147.001         28.5253 
        1.19395         143.382         27.6595 
         1.2097         142.566         26.8253 
        1.22537         140.777         26.0297 
          1.241         138.218         25.2689 
        1.25666         135.669         24.5367 
        1.27241         132.648         23.8302 
        1.28819         131.864         23.1504 
        1.30392         129.743         22.4991 
        1.31957         127.297          21.876 
        1.33529         126.023         21.2742 
        1.35108         124.496         20.6927 
        1.36674         122.277         20.1372 
         1.3824          121.92         19.6026 
        1.39811         118.809         19.0858 
        1.41389         117.823         18.5856 
        1.42964          115.51         18.1043 
        1.44531         114.556         17.6424 
        1.46101         112.386         17.1957 
        1.47667         112.194         16.7658 
        1.49229         110.758         16.3518 
        1.50793         108.591         15.9514 
        1.52367         107.309         15.5618 
        1.53953         105.996         15.1827 
        1.55526         104.836         14.8192 
        1.57092         103.862         14.4692 
        1.58662         102.301         14.1297 
        1.60235         100.593         13.8004 
        1.61809         100.016         13.4815 
        1.63369         98.0943         13.1756 
        1.64941         98.0014         12.8769 
        1.66519         96.1248         12.5865 
        1.68085         94.7226         12.3071 
        1.69652         93.3855         12.0361 
        1.71228         92.5133         11.7717 
        1.72806         91.5717         11.5151 
        1.74368         89.9451         11.2688 
        1.75933         89.3465         11.0291 
        1.77505         88.2666         10.7954 
        1.79081         86.8566          10.568 
         1.8065         86.0958         10.3481 
        1.82218         84.8457         10.1347 
        1.83797         84.4541         9.92586 
        1.85367         82.6672         9.72407 
        1.86928          82.161         9.52912 
        1.88497         81.2888         9.33845 
        1.90073         80.4023         9.15231 
        1.91647         78.9679         8.97142 
        1.93218         78.1098          8.7958 
        1.94787          77.187         8.62515 
        1.96363         76.3082         8.45836 
        1.97935         75.6794         8.29634 
        1.99499         74.7887         8.13947 
        2.01064         73.6394         7.98644 
         2.0264         72.6891         7.83639 
        2.04216         71.8232         7.69028 
        2.05781         71.1522         7.54881 
        2.07353          70.294         7.41041 
        2.08928         69.4009         7.27518 
        2.10499         68.5646         7.14369 
        2.12065         68.0915         7.01585 
        2.13633         67.3979         6.89103 
        2.15211         66.3262         6.76844 
        2.16785         65.2313         6.64918 
        2.18349         64.7445         6.53355 
        2.19916         63.9889         6.42042 
        2.21489          63.149         6.30961 
        2.23063         62.4285         6.20133 
         2.2463         61.8934         6.09609 
        2.26194         61.3304         5.99356 
        2.27765         60.4709         5.89285 
        2.29341          59.767         5.79421 
        2.30914         59.0203         5.69802 
        2.32486         58.1736         5.60408 
        2.34061         57.8479          5.5121 
        2.35635           57.01         5.42226 
        2.37203         56.4563         5.33475 
        2.38768         55.9133         5.24934 
        2.40339         55.2787          5.1655 
        2.41914         54.5396          5.0833 
        2.43483         54.0305         5.00317 
         2.4505         53.5497         4.92491 
        2.46622         52.9601         4.84806 
        2.48195         52.2819         4.77284 
        2.49759         51.7039         4.69962 
        2.51328          51.331         4.62774 
        2.52906         50.5692         4.55692 
        2.54479         50.1062         4.48784 
        2.56049         49.2838         4.42033 
        2.57618         48.9157         4.35427 
        2.59189         48.5499         4.28946 
        2.60758         47.7255         4.22607 
        2.62325         47.3579         4.16403 
        2.63898         46.9239         4.10303 
        2.65468         46.4569         4.04338 
        2.67044         45.9276         3.98466 
        2.68618          45.574         3.92724 
        2.70184         44.7622         3.87119 
        2.71755         44.4922         3.81609 
        2.73329         43.9621         3.76197 
        2.74897         43.7205         3.70909 
        2.76462         43.0929         3.65733 
        2.78034         42.6631         3.60635 
        2.79607         42.1553         3.55629 
        2.81179         41.8201         3.50724 
        2.82749         41.3157         3.45917 
        2.84321         40.9872         3.41194 
        2.85893         40.4144         3.36562 
        2.87462         39.8942         3.32023 
        2.89033         39.6504         3.27563 
        2.90605         39.1022         3.23182 
        2.92176         38.8868         3.18883 
        2.93747         38.5344         3.14665 
        2.95318         38.1637         3.10522 
        2.96891          37.616         3.06451 
        2.98456         37.3997         3.02472 
        3.00023         36.9585         2.98558 
        3.01596         36.6088           2.947 
        3.03164         36.2199         2.90922 
        3.04738         35.8031         2.87199 
         3.0631         35.6453         2.83543 
        3.07883         35.1773         2.79949 
        3.09456         34.6901         2.76419 
        3.11026         34.3544         2.72955 
        3.12596         34.0719         2.69551 
        3.14163         33.7367         2.66213 
        3.15734         33.4503         2.62923 
        3.17308         33.1367         2.59682 
        3.18879         32.7012         2.56503 
        3.20447         32.3733         2.53383 
         3.2202         32.1512         2.50304 
         3.2359         31.8579         2.47283 
        3.25157         31.5889         2.44318 
        3.26729          31.189         2.41393 
        3.28304         30.9315          2.3851 
        3.29877         30.4674         2.35678 
        3.31446         30.2791         2.32899 
        3.33014         29.9546         2.30166 
        3.34585         29.6908         2.27473 
        3.36158         29.4313         2.24819 
        3.37727         29.1546         2.22216 
        3.39294         28.8573         2.19657 
        3.40867         28.5869         2.17128 
        3.42439         28.3837         2.14641 
        3.44008         28.0854         2.12197 
        3.45578         27.8746          2.0979 
        3.47153           27.54         2.07415 
        3.48724         27.2964          2.0508 
        3.50292         27.0767         2.02787 
        3.51859         26.7184         2.00531 
        3.53431         26.4964         1.98301 
        3.55007         26.2492           1.961 
        3.56577         25.9532         1.93941 
        3.58146          25.778         1.91816 
        3.59719         25.5641         1.89717 
        3.61292         25.3457         1.87651 
        3.62859          25.119         1.85623 
        3.64429          24.816         1.83621 
        3.66003         24.6928         1.81642 
        3.67578         24.4065         1.79694 
        3.69146         24.2626         1.77781 
        3.70712         24.0132           1.759 
        3.72284         23.8433         1.74038 
        3.73853         23.6283         1.72207 
        3.75422         23.2871         1.70402 
        3.76993         23.1049         1.68621 
        3.78564          22.911         1.66866 
        3.80137         22.6646         1.65134 
        3.81707         22.5209         1.63429 
        3.83279         22.3374         1.61747 
        3.84853         22.1219         1.60086 
        3.86424         21.9068         1.58452 
        3.87992         21.7022         1.56843 
        3.89561         21.5943         1.55256 
        3.91134         21.2882         1.53688 
        3.92704          21.201         1.52143 
        3.94273         20.9214         1.50621 
        3.95845         20.8118         1.49117 
        3.97418         20.5576         1.47634 
        3.98988         20.4068         1.46172 
        4.00554         20.2902         1.44735 
        4.02125         20.0521         1.43312 
        4.03698         19.8763         1.41906 
        4.05268         19.7151         1.40523 
        4.06839         19.5754         1.39157 
         4.0841          19.373         1.37809 
        4.09983          19.144         1.36477 
        4.11555         18.9812         1.35164 
        4.13124         18.9143         1.33871 
        4.14693         18.6858         1.32594 
        4.16266         18.6001         1.31331 
        4.17839         18.4032         1.30085 
        4.19408         18.2027         1.28858 
        4.20977         18.1122         1.27647 
        4.22551          17.921         1.26448 
        4.24123         17.7772         1.25265 
        4.25691         17.5865         1.24101 
        4.27259          17.487         1.22952 
        4.28831         17.3439         1.21814 
        4.30404         17.1976          1.2069 
        4.31974         17.0952         1.19583 
        4.33543         16.9302          1.1849 
        4.35116         16.7412         1.17408 
        4.36688         16.6408          1.1634 
        4.38255         16.4854         1.15289 
        4.39825         16.3216         1.14249 
        4.41398         16.2449          1.1322 
         4.4297         16.1096         1.12204 
        4.44541         15.9116         1.11201 
        4.46111         15.8241         1.10211 
        4.47683         15.6629         1.09233 
        4.49251         15.5875         1.08268 
        4.50819         15.4348         1.07315 
         4.5239         15.2809         1.06373 
        4.53962         15.1879          1.0544 
        4.55535         15.0285         1.04518 
        4.57106         14.9719         1.03609 
        4.58678         14.7979          1.0271 
         4.6025         14.6869         1.01822 
        4.61821         14.5976         1.00944 
        4.63391         14.4462         1.00078 
         4.6496         14.3128        0.992217 
        4.66532         14.2045        0.983747 
        4.68103         14.1118        0.975378 
        4.69673         13.9991        0.967115 
        4.71241          13.881        0.958956 
        4.72811         13.7481        0.950877 
        4.74384         13.6699        0.942881 
        4.75955         13.5559        0.934989 
        4.77525         13.4333        0.927192 
        4.79096         13.3192        0.919474 
        4.80669         13.2418         0.91184 
         4.8224         13.1183        0.904302 
        4.83809         13.0481        0.896856 
        4.85379         12.9271         0.88949 
         4.8695         12.8279          0.8822 
        4.88521         12.7344        0.874996 
        4.90093         12.6579         0.86787 
        4.91663         12.5719        0.860831 
        4.93234         12.4784        0.853861 
        4.94807         12.3772        0.846965 
        4.96377         12.2764        0.840157 
        4.97943         12.1861        0.833439 
        4.99514         12.0738        0.826776 
        5.01086         11.9771        0.820181 
        5.02654         11.8908        0.813675 
        5.04227         11.7621        0.807221 
          5.058          11.709        0.800833 
        5.07371         11.6134        0.794527 
        5.08942         11.5419        0.788288 
        5.10513         11.4472        0.782115 
        5.12084         11.3573        0.776005 
        5.13656         11.2954        0.769962 
        5.15225         11.2027        0.763993 
        5.16796          11.123        0.758078 
        5.18369         11.0222         0.75222 
         5.1994         10.9384        0.746434 
        5.21509         10.8895        0.740715 
        5.23079         10.7618        0.735049 
        5.24649         10.6963        0.729446 
        5.26217         10.6089        0.723906 
        5.27788         10.5501        0.718415 
        5.29359         10.4603         0.71298 
        5.30933         10.3997        0.707594 
        5.32504         10.3148        0.702272 
        5.34073         10.2581         0.69701 
        5.35646         10.1849        0.691792 
        5.37218         10.0842        0.686627 
        5.38789         10.0091        0.681522 
        5.40357         9.95177        0.676475 
        5.41929         9.89294        0.671468 
        5.43502         9.81275        0.666511 
         5.4507         9.71963        0.661616 
        5.46639         9.67884         0.65677 
        5.48212         9.58255         0.65196 
        5.49786         9.51706        0.647193 
        5.51353          9.4597        0.642498 
        5.52921         9.39126        0.637844 
        5.54495          9.3271        0.633222 
        5.56066         9.25049        0.628651 
        5.57637          9.1716        0.624126 
        5.59207         9.13306         0.61965 
        5.60778         9.04658        0.615215 
        5.62346         8.99627         0.61083 
        5.63916         8.93722        0.606484 
        5.65487         8.87638        0.602178 
         5.6706         8.79813        0.597908 
        5.68633         8.74287        0.593679 
        5.70203         8.67166        0.589499 
        5.71773         8.62355        0.585359 
        5.73344         8.58574        0.581258 
        5.74916          8.5049        0.577191 
        5.76486         8.45593         0.57317 
        5.78054          8.3847        0.569192 
        5.79626         8.31681        0.565242 
          5.812          8.2813        0.561325 
         5.8277         8.23972        0.557456 
        5.84339         8.16237        0.553624 
        5.85911         8.10537         0.54982 
        5.87484         8.05794        0.546053 
        5.89053         7.98719        0.542328 
        5.90623         7.93025        0.538637 
        5.92195         7.89597        0.534973 
        5.93767         7.83328        0.531346 
        5.95336         7.80266        0.527758 
        5.96905         7.72157        0.524205 
        5.98476         7.67577        0.520679 
        6.00048         7.62263        0.517184 
        6.01617         7.56711        0.513727 
        6.03185         7.52843        0.510305 
        6.04756         7.47691        0.506906 
        6.06331         7.42821         0.50353 
        6.07903         7.37461        0.500193 
        6.09473         7.32317        0.496888 
        6.11044         7.29678        0.493611 
        6.12616          7.2354        0.490364 
        6.14186         7.18718        0.487149 
        6.15755         7.12995        0.483963 
        6.17326         7.09927        0.480803 
        6.18898         7.04361         0.47767 
        6.20467         6.98459         0.47457 
        6.22036         6.96161        0.471498 
         6.2361         6.89928        0.468445 
         6.2518         6.86452        0.465424 
        6.26748         6.80395        0.462436 
        6.28319         6.77758        0.459467 
        6.29893         6.73247         0.45652 
        6.31463         6.68233        0.453605 
        6.33033         6.65546        0.450715 
        6.34604         6.60526        0.447849 
        6.36177         6.54558        0.445006 
        6.37747          6.5227        0.442192 
