# k  (h/Mpc)    Pcb(k)  (Mpc/h)^3    Pcb_linear(k) (Mpc/h)^3   ShotnoiseSubtracted = true
      0.0200456         12752.8         13006.7 
      0.0350414         9147.52         9455.42 
      0.0492313         6796.59         6870.13 
      0.0637834         5824.09         5711.08 
      0.0800726         4606.51         4532.74 
       0.096163         3213.86          3288.9 
       0.111083         2560.11         2623.31 
       0.126058         2360.04         2324.79 
       0.142273         2039.88         1969.61 
       0.158546          1719.7         1555.58 
        0.17375         1377.83         1310.57 
       0.188953         1333.54         1186.69 
       0.204907         1253.04         1049.98 
       0.220756         1069.15         888.347 
        0.23588         943.468         772.785 
         0.2514          822.58         702.067 
       0.267535         806.119         635.251 
       0.283568         731.019         560.206 
       0.299022         683.572         499.114 
       0.314451         645.159         456.157 
       0.330372         594.686         418.472 
       0.346141         543.526         379.827 
       0.361624         522.743         345.211 
       0.377134          485.64         317.649 
       0.392932         463.489         293.914 
       0.408854         445.685         270.932 
       0.424564         421.788         249.722 
       0.440253           410.1         231.521 
       0.455999         386.299         215.695 
       0.471626         362.493         201.151 
        0.48727          351.33         187.546 
       0.502856         340.301         175.323 
       0.518488         336.913         164.418 
       0.534347         315.984         154.279 
       0.550082         299.049         144.931 
       0.565732         296.029         136.379 
       0.581496          279.97         128.547 
       0.597222         274.452         121.363 
       0.612804           265.5         114.758 
       0.628434          255.52         108.601 
       0.644267         247.765         102.845 
       0.660051         244.034         97.5402 
       0.675724         239.422         92.6416 
       0.691403         232.601         88.0752 
       0.707174         223.445          83.791 
       0.722871         221.217         79.8088 
        0.73838         216.864         76.1279 
       0.754018         211.193         72.6515 
       0.769845         204.218         69.3543 
        0.78569         203.185          66.259 
       0.801365         196.524         63.3834 
       0.817031         190.516         60.6811 
       0.832809         188.294           58.12 
       0.848511         183.469         55.7189 
       0.864097         181.063         53.4706 
       0.879701         177.151         51.3448 
       0.895507         172.647           49.31 
       0.911279         168.214         47.3902 
        0.92691         167.826         45.5891 
       0.942635          163.66          43.872 
       0.958396         163.145         42.2401 
       0.974128         158.885         40.6945 
       0.989692         155.145         39.2419 
        1.00528         152.773         37.8583 
        1.02113         151.913         36.5201 
        1.03692         146.686         35.2517 
        1.05264         144.553         34.0496 
        1.06832         141.867         32.9057 
        1.08405         139.945         31.8116 
        1.09979         139.322         30.7667 
        1.11537         134.857         29.7793 
        1.13105         133.996         28.8295 
        1.14679           133.2         27.9176 
        1.16256         131.103         27.0436 
        1.17828         128.236           26.21 
        1.19395         126.483         25.4144 
         1.2097         124.755          24.648 
        1.22537         123.633         23.9169 
          1.241         121.155         23.2179 
        1.25666         119.192         22.5451 
        1.27241         117.391         21.8959 
        1.28819         115.961         21.2713 
        1.30392         114.451          20.673 
        1.31957         113.154         20.1003 
        1.33529         110.589         19.5474 
        1.35108         109.486         19.0131 
        1.36674         108.555         18.5027 
         1.3824         106.327         18.0115 
        1.39811         105.501         17.5366 
        1.41389         103.927         17.0771 
        1.42964         102.088         16.6348 
        1.44531         99.9944         16.2104 
        1.46101         99.2103            15.8 
        1.47667         98.4111          15.405 
        1.49229         96.7408         15.0246 
        1.50793         95.9368         14.6567 
        1.52367         94.6315         14.2987 
        1.53953         93.0434         13.9504 
        1.55526         92.2603         13.6164 
        1.57092         91.4312         13.2948 
        1.58662         89.5418         12.9828 
        1.60235         89.2023         12.6803 
        1.61809          87.611         12.3873 
        1.63369         86.8552         12.1061 
        1.64941         86.0797         11.8317 
        1.66519          84.043         11.5649 
        1.68085         83.5418         11.3081 
        1.69652         81.7159         11.0591 
        1.71228         81.7428         10.8162 
        1.72806         80.4432         10.5805 
        1.74368         79.5246         10.3541 
        1.75933         78.2912         10.1339 
        1.77505         77.6978         9.91912 
        1.79081         76.4112         9.71018 
         1.8065         75.6548         9.50817 
        1.82218         74.4575         9.31209 
        1.83797         73.7691          9.1202 
        1.85367         73.0157         8.93479 
        1.86928         72.7874         8.75566 
        1.88497          71.233         8.58047 
        1.90073         70.3444         8.40944 
        1.91647         69.9145         8.24323 
        1.93218         68.8599         8.08187 
        1.94787         68.0893         7.92507 
        1.96363         67.1244         7.77182 
        1.97935          66.825         7.62294 
        1.99499         65.6529         7.47881 
        2.01064         65.2672          7.3382 
         2.0264         63.9063         7.20033 
        2.04216         63.3801         7.06608 
        2.05781         62.6859          6.9361 
        2.07353         61.7745         6.80893 
        2.08928         61.0203         6.68467 
        2.10499         60.6555         6.56385 
        2.12065           60.03         6.44639 
        2.13633           59.42          6.3317 
        2.15211         58.9644         6.21906 
        2.16785         58.2446         6.10948 
        2.18349         57.7605         6.00324 
        2.19916         56.9319          5.8993 
        2.21489          56.487         5.79747 
        2.23063         55.9268         5.69799 
         2.2463         55.2903         5.60129 
        2.26194         54.3857         5.50707 
        2.27765         54.0433         5.41455 
        2.29341         53.4345         5.32391 
        2.30914         52.6346         5.23553 
        2.32486         51.8476         5.14921 
        2.34061         51.5467         5.06469 
        2.35635         50.9545         4.98215 
        2.37203          50.295         4.90174 
        2.38768         49.8937         4.82327 
        2.40339         49.2867         4.74623 
        2.41914         49.0086          4.6707 
        2.43483         48.5389         4.59708 
         2.4505         48.0808         4.52517 
        2.46622         47.5385         4.45455 
        2.48195         46.9797         4.38544 
        2.49759         46.2951         4.31816 
        2.51328         45.8456         4.25212 
        2.52906         45.4353         4.18704 
        2.54479         44.9661         4.12357 
        2.56049         44.3163         4.06154 
        2.57618         44.0634         4.00084 
        2.59189         43.4816         3.94129 
        2.60758         43.1657         3.88305 
        2.62325         42.6119         3.82605 
        2.63898          42.212            3.77 
        2.65468         41.6529         3.71519 
        2.67044         41.0689         3.66124 
        2.68618         40.8694         3.60848 
        2.70184         40.4296         3.55697 
        2.71755         40.1885         3.50634 
        2.73329         39.5242         3.45662 
        2.74897         39.1891         3.40803 
        2.76462         38.6776         3.36048 
        2.78034         38.5041         3.31364 
        2.79607         38.0324         3.26764 
        2.81179         37.6892         3.22257 
        2.82749         37.1144          3.1784 
        2.84321         36.8936         3.13501 
        2.85893         36.4848         3.09244 
        2.87462         36.0122         3.05073 
        2.89033         35.6842         3.00976 
        2.90605         35.4606          2.9695 
        2.92176         35.0752            2.93 
        2.93747         34.7677         2.89124 
        2.95318         34.3421         2.85317 
        2.96891         33.8673         2.81578 
        2.98456         33.7171         2.77921 
        3.00023         33.2741         2.74324 
        3.01596         32.9071          2.7078 
        3.03164          32.722         2.67309 
        3.04738         32.4016         2.63888 
         3.0631         32.0203         2.60528 
        3.07883         31.6969         2.57227 
        3.09456         31.4313         2.53983 
        3.11026          31.117           2.508 
        3.12596          30.828         2.47672 
        3.14163         30.4804         2.44605 
        3.15734         30.2428         2.41583 
        3.17308         29.8659         2.38604 
        3.18879         29.6442         2.35683 
        3.20447         29.3443         2.32816 
         3.2202         29.0443         2.29988 
         3.2359         28.7834         2.27211 
        3.25157         28.6097         2.24487 
        3.26729         28.3131           2.218 
        3.28304         27.9811         2.19151 
        3.29877         27.6108         2.16549 
        3.31446         27.4561         2.13995 
        3.33014           27.21         2.11484 
        3.34585          27.049          2.0901 
        3.36158         26.6294         2.06571 
        3.37727         26.3877         2.04179 
        3.39294         26.2145         2.01828 
        3.40867          25.923         1.99504 
        3.42439         25.6584         1.97219 
        3.44008         25.4521         1.94974 
        3.45578         25.2496         1.92762 
        3.47153         24.9627         1.90579 
        3.48724         24.7117         1.88435 
        3.50292         24.5758         1.86328 
        3.51859         24.2654         1.84254 
        3.53431         24.1181         1.82206 
        3.55007         23.8378         1.80183 
        3.56577         23.5985         1.78199 
        3.58146         23.5005         1.76246 
        3.59719         23.1953         1.74318 
        3.61292         23.0214         1.72419 
        3.62859          22.768         1.70556 
        3.64429         22.5705         1.68717 
        3.66003         22.3623         1.66899 
        3.67578          22.158         1.65108 
        3.69146         21.9759         1.63351 
        3.70712         21.7396         1.61622 
        3.72284         21.6003         1.59912 
        3.73853          21.364          1.5823 
        3.75422         21.1822         1.56571 
        3.76993          20.999         1.54935 
        3.78564         20.7792         1.53322 
        3.80137         20.6262          1.5173 
        3.81707         20.4633         1.50164 
        3.83279         20.2478         1.48619 
        3.84853         20.0668         1.47093 
        3.86424         19.9267         1.45591 
        3.87992         19.7277         1.44112 
        3.89561         19.5383         1.42654 
        3.91134         19.4192         1.41214 
        3.92704         19.2216         1.39794 
        3.94273         19.0607         1.38396 
        3.95845         18.8422         1.37014 
        3.97418         18.7307         1.35651 
        3.98988         18.5238         1.34308 
        4.00554         18.3982         1.32987 
        4.02125         18.2275          1.3168 
        4.03698         18.0309         1.30388 
        4.05268         17.9265         1.29117 
        4.06839          17.703         1.27862 
         4.0841         17.6622         1.26623 
        4.09983         17.4117           1.254 
        4.11555         17.3117         1.24193 
        4.13124         17.1736         1.23005 
        4.14693         16.9999         1.21832 
        4.16266         16.8375         1.20671 
        4.17839         16.7132         1.19527 
        4.19408         16.5616         1.18399 
        4.20977          16.427         1.17286 
        4.22551         16.3049         1.16184 
        4.24123         16.1868         1.15098 
        4.25691         16.0738         1.14028 
        4.27259         15.9143         1.12972 
        4.28831         15.7286         1.11927 
        4.30404         15.6431         1.10894 
        4.31974         15.4979         1.09876 
        4.33543         15.3715         1.08872 
        4.35116         15.2335         1.07878 
        4.36688         15.1259         1.06897 
        4.38255         14.9989         1.05931 
        4.39825         14.9151         1.04976 
        4.41398         14.7517          1.0403 
         4.4297          14.615         1.03097 
        4.44541         14.5248         1.02175 
        4.46111         14.4299         1.01266 
        4.47683         14.2765         1.00367 
        4.49251         14.1834        0.994804 
        4.50819         14.0656        0.986049 
         4.5239         13.9712        0.977388 
        4.53962         13.8187        0.968819 
        4.55535         13.7249        0.960349 
        4.57106         13.6194        0.951992 
        4.58678         13.4754        0.943733 
         4.6025         13.3811         0.93557 
        4.61821         13.2682        0.927505 
        4.63391         13.2144        0.919545 
         4.6496         13.0502        0.911682 
        4.66532         12.9376        0.903898 
        4.68103         12.8263        0.896209 
        4.69673         12.7825        0.888617 
        4.71241         12.6436         0.88112 
        4.72811         12.5515        0.873697 
        4.74384         12.4432         0.86635 
        4.75955         12.3538        0.859098 
        4.77525         12.2724        0.851934 
        4.79096         12.1773        0.844842 
        4.80669         12.0712        0.837828 
         4.8224         11.9718        0.830902 
        4.83809           11.91        0.824061 
        4.85379         11.7719        0.817292 
         4.8695         11.7384        0.810594 
        4.88521         11.6129        0.803975 
        4.90093          11.537        0.797428 
        4.91663         11.4369        0.790959 
        4.93234         11.3479        0.784556 
        4.94807         11.2578        0.778219 
        4.96377          11.179        0.771964 
        4.97943         11.0936         0.76579 
        4.99514         11.0227        0.759669 
        5.01086         10.9254        0.753609 
        5.02654         10.8349        0.747631 
        5.04227         10.7786        0.741701 
          5.058         10.6609        0.735831 
        5.07371         10.6188        0.730037 
        5.08942         10.5162        0.724304 
        5.10513          10.444        0.718633 
        5.12084         10.3809        0.713019 
        5.13656         10.2944        0.707466 
        5.15225         10.2262        0.701982 
        5.16796         10.1371        0.696547 
        5.18369         10.0681        0.691164 
         5.1994         9.98569        0.685848 
        5.21509         9.92578        0.680593 
        5.23079         9.83151        0.675387 
        5.24649         9.78216        0.670239 
        5.26217         9.68523        0.665148 
        5.27788         9.63491        0.660103 
        5.29359         9.54131        0.655109 
        5.30933         9.48305         0.65016 
        5.32504         9.41053         0.64527 
        5.34073         9.36476        0.640436 
        5.35646         9.27403        0.635641 
        5.37218          9.2067        0.630895 
        5.38789         9.15922        0.626205 
        5.40357         9.09863        0.621568 
        5.41929         9.01894        0.616967 
        5.43502         8.94316        0.612412 
         5.4507         8.88466        0.607915 
        5.46639         8.81828        0.603461 
        5.48212         8.76597        0.599042 
        5.49786         8.70604        0.594662 
        5.51353          8.6424        0.590348 
        5.52921         8.58186        0.586071 
        5.54495         8.52986        0.581825 
        5.56066         8.45531        0.577625 
        5.57637         8.39826        0.573467 
        5.59207         8.34422        0.569354 
        5.60778         8.28644         0.56528 
        5.62346         8.22941        0.561251 
        5.63916          8.1787        0.557257 
        5.65487         8.10987        0.553301 
         5.6706         8.05918        0.549378 
        5.68633         7.99371        0.545491 
        5.70203         7.94602         0.54165 
        5.71773         7.88423        0.537847 
        5.73344         7.83376        0.534078 
        5.74916         7.78727        0.530342 
        5.76486          7.7468        0.526647 
        5.78054         7.67541        0.522992 
        5.79626         7.62293        0.519362 
          5.812         7.56411        0.515763 
         5.8277         7.51642        0.512209 
        5.84339         7.47646        0.508687 
        5.85911         7.41555        0.505193 
        5.87484         7.37867        0.501731 
        5.89053         7.32724        0.498309 
        5.90623         7.26139        0.494917 
        5.92195         7.21952        0.491551 
        5.93767         7.17185        0.488218 
        5.95336         7.12999        0.484921 
        5.96905         7.07603        0.481656 
        5.98476         7.03886        0.478417 
        6.00048         6.98816        0.475206 
        6.01617         6.93898        0.472029 
        6.03185         6.88646        0.468884 
        6.04756         6.84363        0.465761 
        6.06331         6.80542         0.46266 
        6.07903         6.76386        0.459593 
        6.09473         6.71472        0.456557 
        6.11044         6.65177        0.453546 
        6.12616         6.62151        0.450562 
        6.14186         6.58997        0.447608 
        6.15755         6.53566        0.444681 
        6.17326         6.47255        0.441778 
        6.18898           6.438        0.438899 
        6.20467         6.40823        0.436051 
        6.22036         6.35557        0.433228 
         6.2361         6.31602        0.430423 
         6.2518         6.27761        0.427647 
        6.26748         6.23874        0.424902 
        6.28319          6.1893        0.422173 
        6.29893          6.1592        0.419466 
        6.31463         6.12379        0.416787 
        6.33033         6.07195        0.414132 
        6.34604         6.03588        0.411499 
        6.36177         6.00512        0.408886 
        6.37747         5.97216          0.4063 
