# k  (h/Mpc)    Pcb(k)  (Mpc/h)^3    Pcb_linear(k) (Mpc/h)^3   ShotnoiseSubtracted = true
      0.0200456         5715.23          5810.3 
      0.0350414         4143.67         4223.89 
      0.0492313         3062.76            3069 
      0.0637834         2593.94         2551.23 
      0.0800726         2055.49         2024.85 
       0.096163         1450.18         1469.21 
       0.111083         1150.43         1171.88 
       0.126058         1052.05         1038.52 
       0.142273         905.028         879.856 
       0.158546         736.062         694.901 
        0.17375         597.298         585.454 
       0.188953         565.326         530.115 
       0.204907         527.235         469.044 
       0.220756         441.853         396.839 
        0.23588         386.323         345.216 
         0.2514         341.321         313.625 
       0.267535         322.717         283.777 
       0.283568         291.519         250.253 
       0.299022         267.857         222.963 
       0.314451          244.42         203.773 
       0.330372         226.751         186.939 
       0.346141         204.255         169.675 
       0.361624         193.514         154.212 
       0.377134         181.871         141.899 
       0.392932         165.421         131.296 
       0.408854         158.815          121.03 
       0.424564         152.071         111.555 
       0.440253         142.324         103.424 
       0.455999         133.958         96.3545 
       0.471626         123.901         89.8574 
        0.48727         120.116         83.7797 
       0.502856         114.542         78.3198 
       0.518488         110.869         73.4481 
       0.534347         106.169         68.9192 
       0.550082         98.0182         64.7433 
       0.565732         93.8358         60.9229 
       0.581496         90.4077         57.4239 
       0.597222         87.4497          54.215 
       0.612804         82.8941         51.2643 
       0.628434         81.0118          48.514 
       0.644267         78.3914         45.9427 
       0.660051         75.9761         43.5728 
       0.675724         72.9269         41.3845 
       0.691403           70.75         39.3447 
       0.707174         68.4228         37.4308 
       0.722871         66.5133         35.6519 
        0.73838         64.9462         34.0076 
       0.754018         61.7694         32.4546 
       0.769845         60.4761         30.9817 
        0.78569         58.8836          29.599 
       0.801365         56.8426         28.3144 
       0.817031         55.3326         27.1073 
       0.832809         54.5445         25.9632 
       0.848511         51.8572         24.8906 
       0.864097         50.7321         23.8862 
       0.879701         49.9625         22.9366 
       0.895507         49.1835         22.0276 
       0.911279         47.8747           21.17 
        0.92691         46.6703         20.3654 
       0.942635         45.0397         19.5983 
       0.958396         44.7988         18.8693 
       0.974128         43.5474         18.1789 
       0.989692         42.8358           17.53 
        1.00528         41.9139         16.9119 
        1.02113          40.634         16.3141 
        1.03692          39.823         15.7475 
        1.05264         39.3478         15.2105 
        1.06832         38.3398         14.6995 
        1.08405         37.7893         14.2108 
        1.09979         37.0992          13.744 
        1.11537         35.8948         13.3029 
        1.13105         35.9458         12.8786 
        1.14679         35.3553         12.4713 
        1.16256         34.3773         12.0808 
        1.17828         33.7787         11.7084 
        1.19395         33.1706          11.353 
         1.2097         32.8619         11.0107 
        1.22537         32.3892         10.6841 
          1.241         31.6536         10.3718 
        1.25666         30.8961         10.0713 
        1.27241          30.655         9.78128 
        1.28819         29.8137         9.50225 
        1.30392         29.5481         9.23495 
        1.31957         29.3385         8.97916 
        1.33529         29.0407         8.73215 
        1.35108         28.3999         8.49348 
        1.36674         27.9008         8.26546 
         1.3824         27.3384         8.04606 
        1.39811         27.1899         7.83391 
        1.41389         26.8371         7.62862 
        1.42964         26.3419         7.43105 
        1.44531         26.1903         7.24146 
        1.46101         25.5298         7.05811 
        1.47667         25.3219         6.88167 
        1.49229         25.0951         6.71174 
        1.50793         24.7262         6.54738 
        1.52367         24.4695         6.38748 
        1.53953         24.2111         6.23186 
        1.55526          23.739         6.08268 
        1.57092          23.449           5.939 
        1.58662         23.1732         5.79964 
        1.60235         22.9143          5.6645 
        1.61809         22.6411          5.5336 
        1.63369         22.3835         5.40801 
        1.64941         21.9579         5.28543 
        1.66519         21.8757         5.16621 
        1.68085         21.5234         5.05153 
        1.69652         21.2834          4.9403 
        1.71228         21.0999          4.8318 
        1.72806         20.8186         4.72647 
        1.74368         20.5417         4.62535 
        1.75933         20.3349         4.52699 
        1.77505         20.1432         4.43104 
        1.79081         19.8556          4.3377 
         1.8065         19.7613         4.24746 
        1.82218         19.4449         4.15986 
        1.83797         19.1695         4.07415 
        1.85367         19.0036         3.99132 
        1.86928         18.8473          3.9113 
        1.88497         18.5534         3.83304 
        1.90073         18.5657         3.75664 
        1.91647         18.2479         3.68239 
        1.93218         18.0833          3.6103 
        1.94787         17.9568         3.54026 
        1.96363         17.7923          3.4718 
        1.97935         17.5964         3.40529 
        1.99499         17.3588         3.34091 
        2.01064         17.2214          3.2781 
         2.0264          16.986         3.21651 
        2.04216         16.8472         3.15653 
        2.05781         16.6176         3.09847 
        2.07353         16.4778         3.04166 
        2.08928         16.3673         2.98615 
        2.10499         16.1553         2.93218 
        2.12065         15.9192         2.87971 
        2.13633         15.9138         2.82847 
        2.15211          15.651         2.77816 
        2.16785         15.6268         2.72921 
        2.18349         15.4697         2.68175 
        2.19916         15.2675         2.63531 
        2.21489         15.1496         2.58983 
        2.23063         14.9845         2.54539 
         2.2463         14.8345         2.50219 
        2.26194         14.7323          2.4601 
        2.27765         14.6074         2.41877 
        2.29341         14.4389         2.37828 
        2.30914         14.2685          2.3388 
        2.32486         14.2387         2.30024 
        2.34061         14.0664         2.26248 
        2.35635         13.9029         2.22561 
        2.37203          13.846         2.18969 
        2.38768         13.6884         2.15463 
        2.40339         13.4989         2.12022 
        2.41914         13.4101         2.08648 
        2.43483         13.3402         2.05359 
         2.4505         13.1942         2.02147 
        2.46622         13.0916         1.98992 
        2.48195         12.9828         1.95905 
        2.49759         12.8779         1.92899 
        2.51328         12.7295         1.89949 
        2.52906         12.6263         1.87042 
        2.54479         12.5258         1.84207 
        2.56049         12.4654         1.81436 
        2.57618         12.3685         1.78724 
        2.59189         12.1882         1.76064 
        2.60758         12.1488         1.73462 
        2.62325         12.0805         1.70916 
        2.63898         11.8842         1.68412 
        2.65468         11.8243         1.65964 
        2.67044         11.7089         1.63554 
        2.68618         11.6015         1.61197 
        2.70184          11.516         1.58896 
        2.71755         11.4071         1.56634 
        2.73329          11.293         1.54413 
        2.74897         11.2194         1.52242 
        2.76462         11.2006         1.50118 
        2.78034         10.9967         1.48026 
        2.79607         10.9421         1.45971 
        2.81179         10.8371         1.43957 
        2.82749         10.8004         1.41984 
        2.84321         10.6631         1.40046 
        2.85893         10.6001         1.38144 
        2.87462         10.5392         1.36281 
        2.89033         10.3896         1.34451 
        2.90605         10.3214         1.32653 
        2.92176         10.2764         1.30888 
        2.93747         10.1688         1.29157 
        2.95318         10.1085         1.27456 
        2.96891         10.0176         1.25785 
        2.98456          9.9282         1.24152 
        3.00023         9.87235         1.22545 
        3.01596         9.78356         1.20962 
        3.03164         9.73933         1.19411 
        3.04738         9.63906         1.17883 
         3.0631         9.53398         1.16382 
        3.07883         9.48284         1.14907 
        3.09456         9.43055         1.13458 
        3.11026         9.30609         1.12037 
        3.12596          9.2926         1.10639 
        3.14163         9.18709         1.09269 
        3.15734         9.11965         1.07919 
        3.17308         9.07467         1.06588 
        3.18879         8.98848         1.05284 
        3.20447         8.90464         1.04003 
         3.2202         8.84018         1.02739 
         3.2359         8.79832         1.01499 
        3.25157         8.72783         1.00282 
        3.26729          8.6663        0.990817 
        3.28304         8.56846        0.978984 
        3.29877         8.50491         0.96736 
        3.31446         8.47305         0.95595 
        3.33014         8.36955        0.944734 
        3.34585         8.35153        0.933681 
        3.36158         8.27632        0.922788 
        3.37727         8.21837        0.912103 
        3.39294         8.17036        0.901597 
        3.40867         8.04865        0.891219 
        3.42439         8.03471         0.88101 
        3.44008         7.96318         0.87098 
        3.45578         7.91027        0.861099 
        3.47153         7.87054         0.85135 
        3.48724         7.79903        0.841768 
        3.50292         7.75345        0.832357 
        3.51859         7.68377        0.823093 
        3.53431         7.62377        0.813942 
        3.55007         7.59133        0.804908 
        3.56577         7.53583        0.796046 
        3.58146         7.47182        0.787322 
        3.59719         7.40752        0.778708 
        3.61292          7.3668        0.770226 
        3.62859         7.30304        0.761902 
        3.64429         7.25032        0.753685 
        3.66003         7.17936        0.745565 
        3.67578         7.15137        0.737566 
        3.69146         7.09348        0.729716 
        3.70712         7.07543        0.721993 
        3.72284         6.97166        0.714354 
        3.73853         6.95499        0.706839 
        3.75422         6.89153        0.699429 
        3.76993         6.86207        0.692119 
        3.78564         6.79896        0.684916 
        3.80137         6.76186        0.677804 
        3.81707         6.69485        0.670807 
        3.83279         6.69588        0.663904 
        3.84853         6.61263        0.657087 
        3.86424         6.54809        0.650379 
        3.87992         6.51927        0.643774 
        3.89561         6.47204        0.637261 
        3.91134         6.42096        0.630824 
        3.92704         6.38437        0.624484 
        3.94273         6.33512        0.618237 
        3.95845         6.29658        0.612064 
        3.97418         6.26676        0.605974 
        3.98988         6.20957        0.599975 
        4.00554         6.16523        0.594074 
        4.02125         6.10875        0.588235 
        4.03698         6.08241        0.582466 
        4.05268         6.04754        0.576787 
        4.06839         6.00511        0.571179 
         4.0841         5.96146        0.565648 
        4.09983         5.91688        0.560182 
        4.11555         5.87637         0.55479 
        4.13124         5.83816        0.549485 
        4.14693         5.77324        0.544244 
        4.16266         5.73265        0.539059 
        4.17839          5.6977        0.533945 
        4.19408         5.65291        0.528909 
        4.20977         5.61727        0.523936 
        4.22551         5.57133        0.519014 
        4.24123         5.53576        0.514161 
        4.25691         5.50625        0.509383 
        4.27259         5.46594        0.504664 
        4.28831         5.42595        0.499996 
        4.30404         5.38187        0.495382 
        4.31974         5.35767        0.490836 
        4.33543         5.31558         0.48635 
        4.35116         5.27922         0.48191 
        4.36688          5.2283        0.477526 
        4.38255         5.18956        0.473213 
        4.39825         5.17547        0.468944 
        4.41398          5.1326        0.464719 
         4.4297         5.10945        0.460551 
        4.44541         5.06227        0.456435 
        4.46111         5.04531        0.452372 
        4.47683         4.98073        0.448355 
        4.49251         4.96358        0.444395 
        4.50819         4.92593        0.440485 
         4.5239         4.89541        0.436615 
        4.53962         4.87346        0.432787 
        4.55535         4.83331        0.429004 
        4.57106          4.8056        0.425271 
        4.58678         4.77264        0.421581 
         4.6025         4.73718        0.417935 
        4.61821         4.70559        0.414332 
        4.63391         4.68358        0.410776 
         4.6496         4.64307        0.407263 
        4.66532         4.62392        0.403786 
        4.68103         4.57769        0.400352 
        4.69673         4.55681         0.39696 
        4.71241         4.52207        0.393611 
        4.72811         4.50298        0.390295 
        4.74384         4.47835        0.387013 
        4.75955         4.43459        0.383774 
        4.77525         4.40351        0.380573 
        4.79096         4.37761        0.377405 
        4.80669         4.34125        0.374272 
         4.8224         4.32775        0.371178 
        4.83809         4.29629        0.368122 
        4.85379         4.26366        0.365098 
         4.8695         4.23764        0.362106 
        4.88521         4.21629        0.359149 
        4.90093         4.19633        0.356224 
        4.91663         4.15736        0.353335 
        4.93234         4.13747        0.350474 
        4.94807         4.11612        0.347643 
        4.96377          4.0744        0.344849 
        4.97943         4.05448        0.342091 
        4.99514         4.02871        0.339357 
        5.01086         4.00493         0.33665 
        5.02654          3.9796        0.333979 
        5.04227         3.95432         0.33133 
          5.058         3.93099        0.328708 
        5.07371         3.90346         0.32612 
        5.08942         3.88289        0.323559 
        5.10513         3.86108        0.321025 
        5.12084          3.8359        0.318517 
        5.13656         3.81974        0.316037 
        5.15225          3.7972        0.313587 
        5.16796         3.76372        0.311159 
        5.18369         3.74006        0.308754 
         5.1994         3.71718         0.30638 
        5.21509          3.7011        0.304032 
        5.23079         3.67199        0.301706 
        5.24649         3.64932        0.299407 
        5.26217         3.63243        0.297133 
        5.27788         3.60154        0.294879 
        5.29359         3.57703        0.292648 
        5.30933         3.56666        0.290437 
        5.32504         3.54337        0.288253 
        5.34073          3.5162        0.286093 
        5.35646         3.50124        0.283952 
        5.37218         3.47642        0.281831 
        5.38789         3.46126        0.279736 
        5.40357         3.44007        0.277665 
        5.41929         3.41134        0.275609 
        5.43502         3.39694        0.273575 
         5.4507          3.3795        0.271566 
        5.46639         3.35178        0.269576 
        5.48212         3.34023        0.267602 
        5.49786         3.31906        0.265645 
        5.51353         3.29444        0.263718 
        5.52921         3.27304        0.261808 
        5.54495         3.25468        0.259911 
        5.56066         3.23829        0.258035 
        5.57637         3.22496        0.256177 
        5.59207         3.20553         0.25434 
        5.60778         3.18749         0.25252 
        5.62346         3.16302         0.25072 
        5.63916           3.147        0.248936 
        5.65487         3.12976        0.247169 
         5.6706          3.1098        0.245416 
        5.68633         3.09036         0.24368 
        5.70203         3.07867        0.241964 
        5.71773         3.05895        0.240265 
        5.73344         3.04009        0.238582 
        5.74916         3.02163        0.236913 
        5.76486         3.00748        0.235262 
        5.78054         2.98259        0.233629 
        5.79626         2.97166        0.232008 
          5.812         2.95968          0.2304 
         5.8277         2.94255        0.228812 
        5.84339         2.92143        0.227239 
        5.85911         2.90672        0.225678 
        5.87484         2.89763        0.224132 
        5.89053         2.86898        0.222603 
        5.90623         2.85542        0.221088 
        5.92195          2.8432        0.219584 
        5.93767         2.82665        0.218095 
        5.95336         2.81073        0.216622 
        5.96905         2.79495        0.215164 
        5.98476         2.78368        0.213717 
        6.00048          2.7682        0.212282 
        6.01617         2.74746        0.210863 
        6.03185         2.73485        0.209458 
        6.04756          2.7185        0.208063 
        6.06331         2.70158        0.206678 
        6.07903         2.68764        0.205308 
        6.09473          2.6785        0.203952 
        6.11044          2.6583        0.202607 
        6.12616         2.64742        0.201274 
        6.14186         2.62913        0.199954 
        6.15755         2.61706        0.198646 
        6.17326         2.60467        0.197349 
        6.18898         2.58869        0.196063 
        6.20467         2.57819        0.194791 
        6.22036         2.56226         0.19353 
         6.2361         2.54688        0.192277 
         6.2518         2.53709        0.191037 
        6.26748         2.52323        0.189811 
        6.28319         2.50562        0.188592 
        6.29893         2.49938        0.187382 
        6.31463         2.48259        0.186186 
        6.33033         2.46967           0.185 
        6.34604         2.45516        0.183823 
        6.36177         2.44605        0.182656 
        6.37747         2.43339        0.181501 
