# k  (h/Mpc)    Pcb(k)  (Mpc/h)^3    Pcb_linear(k) (Mpc/h)^3   ShotnoiseSubtracted = true
      0.0200456         8233.73         8349.79 
      0.0350414         6214.24         6070.02 
      0.0492313         4387.24         4410.36 
      0.0637834         3558.89         3666.29 
      0.0800726         2807.78         2909.84 
       0.096163         2177.58         2111.35 
       0.111083         1765.55         1684.06 
       0.126058         1481.06         1492.42 
       0.142273         1269.02         1264.41 
       0.158546         1039.07         998.619 
        0.17375         902.563         841.336 
       0.188953         828.116         761.811 
       0.204907         705.346         674.047 
       0.220756         629.965         570.285 
        0.23588          557.34         496.098 
         0.2514         499.457           450.7 
       0.267535          480.25         407.806 
       0.283568         418.538          359.63 
       0.299022         395.856         320.412 
       0.314451          390.98         292.835 
       0.330372         337.512         268.643 
       0.346141          312.54         243.835 
       0.361624          296.19         221.612 
       0.377134         273.092         203.918 
       0.392932         265.941         188.682 
       0.408854          251.55         173.928 
       0.424564         241.129         160.312 
       0.440253         217.664         148.628 
       0.455999         205.999         138.468 
       0.471626         202.527         129.131 
        0.48727         194.079         120.397 
       0.502856         177.094         112.551 
       0.518488         176.006          105.55 
       0.534347         164.105         99.0414 
       0.550082          160.33         93.0404 
       0.565732          157.73         87.5503 
       0.581496         145.922          82.522 
       0.597222         142.767         77.9106 
       0.612804         138.114         73.6702 
       0.628434         134.161         69.7178 
       0.644267         127.395         66.0227 
       0.660051         123.727          62.617 
       0.675724         122.046         59.4723 
       0.691403         119.058         56.5409 
       0.707174         114.903         53.7906 
       0.722871         112.875         51.2342 
        0.73838         110.335         48.8712 
       0.754018         103.637         46.6394 
       0.769845         103.202         44.5228 
        0.78569         100.302         42.5357 
       0.801365          97.175         40.6897 
       0.817031         94.1087          38.955 
       0.832809         92.4697         37.3108 
       0.848511         90.3697         35.7694 
       0.864097         88.7794          34.326 
       0.879701         87.2064         32.9614 
       0.895507         83.9764         31.6551 
       0.911279          82.683         30.4227 
        0.92691         80.4074         29.2664 
       0.942635         78.6731         28.1641 
       0.958396         78.3829         27.1165 
       0.974128         76.5329         26.1243 
       0.989692         74.7917         25.1918 
        1.00528         73.4147         24.3036 
        1.02113         71.6922         23.4445 
        1.03692         71.5734         22.6302 
        1.05264         70.2478         21.8586 
        1.06832         68.0126         21.1242 
        1.08405         67.3036         20.4218 
        1.09979         66.7671          19.751 
        1.11537         64.9676         19.1172 
        1.13105         63.6757         18.5074 
        1.14679         62.9479          17.922 
        1.16256         61.8139         17.3609 
        1.17828          61.264         16.8258 
        1.19395         59.5899         16.3151 
         1.2097         59.7751          15.823 
        1.22537         58.2739         15.3538 
          1.241          57.822          14.905 
        1.25666         56.0753         14.4731 
        1.27241          56.019         14.0563 
        1.28819         55.1992         13.6554 
        1.30392         54.1997         13.2712 
        1.31957         53.9235         12.9036 
        1.33529         53.0295         12.5487 
        1.35108         52.2339         12.2057 
        1.36674         51.4602          11.878 
         1.3824         50.7486         11.5627 
        1.39811         49.9392         11.2578 
        1.41389           49.21         10.9628 
        1.42964         48.8777         10.6789 
        1.44531         47.9652         10.4065 
        1.46101         47.6557          10.143 
        1.47667         46.9449         9.88941 
        1.49229         46.2906         9.64522 
        1.50793         45.8659         9.40902 
        1.52367         45.2523         9.17923 
        1.53953          44.846         8.95559 
        1.55526         44.1217         8.74121 
        1.57092         43.7262         8.53474 
        1.58662         43.1407         8.33447 
        1.60235         42.5793         8.14026 
        1.61809         42.0063         7.95215 
        1.63369          41.493         7.77167 
        1.64941           41.08         7.59551 
        1.66519         40.3943         7.42419 
        1.68085         40.0252         7.25938 
        1.69652         39.4093         7.09954 
        1.71228         39.2565         6.94361 
        1.72806         38.6342         6.79225 
        1.74368         38.1345         6.64693 
        1.75933          37.925         6.50559 
        1.77505         37.6062         6.36769 
        1.79081         37.1001         6.23356 
         1.8065         36.5218         6.10387 
        1.82218         35.9588           5.978 
        1.83797         35.7536         5.85482 
        1.85367         35.2891         5.73579 
        1.86928         35.3003          5.6208 
        1.88497         34.5059         5.50833 
        1.90073         34.2819         5.39854 
        1.91647         34.0808         5.29183 
        1.93218         33.9075         5.18825 
        1.94787         33.3848         5.08759 
        1.96363          32.813         4.98921 
        1.97935         32.6521         4.89363 
        1.99499         32.3449         4.80111 
        2.01064           31.85         4.71084 
         2.0264         31.5984         4.62234 
        2.04216         31.4036         4.53615 
        2.05781         31.0347         4.45271 
        2.07353         30.6631         4.37107 
        2.08928         30.4369          4.2913 
        2.10499         30.1496         4.21374 
        2.12065         29.7752         4.13833 
        2.13633         29.5796         4.06471 
        2.15211         29.0621          3.9924 
        2.16785          28.855         3.92205 
        2.18349         28.5847         3.85385 
        2.19916         28.2958         3.78712 
        2.21489         28.0307         3.72175 
        2.23063         27.8608         3.65789 
         2.2463         27.5847         3.59581 
        2.26194         27.2365         3.53533 
        2.27765         26.9608         3.47593 
        2.29341         26.6596         3.41774 
        2.30914          26.413         3.36101 
        2.32486         26.1804         3.30559 
        2.34061         25.9556         3.25134 
        2.35635         25.6385         3.19835 
        2.37203         25.4595         3.14673 
        2.38768         25.2415         3.09635 
        2.40339         25.0863          3.0469 
        2.41914         24.7774         2.99841 
        2.43483          24.689         2.95115 
         2.4505         24.2282         2.90498 
        2.46622         23.9981         2.85965 
        2.48195         23.8201         2.81528 
        2.49759         23.4893         2.77209 
        2.51328         23.3747          2.7297 
        2.52906         23.2018         2.68792 
        2.54479         22.9542         2.64718 
        2.56049         22.8872         2.60735 
        2.57618         22.6278         2.56839 
        2.59189          22.279         2.53016 
        2.60758         22.1297         2.49277 
        2.62325         21.8993         2.45618 
        2.63898         21.7764         2.42019 
        2.65468         21.5792         2.38501 
        2.67044         21.3122         2.35037 
        2.68618         21.0838         2.31651 
        2.70184         20.8958         2.28344 
        2.71755         20.7074         2.25094 
        2.73329         20.5183         2.21902 
        2.74897         20.3939         2.18782 
        2.76462         20.2452          2.1573 
        2.78034          19.919         2.12723 
        2.79607         19.7759          2.0977 
        2.81179         19.6336         2.06876 
        2.82749         19.4237         2.04041 
        2.84321          19.318         2.01255 
        2.85893          19.074         1.98523 
        2.87462         18.9412         1.95845 
        2.89033         18.8052         1.93215 
        2.90605         18.5582         1.90631 
        2.92176         18.3497         1.88095 
        2.93747         18.2609         1.85607 
        2.95318         18.1257         1.83163 
        2.96891         17.8891         1.80762 
        2.98456         17.8455         1.78415 
        3.00023         17.5917         1.76106 
        3.01596          17.425          1.7383 
        3.03164          17.297         1.71602 
        3.04738         17.1534         1.69406 
         3.0631         17.0288         1.67249 
        3.07883         16.8728          1.6513 
        3.09456         16.7312         1.63047 
        3.11026         16.5859         1.61004 
        3.12596         16.4182         1.58996 
        3.14163          16.282         1.57027 
        3.15734         16.1516         1.55087 
        3.17308         16.0459         1.53174 
        3.18879          15.804           1.513 
        3.20447         15.7746         1.49459 
         3.2202         15.5951         1.47643 
         3.2359         15.4774         1.45861 
        3.25157         15.3772         1.44112 
        3.26729         15.1954         1.42387 
        3.28304         15.1204         1.40687 
        3.29877         15.0558         1.39016 
        3.31446         14.8565         1.37376 
        3.33014         14.7227         1.35765 
        3.34585         14.6023         1.34176 
        3.36158         14.4746         1.32611 
        3.37727         14.3436         1.31075 
        3.39294         14.2348         1.29566 
        3.40867         14.0966         1.28074 
        3.42439         14.0044         1.26607 
        3.44008         13.8877         1.25166 
        3.45578         13.7379         1.23746 
        3.47153         13.6504         1.22345 
        3.48724         13.5694         1.20968 
        3.50292          13.459         1.19615 
        3.51859         13.3314         1.18284 
        3.53431         13.1864         1.16969 
        3.55007          13.101         1.15671 
        3.56577         13.0001         1.14397 
        3.58146         12.8633         1.13143 
        3.59719         12.7736         1.11906 
        3.61292         12.6738         1.10687 
        3.62859         12.5585          1.0949 
        3.64429         12.4692          1.0831 
        3.66003          12.355         1.07143 
        3.67578         12.2702         1.05993 
        3.69146         12.1731         1.04865 
        3.70712         12.0274         1.03755 
        3.72284         11.9549         1.02657 
        3.73853         11.8672         1.01577 
        3.75422          11.741         1.00513 
        3.76993         11.6511         0.99462 
        3.78564         11.5823        0.984269 
        3.80137          11.479        0.974049 
        3.81707         11.3844        0.963995 
        3.83279         11.3275        0.954074 
        3.84853         11.2024        0.944277 
        3.86424         11.1029        0.934637 
        3.87992         11.0285        0.925146 
        3.89561         10.9515        0.915786 
        3.91134          10.861        0.906536 
        3.92704         10.7872        0.897425 
        3.94273         10.6876        0.888448 
        3.95845         10.5772        0.879577 
        3.97418         10.5001        0.870825 
        3.98988          10.469        0.862204 
        4.00554         10.3493        0.853724 
        4.02125         10.2756        0.845333 
        4.03698         10.1927        0.837042 
        4.05268         10.1401        0.828881 
        4.06839         10.0221        0.820822 
         4.0841         9.94517        0.812873 
        4.09983         9.87119        0.805019 
        4.11555         9.77256        0.797271 
        4.13124         9.71422        0.789646 
        4.14693         9.61399        0.782114 
        4.16266         9.56157        0.774664 
        4.17839         9.46673        0.767315 
        4.19408         9.42165        0.760077 
        4.20977         9.30846         0.75293 
        4.22551         9.26303        0.745858 
        4.24123          9.2004        0.738883 
        4.25691          9.1171        0.732017 
        4.27259         9.03846        0.725236 
        4.28831         8.95848        0.718527 
        4.30404         8.94137        0.711897 
        4.31974         8.83313        0.705365 
        4.33543         8.78791        0.698918 
        4.35116         8.67807        0.692536 
        4.36688          8.6357        0.686236 
        4.38255         8.58626        0.680039 
        4.39825         8.48187        0.673904 
        4.41398         8.42851        0.667832 
         4.4297         8.36685        0.661842 
        4.44541         8.31107        0.655927 
        4.46111          8.2408        0.650088 
        4.47683         8.21285        0.644316 
        4.49251         8.11269        0.638626 
        4.50819         8.06579        0.633006 
         4.5239         7.99825        0.627445 
        4.53962         7.93309        0.621944 
        4.55535         7.88136        0.616507 
        4.57106          7.8323        0.611142 
        4.58678         7.78212         0.60584 
         4.6025         7.70653          0.6006 
        4.61821         7.64483        0.595422 
        4.63391         7.60689        0.590312 
         4.6496         7.54623        0.585264 
        4.66532         7.49458        0.580268 
        4.68103         7.42601        0.575332 
        4.69673         7.38398        0.570458 
        4.71241         7.31394        0.565645 
        4.72811         7.25923        0.560879 
        4.74384         7.24456        0.556163 
        4.75955         7.18042        0.551508 
        4.77525         7.13555        0.546909 
        4.79096         7.09311        0.542356 
        4.80669         7.01951        0.537853 
         4.8224         6.96481        0.533407 
        4.83809         6.92315        0.529015 
        4.85379         6.86354         0.52467 
         4.8695         6.84271         0.52037 
        4.88521         6.76229        0.516121 
        4.90093         6.72611        0.511918 
        4.91663         6.67684        0.507765 
        4.93234         6.62638        0.503654 
        4.94807         6.56849        0.499586 
        4.96377         6.53492        0.495571 
        4.97943         6.47081        0.491608 
        4.99514         6.44503        0.487678 
        5.01086         6.39787        0.483788 
        5.02654         6.35197         0.47995 
        5.04227         6.31207        0.476143 
          5.058         6.24602        0.472375 
        5.07371         6.23726        0.468656 
        5.08942         6.17381        0.464975 
        5.10513         6.13669        0.461334 
        5.12084         6.08412        0.457731 
        5.13656          6.0402        0.454166 
        5.15225         5.98641        0.450645 
        5.16796         5.96096        0.447156 
        5.18369         5.91518        0.443701 
         5.1994         5.86865        0.440288 
        5.21509         5.83836        0.436914 
        5.23079         5.80484        0.433572 
        5.24649          5.7407        0.430267 
        5.26217         5.72818        0.426999 
        5.27788         5.67428        0.423761 
        5.29359         5.64532        0.420555 
        5.30933         5.60587        0.417378 
        5.32504         5.56755        0.414238 
        5.34073         5.52633        0.411135 
        5.35646         5.48223        0.408057 
        5.37218         5.45164         0.40501 
        5.38789         5.41877        0.401999 
        5.40357         5.37355        0.399022 
        5.41929         5.32977        0.396069 
        5.43502         5.29695        0.393145 
         5.4507         5.27241        0.390258 
        5.46639         5.22908        0.387399 
        5.48212         5.21078        0.384562 
        5.49786          5.1762         0.38175 
        5.51353         5.14286         0.37898 
        5.52921          5.0954        0.376235 
        5.54495         5.06213        0.373509 
        5.56066         5.02985        0.370813 
        5.57637         4.99313        0.368144 
        5.59207         4.96561        0.365503 
        5.60778         4.92741        0.362888 
        5.62346         4.89219        0.360301 
        5.63916         4.86306        0.357738 
        5.65487         4.83625        0.355198 
         5.6706         4.80663        0.352679 
        5.68633         4.77314        0.350184 
        5.70203         4.73151        0.347719 
        5.71773         4.71481        0.345277 
        5.73344         4.67501        0.342858 
        5.74916         4.65049        0.340459 
        5.76486         4.62269        0.338087 
        5.78054         4.59912        0.335741 
        5.79626         4.55371        0.333411 
          5.812         4.53138          0.3311 
         5.8277         4.50911        0.328818 
        5.84339         4.47642        0.326558 
        5.85911         4.44682        0.324314 
        5.87484         4.40999        0.322092 
        5.89053         4.39375        0.319895 
        5.90623         4.36679        0.317718 
        5.92195         4.34269        0.315557 
        5.93767         4.30723        0.313417 
        5.95336         4.29144        0.311301 
        5.96905         4.25887        0.309205 
        5.98476         4.23563        0.307125 
        6.00048         4.20215        0.305064 
        6.01617         4.17193        0.303024 
        6.03185         4.14546        0.301006 
        6.04756         4.11883        0.299001 
        6.06331         4.10202         0.29701 
        6.07903          4.0778        0.295041 
        6.09473         4.04758        0.293092 
        6.11044         4.01749        0.291159 
        6.12616         4.00764        0.289244 
        6.14186          3.9749        0.287347 
        6.15755         3.94999        0.285468 
        6.17326         3.92789        0.283604 
        6.18898         3.89849        0.281756 
        6.20467         3.87682        0.279928 
        6.22036         3.85254        0.278116 
         6.2361         3.82818        0.276315 
         6.2518         3.80874        0.274533 
        6.26748         3.78812         0.27277 
        6.28319         3.76703        0.271019 
        6.29893         3.74075        0.269281 
        6.31463         3.71883        0.267561 
        6.33033         3.70234        0.265857 
        6.34604         3.67622        0.264166 
        6.36177          3.6537        0.262489 
        6.37747         3.63734        0.260829 
