# k  (h/Mpc)    Pcb(k)  (Mpc/h)^3    Pcb_linear(k) (Mpc/h)^3   ShotnoiseSubtracted = true
      0.0200456         19031.6         19462.5 
      0.0350414         13549.7         14148.6 
      0.0492313         10092.4         10280.1 
      0.0637834         8714.43         8545.74 
      0.0800726         6880.58         6782.54 
       0.096163         4776.04         4921.32 
       0.111083         3828.43         3925.37 
       0.126058          3528.9         3478.68 
       0.142273         3054.86         2947.21 
       0.158546         2648.13         2327.68 
        0.17375          2117.1         1961.07 
       0.188953         2066.69          1775.7 
       0.204907         1943.01         1571.13 
       0.220756          1678.4         1329.27 
        0.23588         1494.76         1156.35 
         0.2514         1300.38         1050.53 
       0.267535            1296         950.554 
       0.283568          1175.2         838.261 
       0.299022         1109.19         746.847 
       0.314451         1056.94         682.567 
       0.330372         971.702         626.179 
       0.346141         917.389         568.353 
       0.361624         882.052         516.555 
       0.377134           820.1         475.312 
       0.392932         789.068         439.797 
       0.408854         769.579         405.408 
       0.424564         715.755          373.67 
       0.440253         703.963         346.435 
       0.455999         672.213         322.754 
       0.471626         644.851         300.991 
        0.48727         619.467         280.633 
       0.502856         603.044         262.344 
       0.518488          596.38         246.025 
       0.534347         557.923         230.855 
       0.550082         540.263         216.867 
       0.565732         539.602          204.07 
       0.581496         508.034          192.35 
       0.597222         500.031         181.601 
       0.612804         488.572         171.717 
       0.628434         473.222         162.505 
       0.644267         461.025         153.892 
       0.660051          446.72         145.954 
       0.675724         442.816         138.624 
       0.691403         428.349         131.791 
       0.707174         414.095          125.38 
       0.722871         409.616         119.421 
        0.73838         403.244         113.914 
       0.754018         392.397         108.712 
       0.769845         383.624         103.778 
        0.78569         379.635         99.1463 
       0.801365          368.87         94.8434 
       0.817031         357.413         90.7999 
       0.832809         355.457         86.9675 
       0.848511          346.62         83.3746 
       0.864097         338.696         80.0104 
       0.879701         334.353         76.8295 
       0.895507         329.827         73.7847 
       0.911279          319.29         70.9121 
        0.92691         316.381         68.2169 
       0.942635          309.21         65.6476 
       0.958396         302.752         63.2057 
       0.974128         297.794          60.893 
       0.989692         294.376         58.7194 
        1.00528         288.515         56.6491 
        1.02113         286.413         54.6466 
        1.03692         278.928         52.7487 
        1.05264         276.266           50.95 
        1.06832         269.773         49.2383 
        1.08405         265.381         47.6011 
        1.09979         260.587         46.0376 
        1.11537         256.794         44.5601 
        1.13105          251.09         43.1389 
        1.14679         248.666         41.7744 
        1.16256         244.061         40.4665 
        1.17828         241.134         39.2191 
        1.19395         236.029         38.0287 
         1.2097         235.381         36.8819 
        1.22537         229.811          35.788 
          1.241         228.616         34.7419 
        1.25666         223.575         33.7352 
        1.27241          220.76         32.7639 
        1.28819         217.903         31.8292 
        1.30392         212.786         30.9339 
        1.31957         213.269          30.077 
        1.33529         208.501         29.2496 
        1.35108         203.873         28.4502 
        1.36674         203.044         27.6864 
         1.3824         200.932         26.9515 
        1.39811         198.679         26.2408 
        1.41389         194.818         25.5532 
        1.42964         192.572         24.8914 
        1.44531         189.876         24.2564 
        1.46101         187.658         23.6422 
        1.47667         184.061         23.0512 
        1.49229         182.404          22.482 
        1.50793         179.044         21.9314 
        1.52367         177.796         21.3958 
        1.53953          174.84         20.8745 
        1.55526         171.355         20.3748 
        1.57092         170.352         19.8936 
        1.58662         168.108         19.4268 
        1.60235         165.346         18.9741 
        1.61809         164.418         18.5356 
        1.63369         160.987         18.1149 
        1.64941         158.028         17.7043 
        1.66519         157.238          17.305 
        1.68085         155.587         16.9209 
        1.69652         153.172         16.5483 
        1.71228         150.473         16.1848 
        1.72806         148.814          15.832 
        1.74368         147.672         15.4933 
        1.75933         144.951         15.1638 
        1.77505         143.588         14.8424 
        1.79081         142.553         14.5298 
         1.8065         140.693         14.2275 
        1.82218         137.978         13.9341 
        1.83797         137.049          13.647 
        1.85367          135.29         13.3695 
        1.86928         132.999         13.1015 
        1.88497         131.036         12.8393 
        1.90073         129.839         12.5834 
        1.91647         128.295         12.3347 
        1.93218         126.713         12.0933 
        1.94787         125.066         11.8586 
        1.96363         123.335         11.6293 
        1.97935         121.539         11.4065 
        1.99499         120.008         11.1909 
        2.01064         118.757         10.9805 
         2.0264         117.064         10.7742 
        2.04216         115.902         10.5733 
        2.05781         114.827         10.3788 
        2.07353         113.813         10.1885 
        2.08928         111.312         10.0026 
        2.10499         109.943         9.82178 
        2.12065         108.779         9.64601 
        2.13633         108.156          9.4744 
        2.15211         106.079         9.30586 
        2.16785         104.528         9.14189 
        2.18349         103.711         8.98291 
        2.19916          102.62         8.82738 
        2.21489         101.349         8.67502 
        2.23063         99.8577         8.52615 
         2.2463         98.6869         8.38145 
        2.26194         97.9754         8.24048 
        2.27765         96.5598         8.10202 
        2.29341         95.6739          7.9664 
        2.30914         94.4067         7.83415 
        2.32486         93.6641         7.70499 
        2.34061         92.3271         7.57853 
        2.35635         90.7729         7.45502 
        2.37203         89.7537         7.33469 
        2.38768         88.9856         7.21727 
        2.40339         88.0279         7.10199 
        2.41914            86.7         6.98897 
        2.43483         85.8199         6.87881 
         2.4505         84.8297         6.77121 
        2.46622         83.5993         6.66554 
        2.48195          82.784         6.56213 
        2.49759         81.8528         6.46146 
        2.51328         81.2615         6.36264 
        2.52906         79.9255         6.26526 
        2.54479         79.2218         6.17029 
        2.56049          78.406         6.07747 
        2.57618         77.6276         5.98664 
        2.59189         76.5713         5.89753 
        2.60758         75.8556         5.81038 
        2.62325          74.853         5.72509 
        2.63898         74.0284         5.64122 
        2.65468         73.1418          5.5592 
        2.67044         72.3605         5.47847 
        2.68618         71.6565         5.39953 
        2.70184         71.2526         5.32246 
        2.71755         70.3111          5.2467 
        2.73329         69.5131          5.1723 
        2.74897         68.7496         5.09958 
        2.76462         67.9749         5.02843 
        2.78034         67.1968         4.95834 
        2.79607         66.2094         4.88951 
        2.81179         65.7764         4.82207 
        2.82749         64.9225         4.75598 
        2.84321         64.4361         4.69105 
        2.85893         63.6101         4.62735 
        2.87462         62.8926         4.56495 
        2.89033         62.2709         4.50364 
        2.90605          61.454          4.4434 
        2.92176          61.152         4.38429 
        2.93747         60.6248         4.32629 
        2.95318         59.8331         4.26933 
        2.96891         59.1542         4.21337 
        2.98456         58.5722         4.15866 
        3.00023         57.7235         4.10484 
        3.01596         57.2603          4.0518 
        3.03164         56.5877         3.99986 
        3.04738         56.0243         3.94867 
         3.0631         55.4717          3.8984 
        3.07883         54.8419           3.849 
        3.09456         54.4492         3.80046 
        3.11026         53.6502         3.75284 
        3.12596         53.1838         3.70603 
        3.14163         52.6399         3.66013 
        3.15734         52.2888         3.61491 
        3.17308         51.6629         3.57033 
        3.18879         51.2683         3.52664 
        3.20447         50.2987         3.48373 
         3.2202         50.2207         3.44141 
         3.2359          49.661         3.39987 
        3.25157         49.1381         3.35911 
        3.26729         48.7279         3.31889 
        3.28304         48.1837         3.27925 
        3.29877         47.7305         3.24032 
        3.31446         47.0764          3.2021 
        3.33014         46.7792         3.16453 
        3.34585         46.5895         3.12751 
        3.36158         46.0015         3.09102 
        3.37727         45.4326         3.05523 
        3.39294         45.0468         3.02004 
        3.40867         44.5342         2.98527 
        3.42439         44.0165         2.95107 
        3.44008         43.6385         2.91748 
        3.45578         43.2042         2.88438 
        3.47153          42.781         2.85172 
        3.48724         42.4862         2.81963 
        3.50292          42.137          2.7881 
        3.51859         41.5855         2.75708 
        3.53431         41.1357         2.72642 
        3.55007         40.7172         2.69616 
        3.56577         40.4046         2.66648 
        3.58146         39.9983         2.63725 
        3.59719         39.5848          2.6084 
        3.61292          39.268         2.57999 
        3.62859         38.9691         2.55211 
        3.64429         38.6166         2.52458 
        3.66003         38.1586         2.49738 
        3.67578         37.7154         2.47059 
        3.69146         37.4627         2.44429 
        3.70712          37.128         2.41843 
        3.72284         36.7538         2.39284 
        3.73853          36.432         2.36766 
        3.75422         36.0903         2.34284 
        3.76993          35.849         2.31836 
        3.78564         35.4799         2.29423 
        3.80137         35.1004         2.27041 
        3.81707         34.7461         2.24697 
        3.83279         34.5331         2.22385 
        3.84853         34.2521         2.20101 
        3.86424         33.7773         2.17854 
        3.87992         33.5953         2.15642 
        3.89561         33.2708          2.1346 
        3.91134         32.8908         2.11304 
        3.92704         32.6981          2.0918 
        3.94273         32.3002         2.07088 
        3.95845         32.0519          2.0502 
        3.97418         31.8005          2.0298 
        3.98988         31.4789         2.00971 
        4.00554         31.1395         1.98994 
        4.02125         30.9793         1.97038 
        4.03698         30.6534         1.95106 
        4.05268         30.5046         1.93203 
        4.06839         30.1439         1.91325 
         4.0841         29.9252         1.89472 
        4.09983         29.5601         1.87641 
        4.11555         29.3397         1.85835 
        4.13124         29.1127         1.84058 
        4.14693         28.8445         1.82303 
        4.16266         28.6036         1.80566 
        4.17839         28.3134         1.78853 
        4.19408         28.0654         1.77166 
        4.20977         27.8436           1.755 
        4.22551         27.6554         1.73852 
        4.24123         27.4021         1.72226 
        4.25691         27.1655         1.70626 
        4.27259         26.9928         1.69045 
        4.28831         26.6436         1.67481 
        4.30404         26.5049         1.65936 
        4.31974         26.2717         1.64413 
        4.33543         26.0275          1.6291 
        4.35116         25.9187         1.61423 
        4.36688         25.6363         1.59954 
        4.38255          25.376          1.5851 
        4.39825         25.1793          1.5708 
        4.41398         24.8887         1.55665 
         4.4297         24.7153         1.54268 
        4.44541         24.5781          1.5289 
        4.46111         24.3704         1.51529 
        4.47683         24.1651         1.50183 
        4.49251         23.9593         1.48857 
        4.50819         23.7229         1.47547 
         4.5239         23.5784         1.46251 
        4.53962         23.3606         1.44969 
        4.55535         23.2326         1.43701 
        4.57106         22.9786         1.42451 
        4.58678         22.8315         1.41215 
         4.6025         22.6566         1.39993 
        4.61821         22.5024         1.38787 
        4.63391         22.2251         1.37596 
         4.6496          22.093         1.36419 
        4.66532          21.926         1.35254 
        4.68103         21.7331         1.34104 
        4.69673         21.5506         1.32968 
        4.71241         21.3732         1.31846 
        4.72811         21.2075         1.30735 
        4.74384         21.0539         1.29636 
        4.75955         20.8836         1.28551 
        4.77525         20.6938         1.27479 
        4.79096         20.5684         1.26418 
        4.80669          20.381         1.25368 
         4.8224         20.1855         1.24331 
        4.83809         20.0622         1.23308 
        4.85379         19.8493         1.22295 
         4.8695         19.7653         1.21293 
        4.88521         19.6013         1.20302 
        4.90093         19.4463         1.19323 
        4.91663         19.2739         1.18355 
        4.93234         19.1454         1.17397 
        4.94807         18.9743         1.16448 
        4.96377         18.8492         1.15512 
        4.97943         18.7228         1.14589 
        4.99514         18.5826         1.13673 
        5.01086         18.4288         1.12766 
        5.02654         18.2742         1.11871 
        5.04227         18.1436         1.10984 
          5.058         18.0043         1.10106 
        5.07371         17.8698         1.09239 
        5.08942         17.7444         1.08381 
        5.10513         17.6434         1.07532 
        5.12084         17.4895         1.06692 
        5.13656         17.2956         1.05861 
        5.15225          17.217         1.05041 
        5.16796            17.1         1.04227 
        5.18369         16.9742         1.03422 
         5.1994         16.8406         1.02626 
        5.21509         16.7129          1.0184 
        5.23079         16.5947         1.01061 
        5.24649         16.4714         1.00291 
        5.26217         16.3416         0.99529 
        5.27788         16.2208        0.987741 
        5.29359         16.0789        0.980269 
        5.30933         15.9645        0.972863 
        5.32504         15.8546        0.965546 
        5.34073         15.7392        0.958312 
        5.35646         15.6555        0.951138 
        5.37218         15.5196        0.944036 
        5.38789         15.3945        0.937018 
        5.40357         15.3047        0.930079 
        5.41929         15.1724        0.923195 
        5.43502          15.045         0.91638 
         5.4507          14.954         0.90965 
        5.46639         14.8475        0.902986 
        5.48212         14.7112        0.896374 
        5.49786         14.6786        0.889819 
        5.51353         14.5238        0.883363 
        5.52921         14.4455        0.876965 
        5.54495         14.3373         0.87061 
        5.56066         14.2334        0.864326 
        5.57637         14.1261        0.858105 
        5.59207         14.0273         0.85195 
        5.60778         13.9211        0.845853 
        5.62346         13.8336        0.839825 
        5.63916          13.701        0.833849 
        5.65487         13.6352        0.827928 
         5.6706         13.5111        0.822058 
        5.68633         13.4087        0.816243 
        5.70203         13.3632        0.810495 
        5.71773          13.239        0.804805 
        5.73344         13.1526        0.799165 
        5.74916         13.0759        0.793575 
        5.76486         12.9698        0.788045 
        5.78054         12.8779        0.782577 
        5.79626         12.7555        0.777145 
          5.812         12.7088        0.771759 
         5.8277         12.6058         0.76644 
        5.84339         12.5107        0.761171 
        5.85911         12.4125        0.755942 
        5.87484         12.3323        0.750762 
        5.89053         12.2607        0.745642 
        5.90623          12.165        0.740566 
        5.92195          12.084        0.735529 
        5.93767         11.9945        0.730542 
        5.95336          11.936        0.725609 
        5.96905         11.8351        0.720723 
        5.98476         11.7778        0.715876 
        6.00048         11.6679        0.711071 
        6.01617         11.6156        0.706317 
        6.03185         11.5337        0.701613 
        6.04756         11.4377        0.696939 
        6.06331         11.3661        0.692299 
        6.07903         11.2954         0.68771 
        6.09473         11.2132        0.683167 
        6.11044          11.158        0.678661 
        6.12616         11.0721        0.674196 
        6.14186         10.9906        0.669776 
        6.15755         10.9127        0.665396 
        6.17326         10.8479        0.661051 
        6.18898          10.787        0.656744 
        6.20467         10.6919        0.652482 
        6.22036         10.6327        0.648258 
         6.2361         10.5551        0.644061 
         6.2518         10.4801        0.639907 
        6.26748         10.4164        0.635799 
        6.28319         10.3618        0.631716 
        6.29893         10.2924        0.627665 
        6.31463         10.2003        0.623656 
        6.33033         10.1472        0.619684 
        6.34604         10.0818        0.615744 
        6.36177         10.0191        0.611834 
        6.37747         9.96473        0.607965 
