# k  (h/Mpc)    Pcb(k)  (Mpc/h)^3    Pcb_linear(k) (Mpc/h)^3   ShotnoiseSubtracted = true
      0.0200456         16803.1         17077.1 
      0.0350414         12778.6         12414.5 
      0.0492313         8878.31         9020.11 
      0.0637834         7167.16         7498.34 
      0.0800726         5634.84         5951.25 
       0.096163         4479.05         4318.15 
       0.111083         3645.86         3444.26 
       0.126058         3022.14         3052.32 
       0.142273         2628.96         2585.99 
       0.158546         2159.68         2042.39 
        0.17375         1909.88         1720.71 
       0.188953         1791.34         1558.06 
       0.204907         1536.52         1378.57 
       0.220756         1383.25         1166.35 
        0.23588         1233.25         1014.63 
         0.2514         1108.98         921.777 
       0.267535         1075.47          834.05 
       0.283568         948.379          735.52 
       0.299022         905.974          655.31 
       0.314451         933.646         598.909 
       0.330372         809.749         549.432 
       0.346141         746.964         498.693 
       0.361624         716.305         453.244 
       0.377134         680.504         417.056 
       0.392932         654.827         385.894 
       0.408854         624.773         355.719 
       0.424564         608.175         327.872 
       0.440253         556.836         303.975 
       0.455999         533.307         283.196 
       0.471626         542.204           264.1 
        0.48727         512.191         246.237 
       0.502856         479.629          230.19 
       0.518488         475.387         215.872 
       0.534347         447.444         202.561 
       0.550082          429.52         190.287 
       0.565732         426.142         179.059 
       0.581496         414.301         168.775 
       0.597222         402.768         159.344 
       0.612804         393.439         150.671 
       0.628434         377.888         142.588 
       0.644267         364.053          135.03 
       0.660051         359.221         128.065 
       0.675724         353.149         121.633 
       0.691403         345.015         115.638 
       0.707174         332.121         110.013 
       0.722871         326.951         104.785 
        0.73838         322.864         99.9519 
       0.754018         310.844         95.3875 
       0.769845         309.316         91.0585 
        0.78569         302.419         86.9945 
       0.801365         293.555          83.219 
       0.817031          289.94         79.6711 
       0.832809         284.951         76.3084 
       0.848511         278.112         73.1559 
       0.864097         271.446          70.204 
       0.879701         270.067         67.4129 
       0.895507         262.666         64.7414 
       0.911279         256.116         62.2208 
        0.92691         253.797          59.856 
       0.942635          251.84         57.6015 
       0.958396         244.866         55.4589 
       0.974128          241.78         53.4297 
       0.989692         233.182         51.5225 
        1.00528         232.932         49.7059 
        1.02113          229.44         47.9489 
        1.03692         224.271         46.2836 
        1.05264         220.629         44.7053 
        1.06832         220.266         43.2035 
        1.08405         214.181         41.7669 
        1.09979         212.641          40.395 
        1.11537         208.278         39.0986 
        1.13105         204.782         37.8516 
        1.14679         203.017         36.6544 
        1.16256         200.168         35.5068 
        1.17828         197.907         34.4123 
        1.19395         192.698         33.3678 
         1.2097         192.038         32.3615 
        1.22537         190.481         31.4017 
          1.241         185.407         30.4838 
        1.25666         183.575         29.6005 
        1.27241          179.81         28.7482 
        1.28819          178.12         27.9281 
        1.30392         175.726         27.1425 
        1.31957         171.551         26.3907 
        1.33529         169.516         25.6647 
        1.35108         168.076         24.9632 
        1.36674          164.96         24.2931 
         1.3824         163.829         23.6482 
        1.39811         160.931         23.0247 
        1.41389         158.158         22.4213 
        1.42964         156.172         21.8406 
        1.44531         154.638         21.2834 
        1.46101         151.463         20.7445 
        1.47667          151.01         20.2259 
        1.49229          148.55         19.7265 
        1.50793         145.877         19.2434 
        1.52367         144.407         18.7735 
        1.53953         141.586         18.3161 
        1.55526         141.205         17.8776 
        1.57092         139.436         17.4553 
        1.58662         136.263         17.0458 
        1.60235         134.955         16.6485 
        1.61809         133.269         16.2638 
        1.63369         131.276         15.8947 
        1.64941         130.479         15.5344 
        1.66519         128.504          15.184 
        1.68085         126.143          14.847 
        1.69652         125.109           14.52 
        1.71228          124.02         14.2011 
        1.72806         122.591         13.8916 
        1.74368         120.682         13.5944 
        1.75933         119.711         13.3053 
        1.77505         117.539         13.0233 
        1.79081         116.064         12.7489 
         1.8065         114.095         12.4837 
        1.82218         112.899         12.2263 
        1.83797         112.507         11.9743 
        1.85367         110.522         11.7309 
        1.86928         109.884         11.4957 
        1.88497         107.842         11.2657 
        1.90073         107.108         11.0411 
        1.91647         105.354         10.8229 
        1.93218         104.185         10.6111 
        1.94787         102.581         10.4052 
        1.96363         101.791          10.204 
        1.97935         100.692         10.0085 
        1.99499         99.8994         9.81928 
        2.01064         97.5717         9.63467 
         2.0264         97.0863         9.45365 
        2.04216         95.0066         9.27738 
        2.05781         94.6807         9.10672 
        2.07353         93.4235         8.93975 
        2.08928         92.0834         8.77661 
        2.10499          91.027         8.61799 
        2.12065           90.53         8.46376 
        2.13633         89.3372         8.31318 
        2.15211         87.9335         8.16529 
        2.16785         86.7137         8.02142 
        2.18349         85.6042         7.88193 
        2.19916         84.6219         7.74546 
        2.21489          83.836         7.61177 
        2.23063          82.599         7.48115 
         2.2463         82.1481         7.35419 
        2.26194         80.9804         7.23049 
        2.27765         80.0729         7.10901 
        2.29341         79.1639            6.99 
        2.30914          78.218         6.87397 
        2.32486         76.6228         6.76063 
        2.34061         76.2694         6.64967 
        2.35635         75.2866          6.5413 
        2.37203         74.2442         6.43572 
        2.38768         73.5775         6.33269 
        2.40339         72.8328         6.23155 
        2.41914         71.6366         6.13238 
        2.43483         71.1764         6.03572 
         2.4505         70.1652          5.9413 
        2.46622         69.6693         5.84859 
        2.48195          68.646         5.75784 
        2.49759         67.8845         5.66951 
        2.51328         67.0823         5.58281 
        2.52906         66.2203         5.49736 
        2.54479         65.6069         5.41403 
        2.56049         64.8568         5.33259 
        2.57618         63.9411         5.25289 
        2.59189         63.5432          5.1747 
        2.60758         62.6406         5.09823 
        2.62325         61.9526          5.0234 
        2.63898         61.3585         4.94981 
        2.65468          60.785         4.87785 
        2.67044         60.0901         4.80701 
        2.68618         59.5112         4.73774 
        2.70184           58.74         4.67012 
        2.71755          57.903         4.60364 
        2.73329         57.4709         4.53836 
        2.74897         56.9472         4.47456 
        2.76462         56.5758         4.41213 
        2.78034         55.8236         4.35063 
        2.79607         55.0171         4.29023 
        2.81179         54.4044         4.23106 
        2.82749          53.954         4.17306 
        2.84321         53.5219         4.11609 
        2.85893         52.9211          4.0602 
        2.87462         52.1713         4.00545 
        2.89033         51.5908         3.95165 
        2.90605         51.0186          3.8988 
        2.92176         50.6344         3.84694 
        2.93747         50.0126         3.79605 
        2.95318         49.5357         3.74607 
        2.96891         48.9394         3.69696 
        2.98456         48.5327         3.64896 
        3.00023         47.7796         3.60173 
        3.01596          47.428          3.5552 
        3.03164         46.9726         3.50962 
        3.04738         46.5395         3.46471 
         3.0631         46.0638         3.42059 
        3.07883         45.5435         3.37725 
        3.09456         45.0223         3.33466 
        3.11026          44.601         3.29287 
        3.12596         44.1883         3.25181 
        3.14163         43.6914         3.21153 
        3.15734         43.2601         3.17185 
        3.17308         42.9205         3.13274 
        3.18879         42.5518          3.0944 
        3.20447         42.0456         3.05675 
         3.2202         41.5912         3.01962 
         3.2359         41.2628         2.98316 
        3.25157         40.7371          2.9474 
        3.26729           40.39         2.91211 
        3.28304         40.0499         2.87734 
        3.29877         39.4734         2.84317 
        3.31446         39.2185         2.80964 
        3.33014         38.7791         2.77667 
        3.34585         38.2981         2.74419 
        3.36158          38.028         2.71217 
        3.37727          37.642         2.68077 
        3.39294         37.2476         2.64989 
        3.40867         36.9397         2.61939 
        3.42439          36.502         2.58938 
        3.44008         36.2441          2.5599 
        3.45578         35.8373         2.53086 
        3.47153         35.5992         2.50221 
        3.48724         35.2024         2.47404 
        3.50292         34.8507         2.44638 
        3.51859         34.6067         2.41916 
        3.53431         34.3018         2.39226 
        3.55007         33.7293         2.36571 
        3.56577         33.6837         2.33966 
        3.58146         33.2216         2.31402 
        3.59719         32.9251          2.2887 
        3.61292         32.7056         2.26377 
        3.62859         32.3036         2.23931 
        3.64429         32.0273         2.21516 
        3.66003          31.731         2.19129 
        3.67578         31.4849         2.16778 
        3.69146         31.2252         2.14471 
        3.70712         30.8177         2.12201 
        3.72284         30.5942         2.09956 
        3.73853         30.4111         2.07747 
        3.75422         30.1129         2.05569 
        3.76993         29.8035         2.03421 
        3.78564         29.5394         2.01304 
        3.80137         29.3457         1.99213 
        3.81707         29.0134         1.97157 
        3.83279         28.7204         1.95128 
        3.84853         28.5001         1.93125 
        3.86424         28.1159         1.91153 
        3.87992         27.8743         1.89212 
        3.89561         27.7241         1.87297 
        3.91134         27.4581         1.85406 
        3.92704         27.1487         1.83542 
        3.94273          26.851         1.81706 
        3.95845         26.7228         1.79892 
        3.97418         26.4264         1.78102 
        3.98988         26.2204         1.76339 
        4.00554         25.9405         1.74604 
        4.02125          25.792         1.72888 
        4.03698         25.5373         1.71193 
        4.05268         25.2869         1.69524 
        4.06839         25.0646         1.67875 
         4.0841         24.8785          1.6625 
        4.09983         24.5825         1.64643 
        4.11555         24.3888         1.63059 
        4.13124         24.3226         1.61499 
        4.14693         23.9749         1.59959 
        4.16266         23.8012         1.58435 
        4.17839         23.6505         1.56932 
        4.19408          23.377         1.55452 
        4.20977         23.2465          1.5399 
        4.22551         23.0456         1.52544 
        4.24123          22.804         1.51117 
        4.25691         22.6276         1.49713 
        4.27259         22.4689         1.48326 
        4.28831         22.2574         1.46954 
        4.30404         22.0593         1.45598 
        4.31974         21.8512         1.44262 
        4.33543         21.7088         1.42943 
        4.35116         21.5191         1.41638 
        4.36688         21.3091          1.4035 
        4.38255         21.1188         1.39082 
        4.39825         20.9852         1.37828 
        4.41398         20.8096         1.36586 
         4.4297         20.6429         1.35361 
        4.44541         20.4337         1.34151 
        4.46111         20.2316         1.32957 
        4.47683         20.0813         1.31776 
        4.49251         19.9702         1.30612 
        4.50819         19.8007         1.29463 
         4.5239         19.6341         1.28326 
        4.53962         19.5007         1.27201 
        4.55535         19.3014         1.26089 
        4.57106         19.2074         1.24991 
        4.58678         19.0088         1.23907 
         4.6025         18.7689         1.22835 
        4.61821         18.6768         1.21776 
        4.63391         18.5307         1.20731 
         4.6496         18.4333         1.19699 
        4.66532         18.2182         1.18677 
        4.68103         18.0977         1.17667 
        4.69673         17.9775         1.16671 
        4.71241          17.859         1.15686 
        4.72811         17.6789         1.14712 
        4.74384         17.5167         1.13747 
        4.75955          17.392         1.12795 
        4.77525         17.2702         1.11854 
        4.79096          17.108         1.10923 
        4.80669         16.9784         1.10002 
         4.8224         16.8332         1.09093 
        4.83809         16.6938         1.08195 
        4.85379         16.5904         1.07306 
         4.8695         16.4838         1.06427 
        4.88521         16.3285         1.05558 
        4.90093         16.1893         1.04698 
        4.91663         16.0465         1.03849 
        4.93234         15.9349         1.03008 
        4.94807         15.8322         1.02176 
        4.96377         15.7011         1.01355 
        4.97943         15.5994         1.00544 
        4.99514         15.4465        0.997404 
        5.01086         15.3686        0.989449 
        5.02654         15.2292          0.9816 
        5.04227         15.0991        0.973813 
          5.058         14.9938        0.966107 
        5.07371         14.8735          0.9585 
        5.08942            14.8        0.950973 
        5.10513         14.6535        0.943526 
        5.12084         14.5638        0.936155 
        5.13656         14.4565        0.928865 
        5.15225         14.3335        0.921664 
        5.16796         14.1977        0.914528 
        5.18369         14.0911        0.907461 
         5.1994         14.0034        0.900482 
        5.21509           13.89        0.893582 
        5.23079          13.809        0.886746 
        5.24649         13.7039        0.879987 
        5.26217         13.6028        0.873303 
        5.27788         13.4831         0.86668 
        5.29359         13.3822        0.860123 
        5.30933         13.3161        0.853625 
        5.32504         13.2177        0.847205 
        5.34073         13.1121        0.840858 
        5.35646         13.0307        0.834563 
        5.37218          12.912        0.828331 
        5.38789         12.7981        0.822173 
        5.40357         12.7423        0.816085 
        5.41929         12.6487        0.810045 
        5.43502         12.5474        0.804065 
         5.4507         12.4573        0.798159 
        5.46639         12.3493        0.792312 
        5.48212         12.2771         0.78651 
        5.49786         12.2037         0.78076 
        5.51353         12.0965        0.775095 
        5.52921         12.0256         0.76948 
        5.54495         11.9378        0.763905 
        5.56066         11.8358        0.758391 
        5.57637          11.769        0.752932 
        5.59207         11.7049        0.747532 
        5.60778          11.608        0.742182 
        5.62346         11.4886        0.736892 
        5.63916         11.4362        0.731649 
        5.65487         11.3776        0.726454 
         5.6706         11.2701        0.721303 
        5.68633         11.1835        0.716201 
        5.70203         11.1181        0.711158 
        5.71773         11.0085        0.706164 
        5.73344         10.9491        0.701216 
        5.74916         10.8857        0.696311 
        5.76486         10.8171        0.691459 
        5.78054         10.7366        0.686661 
        5.79626         10.6805        0.681895 
          5.812         10.5984        0.677169 
         5.8277         10.5153        0.672502 
        5.84339         10.4209        0.667879 
        5.85911         10.3564        0.663291 
        5.87484         10.2873        0.658746 
        5.89053         10.2116        0.654253 
        5.90623         10.1565          0.6498 
        5.92195         10.0862         0.64538 
        5.93767         10.0411        0.641004 
        5.95336         9.93523        0.636675 
        5.96905         9.89056        0.632389 
        5.98476         9.81016        0.628135 
        6.00048         9.74998         0.62392 
        6.01617         9.67062        0.619748 
        6.03185         9.61762         0.61562 
        6.04756         9.54487         0.61152 
        6.06331         9.49271        0.607448 
        6.07903         9.42355        0.603421 
        6.09473         9.36109        0.599435 
        6.11044         9.29682        0.595481 
        6.12616         9.23976        0.591564 
        6.14186         9.18546        0.587686 
        6.15755         9.12015        0.583842 
        6.17326         9.05971         0.58003 
        6.18898         8.99634         0.57625 
        6.20467         8.92648        0.572511 
        6.22036         8.86992        0.568805 
         6.2361         8.80097        0.565122 
         6.2518         8.77331        0.561477 
        6.26748         8.69182        0.557873 
        6.28319         8.65948         0.55429 
        6.29893         8.60114        0.550736 
        6.31463         8.51882        0.547219 
        6.33033         8.47171        0.543733 
        6.34604         8.42673        0.540276 
        6.36177         8.38614        0.536845 
        6.37747         8.30624         0.53345 
