# k  (h/Mpc)    Pcb(k)  (Mpc/h)^3    Pcb_linear(k) (Mpc/h)^3   ShotnoiseSubtracted = true
      0.0200456         5995.83         6077.28 
      0.0350414         4512.73         4417.98 
      0.0492313            3202         3210.02 
      0.0637834         2603.07         2668.46 
      0.0800726          2055.8         2117.89 
       0.096163         1580.38         1536.71 
       0.111083         1278.72         1225.72 
       0.126058         1078.72         1086.24 
       0.142273         920.199         920.284 
       0.158546          750.87         726.831 
        0.17375          649.13         612.355 
       0.188953         591.597         554.473 
       0.204907         503.516         490.596 
       0.220756         448.106         415.074 
        0.23588           394.9         361.078 
         0.2514         354.716         328.036 
       0.267535         337.574         296.816 
       0.283568         294.441         261.752 
       0.299022         275.978         233.207 
       0.314451         267.898         213.136 
       0.330372         233.323         195.528 
       0.346141         215.429         177.472 
       0.361624         202.432         161.297 
       0.377134         185.399         148.419 
       0.392932         180.481         137.329 
       0.408854         169.511         126.591 
       0.424564         161.721         116.681 
       0.440253         146.521         108.177 
       0.455999         136.832         100.782 
       0.471626         132.525         93.9862 
        0.48727         128.017         87.6293 
       0.502856          117.27         81.9185 
       0.518488         114.542          76.823 
       0.534347         107.599         72.0859 
       0.550082          104.67         67.7182 
       0.565732         101.985         63.7223 
       0.581496         94.0641         60.0625 
       0.597222         91.4959         56.7061 
       0.612804         88.3931         53.6198 
       0.628434         86.2052         50.7431 
       0.644267         81.6101         48.0537 
       0.660051         78.8201         45.5749 
       0.675724         76.8453         43.2861 
       0.691403         75.3282         41.1525 
       0.707174         72.6949         39.1507 
       0.722871         70.9227         37.2901 
        0.73838         68.3374         35.5702 
       0.754018          64.621         33.9459 
       0.769845         64.0182         32.4053 
        0.78569         61.8557          30.959 
       0.801365         60.1584         29.6154 
       0.817031         57.9907         28.3528 
       0.832809         56.9948         27.1561 
       0.848511         55.5065         26.0342 
       0.864097           54.42         24.9837 
       0.879701         53.2809         23.9905 
       0.895507         51.3417         23.0397 
       0.911279         50.3914         22.1427 
        0.92691         49.0713         21.3011 
       0.942635         48.0818         20.4989 
       0.958396         47.7234         19.7364 
       0.974128         46.4664         19.0142 
       0.989692         45.0716         18.3355 
        1.00528         44.3863          17.689 
        1.02113         43.3709         17.0637 
        1.03692         42.9662         16.4711 
        1.05264          41.935         15.9094 
        1.06832         41.0582          15.375 
        1.08405          40.139         14.8637 
        1.09979          39.956         14.3755 
        1.11537         38.7456         13.9142 
        1.13105         37.8735         13.4704 
        1.14679         37.3197         13.0443 
        1.16256           36.83         12.6359 
        1.17828         36.3307         12.2464 
        1.19395          35.456         11.8747 
         1.2097         35.2037         11.5166 
        1.22537         34.4399          11.175 
          1.241         33.8427         10.8484 
        1.25666         33.3185          10.534 
        1.27241         33.0372         10.2307 
        1.28819         31.9312         9.93886 
        1.30392         32.0021         9.65928 
        1.31957         31.4908         9.39174 
        1.33529         30.8607         9.13338 
        1.35108         30.4174         8.88374 
        1.36674         30.1076         8.64525 
         1.3824         29.5703         8.41576 
        1.39811         28.9468         8.19386 
        1.41389         28.6598         7.97914 
        1.42964         28.4474          7.7725 
        1.44531         27.8488          7.5742 
        1.46101         27.6335         7.38242 
        1.47667         27.2864         7.19787 
        1.49229         26.7372         7.02014 
        1.50793         26.5362         6.84822 
        1.52367         26.0917         6.68097 
        1.53953         25.9283          6.5182 
        1.55526         25.4698         6.36217 
        1.57092          25.265         6.21189 
        1.58662          24.894         6.06613 
        1.60235         24.5433         5.92477 
        1.61809         24.3088         5.78786 
        1.63369         24.0826          5.6565 
        1.64941         23.7553         5.52828 
        1.66519          23.367         5.40359 
        1.68085         22.9861         5.28364 
        1.69652         22.9187          5.1673 
        1.71228         22.6553         5.05381 
        1.72806         22.2858         4.94365 
        1.74368         22.0667         4.83788 
        1.75933           21.86           4.735 
        1.77505         21.6465         4.63464 
        1.79081          21.408         4.53701 
         1.8065         21.1403         4.44262 
        1.82218         20.9333           4.351 
        1.83797          20.802         4.26135 
        1.85367         20.6139         4.17472 
        1.86928         20.4428         4.09102 
        1.88497         20.1272         4.00916 
        1.90073         19.9056         3.92925 
        1.91647         19.6066         3.85159 
        1.93218          19.696         3.77619 
        1.94787         19.3262         3.70293 
        1.96363         19.1942         3.63133 
        1.97935         18.8877         3.56176 
        1.99499         18.7156         3.49442 
        2.01064         18.5325         3.42872 
         2.0264         18.3561          3.3643 
        2.04216         18.2724         3.30157 
        2.05781         18.0349         3.24084 
        2.07353         17.8803         3.18142 
        2.08928         17.6121         3.12336 
        2.10499         17.4549         3.06691 
        2.12065         17.3225         3.01203 
        2.13633         17.2055         2.95844 
        2.15211         16.9566         2.90581 
        2.16785         16.9209         2.85461 
        2.18349         16.6662         2.80497 
        2.19916         16.5225          2.7564 
        2.21489         16.3251         2.70883 
        2.23063         16.2806         2.66234 
         2.2463         16.0381         2.61716 
        2.26194           15.93         2.57314 
        2.27765         15.6684         2.52991 
        2.29341         15.6138         2.48756 
        2.30914          15.428         2.44626 
        2.32486         15.3807         2.40593 
        2.34061          15.216         2.36644 
        2.35635         15.0461         2.32787 
        2.37203         14.9204          2.2903 
        2.38768         14.7498         2.25364 
        2.40339         14.7161         2.21764 
        2.41914         14.5172         2.18235 
        2.43483         14.3582         2.14795 
         2.4505         14.2192         2.11435 
        2.46622         14.1856         2.08136 
        2.48195         14.0276         2.04906 
        2.49759         13.8234         2.01763 
        2.51328          13.845         1.98677 
        2.52906         13.6501         1.95637 
        2.54479         13.5161         1.92671 
        2.56049          13.365         1.89773 
        2.57618         13.3581         1.86936 
        2.59189         13.2433         1.84154 
        2.60758         13.0445         1.81432 
        2.62325         12.9637         1.78769 
        2.63898          12.913          1.7615 
        2.65468         12.6895          1.7359 
        2.67044         12.6737         1.71069 
        2.68618         12.5791         1.68604 
        2.70184          12.434         1.66197 
        2.71755         12.3424         1.63831 
        2.73329         12.2206         1.61508 
        2.74897         12.1394         1.59238 
        2.76462         12.0509         1.57016 
        2.78034           11.92         1.54827 
        2.79607         11.8581         1.52678 
        2.81179         11.7368         1.50572 
        2.82749         11.6567         1.48508 
        2.84321         11.5631         1.46481 
        2.85893         11.4488         1.44492 
        2.87462         11.4016         1.42543 
        2.89033         11.2654         1.40629 
        2.90605          11.209         1.38748 
        2.92176         11.0953         1.36902 
        2.93747         11.0056         1.35091 
        2.95318         10.9153         1.33312 
        2.96891         10.8612         1.31565 
        2.98456         10.7322         1.29857 
        3.00023         10.6712         1.28176 
        3.01596         10.5726          1.2652 
        3.03164         10.5364         1.24898 
        3.04738         10.4182           1.233 
         3.0631         10.2823          1.2173 
        3.07883         10.2353         1.20187 
        3.09456         10.1758         1.18672 
        3.11026         10.1196         1.17185 
        3.12596         10.0116         1.15723 
        3.14163         9.96566          1.1429 
        3.15734         9.85275         1.12878 
        3.17308         9.79892         1.11486 
        3.18879         9.71879         1.10121 
        3.20447         9.62465         1.08782 
         3.2202         9.55955          1.0746 
         3.2359         9.45227         1.06163 
        3.25157         9.44041          1.0489 
        3.26729          9.3399         1.03634 
        3.28304         9.24023         1.02397 
        3.29877         9.20463         1.01181 
        3.31446         9.13184        0.999875 
        3.33014          9.0578        0.988144 
        3.34585         9.00364        0.976583 
        3.36158         8.93887        0.965189 
        3.37727          8.8915        0.954013 
        3.39294         8.80032        0.943025 
        3.40867         8.75216        0.932169 
        3.42439          8.6573        0.921491 
        3.44008         8.59435           0.911 
        3.45578          8.5347        0.900665 
        3.47153         8.46224        0.890468 
        3.48724         8.39563        0.880446 
        3.50292         8.31425        0.870602 
        3.51859         8.28953        0.860913 
        3.53431          8.2079        0.851342 
        3.55007         8.13167        0.841893 
        3.56577         8.08017        0.832624 
        3.58146         8.04262        0.823498 
        3.59719         7.96378        0.814489 
        3.61292          7.9318        0.805617 
        3.62859         7.88334         0.79691 
        3.64429         7.80483        0.788316 
        3.66003         7.75861        0.779822 
        3.67578         7.67885        0.771457 
        3.69146         7.66095        0.763245 
        3.70712         7.58736        0.755168 
        3.72284         7.50884        0.747178 
        3.73853         7.48615        0.739317 
        3.75422          7.4113        0.731567 
        3.76993         7.35847         0.72392 
        3.78564         7.30529        0.716387 
        3.80137         7.27909        0.708948 
        3.81707         7.18925         0.70163 
        3.83279         7.14216         0.69441 
        3.84853         7.08709        0.687279 
        3.86424         7.05769        0.680263 
        3.87992         7.00152        0.673354 
        3.89561         6.94475        0.666542 
        3.91134         6.87183         0.65981 
        3.92704         6.84413        0.653178 
        3.94273         6.79478        0.646644 
        3.95845          6.7637        0.640188 
        3.97418         6.70184        0.633818 
        3.98988          6.6644        0.627543 
        4.00554         6.60988        0.621371 
        4.02125         6.56688        0.615264 
        4.03698         6.51279        0.609229 
        4.05268         6.45123        0.603289 
        4.06839         6.39732        0.597424 
         4.0841         6.37313        0.591638 
        4.09983         6.31933        0.585921 
        4.11555          6.2679        0.580282 
        4.13124         6.22552        0.574733 
        4.14693          6.1802        0.569251 
        4.16266         6.15027        0.563828 
        4.17839          6.1098        0.558479 
        4.19408         6.05572        0.553212 
        4.20977         6.02015         0.54801 
        4.22551         5.98358        0.542862 
        4.24123         5.92597        0.537786 
        4.25691         5.88605        0.532789 
        4.27259         5.83588        0.527853 
        4.28831         5.80042         0.52297 
        4.30404         5.75065        0.518144 
        4.31974         5.71727         0.51339 
        4.33543         5.67307        0.508698 
        4.35116         5.63507        0.504053 
        4.36688         5.59464        0.499468 
        4.38255         5.56531        0.494957 
        4.39825         5.52331        0.490491 
        4.41398         5.47804        0.486072 
         4.4297         5.46195        0.481713 
        4.44541         5.40485        0.477407 
        4.46111         5.36773        0.473157 
        4.47683         5.34486        0.468956 
        4.49251         5.30947        0.464815 
        4.50819         5.27453        0.460724 
         4.5239         5.23112        0.456677 
        4.53962         5.19039        0.452673 
        4.55535         5.16308        0.448716 
        4.57106         5.12829        0.444811 
        4.58678         5.08946        0.440952 
         4.6025          5.0617        0.437138 
        4.61821         5.02081         0.43337 
        4.63391         4.97873        0.429651 
         4.6496         4.94982        0.425977 
        4.66532         4.91627         0.42234 
        4.68103         4.88159        0.418747 
        4.69673         4.85868          0.4152 
        4.71241         4.83137        0.411697 
        4.72811          4.7864        0.408228 
        4.74384         4.76765        0.404795 
        4.75955         4.72454        0.401407 
        4.77525         4.68828         0.39806 
        4.79096         4.67387        0.394746 
        4.80669         4.64588        0.391469 
         4.8224         4.59966        0.388233 
        4.83809         4.57552        0.385036 
        4.85379         4.53323        0.381874 
         4.8695         4.51721        0.378744 
        4.88521         4.48732        0.375651 
        4.90093         4.45328        0.372592 
        4.91663         4.44051         0.36957 
        4.93234         4.39762        0.366578 
        4.94807         4.37203        0.363617 
        4.96377         4.34875        0.360694 
        4.97943         4.31587         0.35781 
        4.99514         4.29061         0.35495 
        5.01086         4.26683        0.352118 
        5.02654         4.23763        0.349325 
        5.04227         4.21217        0.346554 
          5.058         4.17766        0.343812 
        5.07371         4.15523        0.341104 
        5.08942         4.12628        0.338426 
        5.10513         4.09768        0.335776 
        5.12084         4.07917        0.333153 
        5.13656         4.05476        0.330558 
        5.15225         4.02866        0.327996 
        5.16796         4.00808        0.325456 
        5.18369         3.97133        0.322941 
         5.1994         3.95338        0.320457 
        5.21509         3.92046        0.318002 
        5.23079         3.89886        0.315569 
        5.24649         3.87453        0.313164 
        5.26217         3.84814        0.310785 
        5.27788         3.83799        0.308428 
        5.29359         3.81193        0.306095 
        5.30933         3.79065        0.303782 
        5.32504         3.76001        0.301498 
        5.34073         3.74005        0.299239 
        5.35646         3.71466        0.296999 
        5.37218         3.69866        0.294781 
        5.38789         3.67779         0.29259 
        5.40357         3.65121        0.290423 
        5.41929         3.62062        0.288273 
        5.43502          3.6045        0.286145 
         5.4507         3.58486        0.284044 
        5.46639         3.55303        0.281963 
        5.48212         3.53728        0.279898 
        5.49786         3.51894        0.277852 
        5.51353         3.49203        0.275836 
        5.52921         3.47226        0.273838 
        5.54495          3.4568        0.271853 
        5.56066         3.44142        0.269891 
        5.57637         3.41145        0.267948 
        5.59207         3.39493        0.266027 
        5.60778         3.37521        0.264123 
        5.62346         3.35966         0.26224 
        5.63916         3.33045        0.260374 
        5.65487         3.31426        0.258526 
         5.6706         3.28763        0.256693 
        5.68633         3.28165        0.254877 
        5.70203         3.26469        0.253082 
        5.71773         3.22935        0.251305 
        5.73344         3.21628        0.249544 
        5.74916         3.19936        0.247799 
        5.76486         3.18209        0.246072 
        5.78054         3.16339        0.244364 
        5.79626         3.14753        0.242668 
          5.812         3.12151        0.240987 
         5.8277         3.10893        0.239326 
        5.84339         3.09328         0.23768 
        5.85911          3.0735        0.236047 
        5.87484         3.05038         0.23443 
        5.89053         3.03591        0.232831 
        5.90623         3.02303        0.231246 
        5.92195         3.00752        0.229674 
        5.93767         2.98567        0.228116 
        5.95336         2.96873        0.226576 
        5.96905         2.95213         0.22505 
        5.98476         2.93238        0.223537 
        6.00048         2.92131        0.222036 
        6.01617          2.9052        0.220552 
        6.03185         2.88629        0.219083 
        6.04756         2.86523        0.217624 
        6.06331         2.85283        0.216174 
        6.07903         2.84068        0.214742 
        6.09473         2.82095        0.213323 
        6.11044         2.80477        0.211916 
        6.12616         2.79429        0.210522 
        6.14186         2.77619        0.209142 
        6.15755         2.76493        0.207774 
        6.17326         2.74987        0.206417 
        6.18898         2.72607        0.205072 
        6.20467         2.71667        0.203741 
        6.22036         2.70579        0.202423 
         6.2361         2.68727        0.201112 
         6.2518          2.6733        0.199815 
        6.26748         2.65932        0.198532 
        6.28319         2.64412        0.197257 
        6.29893         2.62823        0.195992 
        6.31463         2.61833         0.19474 
        6.33033         2.60929          0.1935 
        6.34604         2.58657         0.19227 
        6.36177         2.58017        0.191049 
        6.37747         2.56396        0.189841 
