# k  (h/Mpc)    Pcb(k)  (Mpc/h)^3    Pcb_linear(k) (Mpc/h)^3   ShotnoiseSubtracted = true
      0.0200456           10641         10797.3 
      0.0350414         8051.21         7849.26 
      0.0492313         5656.34         5703.12 
      0.0637834         4580.12         4740.95 
      0.0800726         3609.71         3762.78 
       0.096163         2822.17         2730.22 
       0.111083         2291.87          2177.7 
       0.126058          1913.8         1929.88 
       0.142273         1647.34         1635.03 
       0.158546         1351.75         1291.33 
        0.17375         1180.02         1087.95 
       0.188953         1090.02         985.113 
       0.204907         930.171         871.624 
       0.220756         832.925         737.447 
        0.23588         739.259         641.515 
         0.2514         661.981         582.809 
       0.267535         640.624         527.343 
       0.283568         559.153         465.045 
       0.299022         531.899         414.331 
       0.314451         533.745         378.671 
       0.330372         458.873         347.388 
       0.346141         425.318         315.307 
       0.361624         405.427         286.571 
       0.377134         377.364         263.691 
       0.392932         366.693         243.988 
       0.408854         348.211          224.91 
       0.424564         335.666         207.303 
       0.440253         303.146         192.193 
       0.455999         289.446         179.056 
       0.471626         288.547         166.982 
        0.48727         274.568         155.688 
       0.502856         251.242         145.542 
       0.518488         251.985         136.489 
       0.534347         234.038         128.072 
       0.550082         228.122         120.312 
       0.565732         226.218         113.213 
       0.581496          212.32         106.711 
       0.597222          207.19         100.748 
       0.612804         201.142         95.2644 
       0.628434         194.367         90.1535 
       0.644267         185.393         85.3752 
       0.660051         181.465         80.9713 
       0.675724         179.551         76.9048 
       0.691403         174.802         73.1142 
       0.707174         168.813         69.5577 
       0.722871         166.167         66.2519 
        0.73838         164.294         63.1963 
       0.754018         154.698         60.3104 
       0.769845         154.563         57.5733 
        0.78569         150.485         55.0038 
       0.801365         146.066         52.6167 
       0.817031         142.232         50.3734 
       0.832809         139.858         48.2473 
       0.848511         136.537         46.2541 
       0.864097          134.05         44.3877 
       0.879701          132.42          42.623 
       0.895507         128.579         40.9339 
       0.911279          125.49         39.3402 
        0.92691          123.02          37.845 
       0.942635         120.726         36.4196 
       0.958396         119.278         35.0649 
       0.974128         116.714         33.7819 
       0.989692         113.972          32.576 
        1.00528         112.576         31.4275 
        1.02113         109.628         30.3165 
        1.03692         109.174         29.2636 
        1.05264         107.785         28.2657 
        1.06832         104.553         27.3162 
        1.08405          103.56         26.4078 
        1.09979         102.771         25.5405 
        1.11537         100.013         24.7208 
        1.13105         98.9376         23.9323 
        1.14679         97.2412         23.1754 
        1.16256         95.3158         22.4498 
        1.17828         94.4882         21.7578 
        1.19395         91.9844         21.0974 
         1.2097         91.7993         20.4611 
        1.22537         89.6689         19.8542 
          1.241         89.4047         19.2739 
        1.25666         86.3878         18.7154 
        1.27241         85.7001         18.1765 
        1.28819         85.1958          17.658 
        1.30392         83.5487         17.1613 
        1.31957         82.6476          16.686 
        1.33529         81.5274         16.2269 
        1.35108         81.0393         15.7834 
        1.36674         79.5729         15.3597 
         1.3824         79.0208          14.952 
        1.39811         77.0442         14.5577 
        1.41389         76.0475         14.1763 
        1.42964         75.0758         13.8091 
        1.44531         74.4907         13.4568 
        1.46101         73.7332         13.1161 
        1.47667         72.6706         12.7882 
        1.49229         71.8533         12.4724 
        1.50793         70.8886          12.167 
        1.52367         70.3633         11.8698 
        1.53953          69.234         11.5807 
        1.55526         68.0809         11.3034 
        1.57092         67.9795         11.0364 
        1.58662         66.9676         10.7775 
        1.60235          66.042         10.5263 
        1.61809         64.9713         10.2831 
        1.63369         64.2437         10.0497 
        1.64941         64.0604          9.8219 
        1.66519         62.4836         9.60037 
        1.68085         62.1182         9.38725 
        1.69652         60.8787         9.18055 
        1.71228         60.5273         8.97892 
        1.72806         60.0195          8.7832 
        1.74368         59.1137         8.59528 
        1.75933         58.6448          8.4125 
        1.77505         58.0507         8.23419 
        1.79081         57.1792         8.06074 
         1.8065         56.8771         7.89304 
        1.82218         55.2873         7.73027 
        1.83797         54.9989         7.57098 
        1.85367         54.5635         7.41707 
        1.86928         54.0881         7.26837 
        1.88497         53.1921         7.12294 
        1.90073          52.485         6.98095 
        1.91647         52.2753         6.84298 
        1.93218         51.8474         6.70903 
        1.94787         51.0097         6.57886 
        1.96363         50.2606         6.45165 
        1.97935         49.8337         6.32806 
        1.99499         49.2834         6.20841 
        2.01064         48.7037         6.09169 
         2.0264         48.4615         5.97724 
        2.04216         47.6542         5.86578 
        2.05781         47.1277         5.75788 
        2.07353            46.4         5.65232 
        2.08928          46.247         5.54917 
        2.10499         45.8104         5.44887 
        2.12065         45.2367         5.35136 
        2.13633         44.9311         5.25615 
        2.15211         44.2385         5.16265 
        2.16785         43.5332         5.07169 
        2.18349         43.1335         4.98349 
        2.19916         42.7349          4.8972 
        2.21489         42.5107         4.81267 
        2.23063          41.846         4.73009 
         2.2463          41.552         4.64981 
        2.26194         41.0824          4.5716 
        2.27765         40.5602         4.49479 
        2.29341         40.0226         4.41955 
        2.30914         39.6913         4.34619 
        2.32486         39.1177         4.27453 
        2.34061         38.8729         4.20437 
        2.35635         38.4296         4.13585 
        2.37203         38.0903          4.0691 
        2.38768         37.8181         4.00395 
        2.40339         37.4728            3.94 
        2.41914         37.0768          3.8773 
        2.43483         36.4998         3.81619 
         2.4505         36.3092         3.75649 
        2.46622         35.8709         3.69787 
        2.48195          35.585          3.6405 
        2.49759         35.0949         3.58465 
        2.51328         34.7524         3.52983 
        2.52906         34.4811          3.4758 
        2.54479         34.1373         3.42312 
        2.56049          33.859         3.37162 
        2.57618         33.4695         3.32123 
        2.59189         33.0779          3.2718 
        2.60758         32.7067         3.22345 
        2.62325         32.5883         3.17613 
        2.63898         32.2301          3.1296 
        2.65468         31.7787          3.0841 
        2.67044         31.5828         3.03931 
        2.68618          31.314         2.99552 
        2.70184         30.9364         2.95276 
        2.71755         30.6545         2.91073 
        2.73329         30.3285         2.86946 
        2.74897         30.0014         2.82912 
        2.76462         29.7537         2.78964 
        2.78034         29.4725         2.75076 
        2.79607         29.1596         2.71258 
        2.81179         28.9451         2.67516 
        2.82749         28.6103         2.63849 
        2.84321         28.3418         2.60247 
        2.85893         28.1134         2.56713 
        2.87462         27.8815         2.53251 
        2.89033         27.5639          2.4985 
        2.90605         27.3514         2.46508 
        2.92176         27.1185         2.43229 
        2.93747         26.8063         2.40012 
        2.95318         26.6662         2.36851 
        2.96891         26.3386         2.33747 
        2.98456         26.0953         2.30712 
        3.00023         25.7671         2.27726 
        3.01596         25.4965         2.24784 
        3.03164         25.2947         2.21902 
        3.04738         25.1521         2.19062 
         3.0631         24.8993         2.16273 
        3.07883         24.5748         2.13532 
        3.09456         24.3547          2.1084 
        3.11026         24.0974         2.08198 
        3.12596         23.8502         2.05601 
        3.14163         23.6829         2.03055 
        3.15734         23.5202         2.00546 
        3.17308         23.2206         1.98073 
        3.18879         23.0478         1.95649 
        3.20447         22.8586         1.93268 
         3.2202         22.6042         1.90921 
         3.2359         22.3991         1.88616 
        3.25157         22.1971         1.86354 
        3.26729         22.0772         1.84123 
        3.28304         21.8234         1.81925 
        3.29877         21.6122         1.79764 
        3.31446         21.4474         1.77644 
        3.33014          21.201          1.7556 
        3.34585         21.1001         1.73506 
        3.36158          20.804         1.71482 
        3.37727         20.6716         1.69496 
        3.39294         20.5363         1.67544 
        3.40867         20.3098         1.65615 
        3.42439         20.1168         1.63718 
        3.44008         19.9258         1.61854 
        3.45578         19.7654         1.60018 
        3.47153         19.5721         1.58206 
        3.48724         19.4665         1.56426 
        3.50292         19.2284         1.54677 
        3.51859          19.095         1.52955 
        3.53431         18.9397         1.51255 
        3.55007         18.7086         1.49576 
        3.56577          18.605         1.47929 
        3.58146         18.3862         1.46308 
        3.59719         18.2707         1.44707 
        3.61292         18.1015         1.43131 
        3.62859          17.887         1.41584 
        3.64429         17.7221         1.40057 
        3.66003         17.6562         1.38548 
        3.67578         17.5339         1.37062 
        3.69146         17.3201         1.35603 
        3.70712         17.1614         1.34168 
        3.72284         17.0382         1.32748 
        3.73853         16.9268         1.31352 
        3.75422         16.7036         1.29975 
        3.76993         16.5913         1.28616 
        3.78564         16.4429         1.27278 
        3.80137         16.2954         1.25956 
        3.81707         16.1641         1.24656 
        3.83279         16.0397         1.23373 
        3.84853         15.8682         1.22106 
        3.86424         15.7271          1.2086 
        3.87992         15.6413         1.19632 
        3.89561         15.4994         1.18422 
        3.91134         15.3947         1.17226 
        3.92704         15.2713         1.16048 
        3.94273         15.1253         1.14887 
        3.95845         14.9664          1.1374 
        3.97418           14.84         1.12608 
        3.98988         14.7318         1.11493 
        4.00554         14.6135         1.10397 
        4.02125         14.4749         1.09312 
        4.03698         14.3732          1.0824 
        4.05268         14.2726         1.07184 
        4.06839         14.1082         1.06142 
         4.0841         14.0242         1.05114 
        4.09983         13.8339         1.04099 
        4.11555         13.7893         1.03097 
        4.13124         13.6789         1.02111 
        4.14693         13.5388         1.01137 
        4.16266         13.4567         1.00173 
        4.17839         13.3104         0.99223 
        4.19408          13.223        0.982871 
        4.20977         13.1259        0.973629 
        4.22551           12.99        0.964484 
        4.24123         12.9013        0.955465 
        4.25691         12.7866        0.946586 
        4.27259         12.6755        0.937818 
        4.28831          12.619        0.929142 
        4.30404         12.5141        0.920568 
        4.31974         12.4084        0.912121 
        4.33543         12.2576        0.903785 
        4.35116         12.1933        0.895532 
        4.36688         12.0556        0.887386 
        4.38255         11.9816        0.879372 
        4.39825         11.8817        0.871439 
        4.41398         11.7934        0.863587 
         4.4297         11.6894        0.855842 
        4.44541         11.6042        0.848192 
        4.46111         11.5084        0.840642 
        4.47683          11.405        0.833178 
        4.49251         11.3104         0.82582 
        4.50819         11.2229        0.818552 
         4.5239         11.1599        0.811362 
        4.53962         11.0574        0.804249 
        4.55535         10.9553        0.797217 
        4.57106         10.9278         0.79028 
        4.58678         10.8094        0.783424 
         4.6025          10.734        0.776648 
        4.61821         10.6572        0.769952 
        4.63391         10.5648        0.763345 
         4.6496         10.4732        0.756817 
        4.66532          10.403        0.750356 
        4.68103         10.2963        0.743973 
        4.69673         10.2156         0.73767 
        4.71241         10.1433        0.731447 
        4.72811         10.0754        0.725284 
        4.74384         10.0026        0.719186 
        4.75955         9.91239        0.713166 
        4.77525         9.83136        0.707219 
        4.79096         9.78754        0.701332 
        4.80669         9.67814        0.695509 
         4.8224         9.62416        0.689759 
        4.83809         9.54027         0.68408 
        4.85379         9.48148        0.678461 
         4.8695         9.40169        0.672901 
        4.88521          9.3071        0.667406 
        4.90093         9.27218        0.661971 
        4.91663         9.17649        0.656601 
        4.93234         9.12402        0.651286 
        4.94807         9.04264        0.646025 
        4.96377         9.00344        0.640833 
        4.97943         8.92522        0.635708 
        4.99514          8.8464        0.630626 
        5.01086          8.8065        0.625596 
        5.02654         8.71313        0.620634 
        5.04227         8.65576         0.61571 
          5.058         8.59582        0.610838 
        5.07371         8.54594        0.606028 
        5.08942          8.4678        0.601269 
        5.10513         8.39365        0.596561 
        5.12084         8.34911          0.5919 
        5.13656         8.29676        0.587291 
        5.15225         8.21842        0.582738 
        5.16796         8.16257        0.578226 
        5.18369         8.10469        0.573758 
         5.1994         8.05437        0.569345 
        5.21509         7.99942        0.564983 
        5.23079         7.91662        0.560661 
        5.24649         7.88001        0.556387 
        5.26217         7.82435        0.552161 
        5.27788         7.76286        0.547973 
        5.29359         7.71069        0.543828 
        5.30933         7.63335        0.539719 
        5.32504         7.60257         0.53566 
        5.34073         7.54364        0.531647 
        5.35646         7.48395        0.527667 
        5.37218         7.43832        0.523727 
        5.38789         7.37678        0.519833 
        5.40357         7.32549        0.515984 
        5.41929         7.29146        0.512165 
        5.43502         7.23245        0.508384 
         5.4507         7.17545         0.50465 
        5.46639         7.13583        0.500953 
        5.48212         7.07571        0.497285 
        5.49786         7.03526        0.493649 
        5.51353         6.99634        0.490067 
        5.52921         6.91541        0.486517 
        5.54495         6.87282        0.482992 
        5.56066         6.84066        0.479506 
        5.57637         6.79421        0.476054 
        5.59207         6.73473         0.47264 
        5.60778         6.69335        0.469258 
        5.62346         6.64779        0.465913 
        5.63916         6.60349        0.462598 
        5.65487          6.5553        0.459313 
         5.6706         6.51776        0.456057 
        5.68633         6.47114         0.45283 
        5.70203         6.43549        0.449642 
        5.71773         6.38279        0.446485 
        5.73344         6.34495        0.443356 
        5.74916         6.29159        0.440255 
        5.76486         6.25922        0.437187 
        5.78054         6.20531        0.434153 
        5.79626         6.17008         0.43114 
          5.812         6.12652        0.428152 
         5.8277         6.08366        0.425201 
        5.84339         6.04682        0.422278 
        5.85911         6.00169        0.419377 
        5.87484         5.96513        0.416504 
        5.89053         5.92257        0.413663 
        5.90623           5.887        0.410847 
        5.92195         5.84517        0.408053 
        5.93767         5.81562        0.405286 
        5.95336         5.76726        0.402549 
        5.96905         5.73337        0.399839 
        5.98476         5.69839         0.39715 
        6.00048         5.65367        0.394484 
        6.01617         5.61783        0.391847 
        6.03185         5.58963        0.389237 
        6.04756         5.55765        0.386644 
        6.06331         5.50828        0.384069 
        6.07903         5.46411        0.381524 
        6.09473         5.43462        0.379003 
        6.11044         5.39333        0.376504 
        6.12616         5.36706        0.374027 
        6.14186         5.33092        0.371574 
        6.15755         5.29984        0.369144 
        6.17326         5.26603        0.366734 
        6.18898         5.23125        0.364344 
        6.20467          5.1997         0.36198 
        6.22036         5.16624        0.359637 
         6.2361         5.13739        0.357308 
         6.2518         5.09531        0.355004 
        6.26748         5.07301        0.352725 
        6.28319         5.04018         0.35046 
        6.29893         5.01064        0.348212 
        6.31463         4.98003        0.345988 
        6.33033         4.93855        0.343785 
        6.34604         4.91577        0.341599 
        6.36177         4.87778        0.339429 
        6.37747         4.85035        0.337283 
