# k  (h/Mpc)    Pcb(k)  (Mpc/h)^3    Pcb_linear(k) (Mpc/h)^3   ShotnoiseSubtracted = true
      0.0200456         22115.9         22507.6 
      0.0350414         16878.3         16362.3 
      0.0492313         11627.7         11888.5 
      0.0637834          9373.3         9882.81 
      0.0800726          7355.2         7843.74 
       0.096163         5915.59         5691.31 
       0.111083         4818.47         4539.54 
       0.126058         3982.27         4022.96 
       0.142273         3490.55         3408.33 
       0.158546         2864.89         2691.86 
        0.17375         2562.81         2267.89 
       0.188953         2431.37         2053.53 
       0.204907         2092.26         1816.95 
       0.220756         1892.93         1537.25 
        0.23588         1690.44         1337.28 
         0.2514         1532.06          1214.9 
       0.267535         1478.58         1099.28 
       0.283568         1318.69         969.415 
       0.299022         1257.89         863.698 
       0.314451         1310.91         789.362 
       0.330372         1159.78         724.151 
       0.346141         1065.67         657.277 
       0.361624         1023.25         597.375 
       0.377134         981.919         549.679 
       0.392932         936.751         508.607 
       0.408854         898.783         468.838 
       0.424564          880.04         432.135 
       0.440253         816.658         400.639 
       0.455999         781.359         373.252 
       0.471626          795.69         348.084 
        0.48727         751.393          324.54 
       0.502856         721.533          303.39 
       0.518488         700.753         284.519 
       0.534347         673.213         266.975 
       0.550082         642.366         250.798 
       0.565732         633.662         235.999 
       0.581496         620.688         222.445 
       0.597222         607.771         210.015 
       0.612804         593.561         198.584 
       0.628434         569.429          187.93 
       0.644267         553.922          177.97 
       0.660051         548.039          168.79 
       0.675724         537.053         160.313 
       0.691403         522.113         152.411 
       0.707174         506.496         144.997 
       0.722871         501.139         138.106 
        0.73838         490.655         131.737 
       0.754018         478.557         125.721 
       0.769845         473.086         120.015 
        0.78569         463.307         114.659 
       0.801365         447.827         109.683 
       0.817031          444.54         105.006 
       0.832809         437.864         100.574 
       0.848511         430.642         96.4194 
       0.864097         420.832         92.5288 
       0.879701         419.933         88.8502 
       0.895507           403.8         85.3291 
       0.911279         398.279          82.007 
        0.92691         394.202         78.8901 
       0.942635         389.833         75.9188 
       0.958396         377.136         73.0949 
       0.974128         372.702         70.4203 
       0.989692         361.829         67.9066 
        1.00528         359.197         65.5124 
        1.02113         353.216         63.1966 
        1.03692         347.899         61.0017 
        1.05264         342.829         58.9216 
        1.06832         336.235         56.9422 
        1.08405         334.228         55.0487 
        1.09979         327.557         53.2406 
        1.11537         319.073          51.532 
        1.13105         315.623         49.8884 
        1.14679         310.716         48.3104 
        1.16256         308.998         46.7979 
        1.17828         303.945         45.3554 
        1.19395         296.396         43.9787 
         1.2097         295.368         42.6524 
        1.22537          290.38         41.3874 
          1.241         283.958         40.1777 
        1.25666         281.511         39.0135 
        1.27241         277.662         37.8901 
        1.28819         271.469         36.8092 
        1.30392         271.542         35.7738 
        1.31957         263.668         34.7829 
        1.33529         260.574          33.826 
        1.35108         259.311         32.9015 
        1.36674         252.235         32.0182 
         1.3824         250.453         31.1683 
        1.39811         247.915         30.3465 
        1.41389         241.608         29.5512 
        1.42964         238.919         28.7859 
        1.44531         236.694         28.0515 
        1.46101         232.599         27.3413 
        1.47667         229.956         26.6578 
        1.49229         226.789         25.9995 
        1.50793          223.72         25.3628 
        1.52367          220.37         24.7434 
        1.53953         216.418         24.1406 
        1.55526         214.735         23.5627 
        1.57092         212.967         23.0061 
        1.58662         208.111         22.4663 
        1.60235         205.978         21.9428 
        1.61809         203.794         21.4357 
        1.63369         199.972         20.9492 
        1.64941         197.333         20.4744 
        1.66519         194.999         20.0125 
        1.68085         191.663         19.5683 
        1.69652         190.002         19.1374 
        1.71228         186.976         18.7171 
        1.72806         185.062         18.3091 
        1.74368         182.842         17.9174 
        1.75933         181.627         17.5364 
        1.77505         178.853         17.1647 
        1.79081         175.199         16.8031 
         1.8065         174.051         16.4535 
        1.82218         170.084         16.1142 
        1.83797         169.118         15.7822 
        1.85367         166.634         15.4613 
        1.86928         164.291         15.1513 
        1.88497         163.032         14.8482 
        1.90073         161.319         14.5522 
        1.91647         158.173         14.2646 
        1.93218         156.154         13.9854 
        1.94787         154.174          13.714 
        1.96363         153.634         13.4488 
        1.97935         151.731         13.1912 
        1.99499         149.372         12.9418 
        2.01064         146.264         12.6985 
         2.0264         145.874         12.4599 
        2.04216         143.534         12.2276 
        2.05781         141.023         12.0027 
        2.07353         140.188         11.7826 
        2.08928         138.423         11.5676 
        2.10499          137.11         11.3585 
        2.12065         135.549         11.1552 
        2.13633         133.605         10.9568 
        2.15211         131.469         10.7619 
        2.16785         130.181         10.5722 
        2.18349         128.721         10.3884 
        2.19916         127.058         10.2085 
        2.21489         125.586         10.0323 
        2.23063         123.911         9.86015 
         2.2463          122.27         9.69282 
        2.26194         121.323         9.52978 
        2.27765         119.429         9.36967 
        2.29341         118.431         9.21282 
        2.30914         117.219         9.05989 
        2.32486         115.113         8.91051 
        2.34061         113.968         8.76426 
        2.35635         113.117         8.62143 
        2.37203         111.132         8.48227 
        2.38768         110.441         8.34648 
        2.40339         108.546         8.21317 
        2.41914         107.498         8.08247 
        2.43483         106.775         7.95507 
         2.4505         105.191         7.83063 
        2.46622          103.79         7.70843 
        2.48195         102.967         7.58884 
        2.49759         101.444         7.47241 
        2.51328         100.599         7.35814 
        2.52906         99.4495         7.24552 
        2.54479         98.1245         7.13569 
        2.56049         96.8653         7.02835 
        2.57618         95.9213         6.92331 
        2.59189         95.1479         6.82026 
        2.60758         93.5618         6.71947 
        2.62325         93.2072         6.62084 
        2.63898         92.0295         6.52384 
        2.65468         91.0356           6.429 
        2.67044         89.7744         6.33563 
        2.68618         88.6437         6.24434 
        2.70184         87.6462         6.15521 
        2.71755         87.0705          6.0676 
        2.73329         85.6012         5.98156 
        2.74897         84.8609         5.89747 
        2.76462         84.3236         5.81518 
        2.78034         82.7683         5.73412 
        2.79607         81.8829         5.65453 
        2.81179         81.2974         5.57653 
        2.82749         80.4798          5.5001 
        2.84321         79.2969         5.42501 
        2.85893         78.2664         5.35135 
        2.87462          77.701         5.27918 
        2.89033         76.8444         5.20827 
        2.90605         76.1436         5.13861 
        2.92176         75.3475         5.07026 
        2.93747         74.6434         5.00319 
        2.95318         73.3927         4.93731 
        2.96891         72.9844         4.87259 
        2.98456         72.0281         4.80932 
        3.00023         71.3361         4.74708 
        3.01596         70.8048         4.68575 
        3.03164         69.9151         4.62568 
        3.04738         69.6178         4.56648 
         3.0631         68.4019         4.50834 
        3.07883           67.91         4.45121 
        3.09456         67.0309         4.39508 
        3.11026         66.5234            4.34 
        3.12596         65.7449         4.28588 
        3.14163         65.0507          4.2328 
        3.15734         64.2041          4.1805 
        3.17308         63.7726         4.12895 
        3.18879         63.1571         4.07841 
        3.20447         62.6779          4.0288 
         3.2202          61.745         3.97985 
         3.2359         61.1041         3.93181 
        3.25157         60.7747         3.88467 
        3.26729         60.0602         3.83816 
        3.28304         59.2365         3.79233 
        3.29877         58.8514          3.7473 
        3.31446         58.2047          3.7031 
        3.33014         57.7046         3.65965 
        3.34585         57.1199         3.61684 
        3.36158          56.742         3.57464 
        3.37727         56.0055         3.53325 
        3.39294         55.4968         3.49255 
        3.40867          55.023         3.45235 
        3.42439         54.3883          3.4128 
        3.44008         53.7859         3.37395 
        3.45578         53.3696         3.33567 
        3.47153         52.8535         3.29791 
        3.48724         52.3185         3.26079 
        3.50292         51.8217         3.22433 
        3.51859         51.3775         3.18845 
        3.53431         50.7239           3.153 
        3.55007         50.2324           3.118 
        3.56577         49.7683         3.08367 
        3.58146         49.2329         3.04988 
        3.59719          48.824         3.01651 
        3.61292         48.2552         2.98365 
        3.62859         47.9664         2.95141 
        3.64429         47.5966         2.91958 
        3.66003         47.1859         2.88812 
        3.67578         46.6696         2.85714 
        3.69146          46.245         2.82673 
        3.70712         45.8614         2.79681 
        3.72284         45.4174         2.76722 
        3.73853         44.9632         2.73811 
        3.75422         44.5129          2.7094 
        3.76993         44.1532         2.68109 
        3.78564         43.7465         2.65318 
        3.80137         43.4497         2.62563 
        3.81707         42.8728         2.59853 
        3.83279         42.6072         2.57179 
        3.84853         42.1318         2.54538 
        3.86424         41.6907          2.5194 
        3.87992         41.3705         2.49381 
        3.89561         41.0632         2.46858 
        3.91134         40.6993         2.44365 
        3.92704         40.3211         2.41909 
        3.94273         39.9646         2.39489 
        3.95845         39.5735         2.37098 
        3.97418         39.2489         2.34738 
        3.98988         38.8468         2.32415 
        4.00554         38.5342         2.30129 
        4.02125         38.2826         2.27867 
        4.03698         37.8375         2.25632 
        4.05268         37.6623         2.23432 
        4.06839         37.2204          2.2126 
         4.0841         37.0038         2.19117 
        4.09983         36.5775            2.17 
        4.11555         36.3091         2.14911 
        4.13124         35.8847         2.12856 
        4.14693          35.614         2.10826 
        4.16266         35.3311         2.08817 
        4.17839         35.0144         2.06836 
        4.19408         34.7611         2.04885 
        4.20977         34.4869         2.02959 
        4.22551         34.1036         2.01052 
        4.24123         33.8741         1.99172 
        4.25691         33.5595         1.97322 
        4.27259          33.306         1.95494 
        4.28831         32.9798         1.93685 
        4.30404         32.7433         1.91898 
        4.31974         32.4479         1.90137 
        4.33543          32.201         1.88399 
        4.35116         31.8994         1.86679 
        4.36688         31.6082         1.84981 
        4.38255         31.4236          1.8331 
        4.39825         31.0762         1.81657 
        4.41398         30.8493          1.8002 
         4.4297         30.6066         1.78405 
        4.44541         30.4529         1.76811 
        4.46111         30.0611         1.75237 
        4.47683         29.8497         1.73681 
        4.49251         29.6551         1.72147 
        4.50819         29.4206         1.70632 
         4.5239         29.0919         1.69133 
        4.53962         28.9366          1.6765 
        4.55535         28.6483         1.66185 
        4.57106         28.4046         1.64739 
        4.58678         28.2296         1.63309 
         4.6025         27.9992         1.61897 
        4.61821         27.8228         1.60501 
        4.63391         27.4545         1.59124 
         4.6496         27.2861         1.57763 
        4.66532         27.1104         1.56416 
        4.68103         26.8691         1.55086 
        4.69673         26.6574         1.53772 
        4.71241         26.4916         1.52474 
        4.72811         26.2386          1.5119 
        4.74384          26.038         1.49919 
        4.75955         25.8699         1.48664 
        4.77525         25.6252         1.47424 
        4.79096         25.3881         1.46197 
        4.80669         25.2686         1.44983 
         4.8224         25.0362         1.43784 
        4.83809         24.7711         1.42601 
        4.85379         24.6069         1.41429 
         4.8695         24.4606          1.4027 
        4.88521         24.1935         1.39125 
        4.90093         24.0941         1.37992 
        4.91663         23.8492         1.36873 
        4.93234         23.6556         1.35764 
        4.94807         23.4829         1.34668 
        4.96377         23.3295         1.33585 
        4.97943         23.1226         1.32517 
        4.99514         22.9848         1.31458 
        5.01086         22.8052         1.30409 
        5.02654         22.6247         1.29375 
        5.04227         22.4773         1.28349 
          5.058         22.2537         1.27333 
        5.07371         22.0481          1.2633 
        5.08942         21.8969         1.25338 
        5.10513          21.803         1.24357 
        5.12084         21.6305         1.23385 
        5.13656         21.4213         1.22424 
        5.15225         21.3159         1.21475 
        5.16796         21.1134         1.20535 
        5.18369         20.9412         1.19603 
         5.1994         20.7807         1.18683 
        5.21509         20.6182         1.17774 
        5.23079          20.492         1.16873 
        5.24649         20.3353         1.15982 
        5.26217         20.2115         1.15101 
        5.27788         20.0543         1.14228 
        5.29359         19.8887         1.13364 
        5.30933         19.7149         1.12508 
        5.32504         19.5972         1.11662 
        5.34073         19.4392         1.10825 
        5.35646           19.32         1.09995 
        5.37218         19.1363         1.09174 
        5.38789         19.0093         1.08362 
        5.40357          18.872          1.0756 
        5.41929         18.7556         1.06764 
        5.43502         18.6041         1.05976 
         5.4507         18.4454         1.05197 
        5.46639         18.3043         1.04427 
        5.48212         18.2055         1.03662 
        5.49786         18.0888         1.02904 
        5.51353         17.9898         1.02157 
        5.52921         17.8321         1.01417 
        5.54495          17.701         1.00683 
        5.56066         17.5582        0.999559 
        5.57637         17.4458        0.992364 
        5.59207          17.314        0.985246 
        5.60778         17.2197        0.978196 
        5.62346         17.0733        0.971224 
        5.63916         16.9596        0.964313 
        5.65487         16.8324        0.957466 
         5.6706         16.7044        0.950677 
        5.68633         16.6017        0.943952 
        5.70203         16.4768        0.937306 
        5.71773         16.3701        0.930724 
        5.73344         16.2635        0.924203 
        5.74916          16.139        0.917737 
        5.76486         16.0244        0.911343 
        5.78054         15.9025        0.905019 
        5.79626          15.776        0.898737 
          5.812         15.7165        0.892509 
         5.8277         15.5688        0.886358 
        5.84339         15.4683        0.880264 
        5.85911          15.371        0.874217 
        5.87484         15.2441        0.868227 
        5.89053         15.1104        0.862305 
        5.90623          15.069        0.856435 
        5.92195         14.9277         0.85061 
        5.93767         14.8427        0.844843 
        5.95336         14.7373        0.839138 
        5.96905         14.6422        0.833488 
        5.98476         14.5569        0.827882 
        6.00048         14.4425        0.822326 
        6.01617         14.3638        0.816828 
        6.03185         14.2277        0.811387 
        6.04756         14.1398        0.805982 
        6.06331         14.0604        0.800616 
        6.07903         13.9479        0.795309 
        6.09473         13.8459        0.790055 
        6.11044         13.7539        0.784844 
        6.12616         13.6643        0.779681 
        6.14186         13.5839        0.774569 
        6.15755         13.4807        0.769504 
        6.17326         13.3853         0.76448 
        6.18898         13.2939        0.759498 
        6.20467          13.185        0.754569 
        6.22036         13.0923        0.749685 
         6.2361         13.0131         0.74483 
         6.2518         12.9406        0.740027 
        6.26748         12.8636        0.735276 
        6.28319         12.7875        0.730554 
        6.29893         12.6993        0.725869 
        6.31463         12.6046        0.721234 
        6.33033         12.5358         0.71664 
        6.34604          12.421        0.712083 
        6.36177         12.3497        0.707561 
        6.37747         12.2843        0.703087 
