# k  (h/Mpc)    Pcb(k)  (Mpc/h)^3    Pcb_linear(k) (Mpc/h)^3   ShotnoiseSubtracted = true
      0.0200456         20138.5           20604 
      0.0350414         14320.9         14978.4 
      0.0492313         10670.2           10883 
      0.0637834         9224.39         9046.96 
      0.0800726          7281.1         7180.35 
       0.096163         5050.85         5209.97 
       0.111083          4053.9          4155.6 
       0.126058         3735.39         3682.71 
       0.142273          3234.3         3120.07 
       0.158546         2816.13          2464.2 
        0.17375         2252.05         2076.08 
       0.188953          2200.5         1879.85 
       0.204907          2068.6         1663.28 
       0.220756         1789.93         1407.24 
        0.23588         1596.76         1224.17 
         0.2514         1389.65         1112.15 
       0.267535         1387.56          1006.3 
       0.283568         1258.34         887.426 
       0.299022         1189.08          790.65 
       0.314451         1133.65         722.601 
       0.330372         1041.58         662.905 
       0.346141         989.376         601.687 
       0.361624          951.24         546.851 
       0.377134         885.098          503.19 
       0.392932         851.117         465.591 
       0.408854         832.432         429.185 
       0.424564         772.461         395.586 
       0.440253         759.694         366.754 
       0.455999         728.387         341.684 
       0.471626         700.382         318.644 
        0.48727         672.237         297.092 
       0.502856         654.304         277.731 
       0.518488         647.316         260.455 
       0.534347         606.163         244.395 
       0.550082         588.807         229.587 
       0.565732          587.56          216.04 
       0.581496         553.918         203.632 
       0.597222         544.564         192.252 
       0.612804         533.107         181.789 
       0.628434         517.267         172.036 
       0.644267         504.039         162.918 
       0.660051         488.361         154.514 
       0.675724          484.21         146.754 
       0.691403         468.165         139.521 
       0.707174         452.851         132.734 
       0.722871         448.013         126.426 
        0.73838         440.521         120.595 
       0.754018         429.457         115.088 
       0.769845          420.84         109.865 
        0.78569         414.989         104.961 
       0.801365         404.012         100.406 
       0.817031         391.895         96.1254 
       0.832809         389.506         92.0683 
       0.848511         380.426         88.2647 
       0.864097         370.558         84.7031 
       0.879701         365.836         81.3356 
       0.895507         362.139         78.1123 
       0.911279         350.872         75.0712 
        0.92691         346.881         72.2179 
       0.942635         338.981         69.4979 
       0.958396         331.273         66.9128 
       0.974128         326.041         64.4645 
       0.989692         323.089         62.1633 
        1.00528         315.689         59.9716 
        1.02113         313.914         57.8517 
        1.03692         305.155         55.8424 
        1.05264         303.123         53.9383 
        1.06832          295.39         52.1262 
        1.08405         291.003         50.3929 
        1.09979         285.654         48.7378 
        1.11537         281.251         47.1736 
        1.13105          275.64          45.669 
        1.14679         271.241         44.2245 
        1.16256         266.377         42.8399 
        1.17828         264.241         41.5194 
        1.19395         257.993         40.2592 
         1.2097         256.436          39.045 
        1.22537         250.583          37.887 
          1.241         249.358         36.7796 
        1.25666         243.974         35.7139 
        1.27241         240.909         34.6855 
        1.28819         237.605          33.696 
        1.30392         231.899         32.7482 
        1.31957         232.338         31.8411 
        1.33529         227.309         30.9652 
        1.35108         222.129         30.1188 
        1.36674         220.681         29.3103 
         1.3824         218.963         28.5322 
        1.39811         215.827         27.7799 
        1.41389         212.256         27.0519 
        1.42964         210.013         26.3513 
        1.44531         206.958          25.679 
        1.46101         204.103         25.0288 
        1.47667         200.663         24.4032 
        1.49229         199.023         23.8006 
        1.50793         194.699         23.2177 
        1.52367         193.321         22.6507 
        1.53953         190.497         22.0989 
        1.55526         186.158         21.5698 
        1.57092         185.292         21.0604 
        1.58662         183.021         20.5662 
        1.60235         179.736         20.0869 
        1.61809         178.712         19.6228 
        1.63369         175.097         19.1774 
        1.64941         171.659         18.7427 
        1.66519         171.101           18.32 
        1.68085         168.897         17.9133 
        1.69652         166.323         17.5189 
        1.71228          163.23         17.1341 
        1.72806         161.611         16.7606 
        1.74368         159.925          16.402 
        1.75933         157.006         16.0532 
        1.77505         155.848         15.7129 
        1.79081         154.535          15.382 
         1.8065         152.386          15.062 
        1.82218         149.886         14.7513 
        1.83797         148.898         14.4474 
        1.85367         146.694         14.1537 
        1.86928         144.188         13.8699 
        1.88497         142.391         13.5924 
        1.90073         141.192         13.3215 
        1.91647           139.4         13.0582 
        1.93218         137.779         12.8025 
        1.94787         135.822         12.5542 
        1.96363         133.767         12.3114 
        1.97935         132.374         12.0756 
        1.99499         130.293         11.8472 
        2.01064         129.151         11.6245 
         2.0264         127.279         11.4061 
        2.04216         125.804         11.1934 
        2.05781         124.777         10.9875 
        2.07353         123.566         10.7861 
        2.08928         120.943         10.5892 
        2.10499         119.734         10.3978 
        2.12065         118.004         10.2118 
        2.13633         117.458         10.0301 
        2.15211         114.976         9.85166 
        2.16785         113.398         9.67808 
        2.18349         112.648         9.50977 
        2.19916         111.382         9.34511 
        2.21489         109.957         9.18382 
        2.23063         108.236         9.02622 
         2.2463         107.096         8.87304 
        2.26194         105.799         8.72379 
        2.27765         104.754         8.57722 
        2.29341         103.739         8.43364 
        2.30914         102.444         8.29364 
        2.32486         101.408          8.1569 
        2.34061         100.105         8.02302 
        2.35635          98.707         7.89226 
        2.37203         97.4372         7.76488 
        2.38768         96.4884         7.64057 
        2.40339         95.5412         7.51854 
        2.41914         94.2617         7.39888 
        2.43483         93.2948         7.28226 
         2.4505         92.1088         7.16835 
        2.46622         90.9052         7.05649 
        2.48195         89.8428           6.947 
        2.49759         88.6375         6.84043 
        2.51328         88.3174         6.73581 
        2.52906         86.6645         6.63273 
        2.54479         85.8383         6.53218 
        2.56049          84.967         6.43392 
        2.57618         84.0695         6.33776 
        2.59189         83.0685         6.24343 
        2.60758         82.3903         6.15116 
        2.62325         81.1976         6.06087 
        2.63898         80.0833         5.97208 
        2.65468         79.3459         5.88526 
        2.67044         78.4723         5.79979 
        2.68618          77.681         5.71622 
        2.70184         77.2026         5.63463 
        2.71755          76.155         5.55442 
        2.73329         75.3345         5.47566 
        2.74897         74.4266         5.39868 
        2.76462          73.566         5.32335 
        2.78034         72.9373         5.24915 
        2.79607         71.7219         5.17629 
        2.81179         71.1533         5.10489 
        2.82749         70.2994         5.03492 
        2.84321         69.8193         4.96618 
        2.85893         69.0015         4.89875 
        2.87462         68.0374         4.83269 
        2.89033         67.3769         4.76778 
        2.90605         66.6549         4.70401 
        2.92176         66.0572         4.64144 
        2.93747         65.6233         4.58004 
        2.95318         64.7196         4.51973 
        2.96891         64.2427         4.46049 
        2.98456         63.5342         4.40257 
        3.00023         62.6041         4.34559 
        3.01596         62.1296         4.28945 
        3.03164         61.2975         4.23446 
        3.04738         60.8393         4.18027 
         3.0631         60.1569         4.12704 
        3.07883         59.5555         4.07475 
        3.09456         58.9188         4.02336 
        3.11026         58.2019         3.97294 
        3.12596         57.6412          3.9234 
        3.14163         57.0839         3.87481 
        3.15734         56.6648         3.82693 
        3.17308         55.8348         3.77974 
        3.18879         55.5668         3.73348 
        3.20447         54.5896         3.68806 
         3.2202         54.3635         3.64325 
         3.2359         53.7295         3.59927 
        3.25157         53.1393         3.55612 
        3.26729         52.7291         3.51355 
        3.28304         52.1672         3.47159 
        3.29877         51.6972         3.43037 
        3.31446         50.9638         3.38991 
        3.33014         50.6446         3.35013 
        3.34585         50.3826         3.31094 
        3.36158         49.7801         3.27231 
        3.37727         49.3182         3.23442 
        3.39294          48.808         3.19717 
        3.40867           48.31         3.16036 
        3.42439         47.6627         3.12416 
        3.44008         47.3618         3.08859 
        3.45578         46.8314         3.05355 
        3.47153         46.3835         3.01898 
        3.48724         45.9847           2.985 
        3.50292         45.6175         2.95163 
        3.51859         45.1076         2.91878 
        3.53431         44.6948         2.88633 
        3.55007         44.1311         2.85429 
        3.56577         43.8662         2.82287 
        3.58146         43.3893         2.79193 
        3.59719         43.0143         2.76139 
        3.61292         42.4779         2.73131 
        3.62859         42.2372         2.70179 
        3.64429         41.9257         2.67265 
        3.66003         41.4446         2.64386 
        3.67578         40.9245         2.61549 
        3.69146         40.6476         2.58765 
        3.70712          40.292         2.56027 
        3.72284         39.8032         2.53318 
        3.73853          39.499         2.50653 
        3.75422         39.0449         2.48025 
        3.76993         38.8903         2.45433 
        3.78564         38.5283         2.42879 
        3.80137         38.1129         2.40357 
        3.81707          37.735         2.37876 
        3.83279         37.5778         2.35428 
        3.84853         37.1227          2.3301 
        3.86424         36.6664         2.30632 
        3.87992         36.5005         2.28289 
        3.89561         36.1298          2.2598 
        3.91134         35.6354         2.23697 
        3.92704         35.5217         2.21449 
        3.94273         35.0589         2.19234 
        3.95845         34.8783         2.17045 
        3.97418         34.5303         2.14885 
        3.98988         34.2296         2.12758 
        4.00554          33.865         2.10665 
        4.02125         33.5452         2.08595 
        4.03698         33.3161         2.06549 
        4.05268         33.0448         2.04535 
        4.06839          32.717         2.02546 
         4.0841         32.5046         2.00585 
        4.09983         32.1544         1.98647 
        4.11555         31.8681         1.96735 
        4.13124         31.6449         1.94853 
        4.14693         31.2821         1.92995 
        4.16266         31.0325         1.91156 
        4.17839         30.7577         1.89343 
        4.19408         30.4766         1.87557 
        4.20977         30.2338         1.85793 
        4.22551         29.9743         1.84048 
        4.24123         29.7999         1.82327 
        4.25691         29.4777         1.80633 
        4.27259         29.2706          1.7896 
        4.28831         28.9478         1.77304 
        4.30404         28.7681         1.75668 
        4.31974         28.4589         1.74056 
        4.33543         28.2119         1.72465 
        4.35116         28.1323         1.70891 
        4.36688         27.7929         1.69336 
        4.38255         27.5043         1.67807 
        4.39825         27.3054         1.66293 
        4.41398           27.04         1.64795 
         4.4297         26.8617         1.63317 
        4.44541         26.5951         1.61857 
        4.46111         26.4289         1.60416 
        4.47683         26.2146         1.58992 
        4.49251         25.9629         1.57588 
        4.50819         25.7468         1.56201 
         4.5239         25.5513         1.54829 
        4.53962         25.3444         1.53471 
        4.55535         25.1428          1.5213 
        4.57106         24.9466         1.50806 
        4.58678         24.7497         1.49497 
         4.6025         24.5731         1.48204 
        4.61821         24.3961         1.46927 
        4.63391         24.1337         1.45666 
         4.6496         23.9429          1.4442 
        4.66532         23.7714         1.43187 
        4.68103          23.548         1.41969 
        4.69673         23.3749         1.40766 
        4.71241         23.2366         1.39579 
        4.72811         23.0052         1.38403 
        4.74384         22.8543         1.37239 
        4.75955          22.677          1.3609 
        4.77525         22.4599         1.34955 
        4.79096         22.3299         1.33832 
        4.80669         22.1183         1.32721 
         4.8224         21.9405         1.31624 
        4.83809         21.7866          1.3054 
        4.85379          21.517         1.29468 
         4.8695         21.4594         1.28407 
        4.88521         21.2724         1.27358 
        4.90093         21.0698         1.26321 
        4.91663         20.8833         1.25296 
        4.93234         20.7854         1.24282 
        4.94807         20.5772         1.23278 
        4.96377         20.4748         1.22287 
        4.97943         20.3329         1.21309 
        4.99514         20.1376          1.2034 
        5.01086         19.9897          1.1938 
        5.02654         19.8083         1.18433 
        5.04227         19.6921         1.17493 
          5.058         19.5024         1.16564 
        5.07371         19.3812         1.15646 
        5.08942         19.2494         1.14738 
        5.10513         19.0885         1.13839 
        5.12084         18.9433          1.1295 
        5.13656         18.7487          1.1207 
        5.15225         18.6749         1.11201 
        5.16796         18.5547          1.1034 
        5.18369         18.3666         1.09488 
         5.1994          18.276         1.08646 
        5.21509         18.0881         1.07813 
        5.23079         17.9699         1.06988 
        5.24649         17.8489         1.06173 
        5.26217         17.6885         1.05367 
        5.27788         17.5602         1.04567 
        5.29359         17.4674         1.03776 
        5.30933         17.2792         1.02992 
        5.32504         17.1764         1.02218 
        5.34073         17.0636         1.01452 
        5.35646         16.9559         1.00692 
        5.37218         16.7976        0.999405 
        5.38789         16.6858        0.991975 
        5.40357         16.5719        0.984629 
        5.41929         16.4823        0.977342 
        5.43502         16.3205        0.970127 
         5.4507         16.2264        0.963002 
        5.46639         16.0878        0.955947 
        5.48212         15.9527        0.948947 
        5.49786         15.8374        0.942009 
        5.51353          15.738        0.935174 
        5.52921         15.6639          0.9284 
        5.54495         15.5479        0.921673 
        5.56066         15.4401         0.91502 
        5.57637         15.2997        0.908434 
        5.59207         15.1772        0.901918 
        5.60778         15.1182        0.895464 
        5.62346         15.0038        0.889081 
        5.63916         14.8524        0.882755 
        5.65487         14.7767        0.876487 
         5.6706         14.6464        0.870273 
        5.68633         14.5587        0.864116 
        5.70203          14.473        0.858032 
        5.71773         14.3601        0.852008 
        5.73344         14.2729        0.846037 
        5.74916         14.1664        0.840119 
        5.76486         14.0497        0.834265 
        5.78054          13.964        0.828476 
        5.79626         13.8628        0.822726 
          5.812         13.7653        0.817024 
         5.8277         13.6562        0.811393 
        5.84339         13.5835        0.805815 
        5.85911         13.4799        0.800279 
        5.87484         13.3916        0.794796 
        5.89053         13.2852        0.789375 
        5.90623         13.2004        0.784002 
        5.92195         13.1031        0.778669 
        5.93767         13.0157        0.773389 
        5.95336         12.9272        0.768167 
        5.96905         12.8453        0.762995 
        5.98476         12.7675        0.757863 
        6.00048         12.6406        0.752777 
        6.01617         12.5919        0.747744 
        6.03185         12.5037        0.742763 
        6.04756         12.4332        0.737816 
        6.06331         12.3259        0.732903 
        6.07903          12.239        0.728045 
        6.09473         12.1679        0.723236 
        6.11044         12.0869        0.718465 
        6.12616         12.0161        0.713739 
        6.14186         11.9313        0.709059 
        6.15755         11.8491        0.704422 
        6.17326         11.7363        0.699823 
        6.18898         11.7017        0.695263 
        6.20467         11.6061        0.690751 
        6.22036         11.5175         0.68628 
         6.2361         11.4528        0.681836 
         6.2518         11.3906        0.677438 
        6.26748          11.305         0.67309 
        6.28319         11.2276        0.668767 
        6.29893           11.15        0.664478 
        6.31463          11.078        0.660235 
        6.33033          10.994        0.656029 
        6.34604         10.9446        0.651858 
        6.36177         10.8565        0.647718 
        6.37747         10.8067        0.643623 
