# k  (h/Mpc)    Pcb(k)  (Mpc/h)^3    Pcb_linear(k) (Mpc/h)^3   ShotnoiseSubtracted = true
      0.0200456         177.206         179.595 
      0.0350414         130.595          130.56 
      0.0492313         95.2699         94.8622 
      0.0637834         79.1227         78.8581 
      0.0800726         62.7118         62.5877 
       0.096163         45.5084         45.4128 
       0.111083         36.2217         36.2224 
       0.126058         32.1204         32.1005 
       0.142273         27.2403         27.1962 
       0.158546         21.6065         21.4793 
        0.17375         18.0875         18.0963 
       0.188953         16.3916         16.3858 
       0.204907         14.6584          14.498 
       0.220756         12.3418         12.2662 
        0.23588         10.7362         10.6706 
         0.2514         9.70125         9.69409 
       0.267535         8.78115         8.77149 
       0.283568         7.76739         7.73527 
       0.299022         6.94104         6.89173 
       0.314451         6.27627         6.29857 
       0.330372         5.78211         5.77823 
       0.346141         5.25219         5.24463 
       0.361624         4.78983         4.76665 
       0.377134         4.42224         4.38607 
       0.392932         4.01904         4.05834 
       0.408854         3.76554         3.74101 
       0.424564         3.45211         3.44814 
       0.440253         3.20413         3.19683 
       0.455999         2.99969          2.9783 
       0.471626         2.80475         2.77747 
        0.48727         2.59924         2.58961 
       0.502856         2.42306         2.42085 
       0.518488         2.29693         2.27027 
       0.534347         2.16754         2.13028 
       0.550082         2.00651          2.0012 
       0.565732         1.86711         1.88311 
       0.581496         1.78735         1.77496 
       0.597222         1.69182         1.67577 
       0.612804         1.59131         1.58457 
       0.628434         1.51867         1.49956 
       0.644267         1.43056         1.42008 
       0.660051          1.3521         1.34683 
       0.675724         1.28865         1.27919 
       0.691403         1.23008         1.21614 
       0.707174         1.16524         1.15698 
       0.722871         1.10434         1.10199 
        0.73838         1.06183         1.05117 
       0.754018         1.01906         1.00317 
       0.769845        0.969182        0.957639 
        0.78569        0.924839        0.914899 
       0.801365        0.882225        0.875193 
       0.817031         0.84678         0.83788 
       0.832809        0.810828        0.802516 
       0.848511        0.774367        0.769362 
       0.864097        0.739717        0.738317 
       0.879701        0.709858        0.708964 
       0.895507         0.68729        0.680868 
       0.911279        0.661282        0.654361 
        0.92691        0.634043         0.62949 
       0.942635        0.610449         0.60578 
       0.958396        0.585646        0.583247 
       0.974128        0.564264        0.561907 
       0.989692        0.545967        0.541849 
        1.00528         0.52727        0.522745 
        1.02113        0.504134        0.504266 
        1.03692        0.489932        0.486752 
        1.05264        0.472813        0.470155 
        1.06832         0.45752         0.45436 
        1.08405        0.438948        0.439252 
        1.09979        0.424805        0.424824 
        1.11537        0.414441         0.41119 
        1.13105         0.40057        0.398075 
        1.14679         0.38977        0.385484 
        1.16256        0.373291        0.373416 
        1.17828        0.362088        0.361905 
        1.19395        0.350259         0.35092 
         1.2097        0.338724        0.340337 
        1.22537        0.331623        0.330243 
          1.241        0.320864        0.320591 
        1.25666        0.313456        0.311301 
        1.27241        0.302154        0.302337 
        1.28819         0.29331        0.293712 
        1.30392        0.285327         0.28545 
        1.31957        0.277752        0.277544 
        1.33529        0.269073        0.269909 
        1.35108        0.261606        0.262532 
        1.36674        0.252471        0.255484 
         1.3824        0.249017        0.248702 
        1.39811        0.240841        0.242144 
        1.41389        0.234785        0.235799 
        1.42964        0.229683        0.229692 
        1.44531        0.221613        0.223832 
        1.46101        0.217062        0.218165 
        1.47667        0.209869        0.212711 
        1.49229        0.205888        0.207459 
        1.50793        0.199741        0.202378 
        1.52367         0.19544        0.197436 
        1.53953         0.19086        0.192625 
        1.55526        0.186281        0.188014 
        1.57092        0.180352        0.183573 
        1.58662        0.177037        0.179266 
        1.60235        0.173419        0.175088 
        1.61809        0.167556        0.171042 
        1.63369          0.1654         0.16716 
        1.64941        0.161192        0.163371 
        1.66519        0.156889        0.159686 
        1.68085        0.152915        0.156142 
        1.69652        0.149423        0.152704 
        1.71228         0.14693         0.14935 
        1.72806        0.142386        0.146094 
        1.74368        0.140267        0.142969 
        1.75933        0.136921        0.139928 
        1.77505        0.133728        0.136962 
        1.79081        0.131401        0.134077 
         1.8065        0.127492        0.131288 
        1.82218        0.125362        0.128581 
        1.83797        0.122384        0.125931 
        1.85367        0.120002        0.123371 
        1.86928        0.117763        0.120897 
        1.88497        0.115424        0.118478 
        1.90073         0.11266        0.116117 
        1.91647        0.110276        0.113822 
        1.93218        0.107864        0.111594 
        1.94787        0.105616        0.109429 
        1.96363        0.103778        0.107313 
        1.97935        0.101171        0.105257 
        1.99499       0.0995739        0.103267 
        2.01064       0.0978164        0.101325 
         2.0264       0.0956692       0.0994216 
        2.04216       0.0940029       0.0975678 
        2.05781       0.0921028        0.095773 
        2.07353       0.0897787       0.0940171 
        2.08928       0.0882492       0.0923014 
        2.10499       0.0863769       0.0906331 
        2.12065       0.0852812       0.0890112 
        2.13633       0.0831833       0.0874276 
        2.15211       0.0822551       0.0858723 
        2.16785       0.0804109       0.0843593 
        2.18349       0.0783817       0.0828922 
        2.19916       0.0777827        0.081457 
        2.21489       0.0762941        0.080051 
        2.23063       0.0748188       0.0786773 
         2.2463       0.0731845       0.0773421 
        2.26194       0.0718454       0.0760412 
        2.27765       0.0705306       0.0747636 
        2.29341       0.0696493        0.073512 
        2.30914       0.0680404       0.0722917 
        2.32486       0.0668456       0.0710999 
        2.34061       0.0658305       0.0699329 
        2.35635       0.0645369       0.0687932 
        2.37203       0.0634949       0.0676828 
        2.38768       0.0623641       0.0665993 
        2.40339       0.0612623       0.0655356 
        2.41914       0.0604797       0.0644926 
        2.43483       0.0590923       0.0634761 
         2.4505       0.0580235       0.0624831 
        2.46622       0.0571477       0.0615081 
        2.48195       0.0560248       0.0605538 
        2.49759        0.055493       0.0596248 
        2.51328       0.0546525       0.0587129 
        2.52906       0.0535957       0.0578144 
        2.54479       0.0526439        0.056938 
        2.56049       0.0518298       0.0560814 
        2.57618       0.0510031       0.0552433 
        2.59189       0.0501927        0.054421 
        2.60758       0.0495702       0.0536168 
        2.62325       0.0486015       0.0528298 
        2.63898       0.0478801       0.0520559 
        2.65468       0.0469041        0.051299 
        2.67044       0.0465055       0.0505541 
        2.68618       0.0456741       0.0498256 
        2.70184       0.0448968       0.0491144 
        2.71755       0.0440397       0.0484153 
        2.73329       0.0435383       0.0477288 
        2.74897       0.0429967       0.0470578 
        2.76462       0.0421557       0.0464012 
        2.78034       0.0416133       0.0457544 
        2.79607       0.0409718       0.0451193 
        2.81179       0.0404147       0.0444969 
        2.82749       0.0397014        0.043887 
        2.84321       0.0391575       0.0432879 
        2.85893       0.0385771       0.0427001 
        2.87462       0.0382018       0.0421243 
        2.89033       0.0375385       0.0415585 
        2.90605       0.0368245       0.0410026 
        2.92176       0.0365013       0.0404572 
        2.93747       0.0359202        0.039922 
        2.95318       0.0352831       0.0393964 
        2.96891       0.0349114         0.03888 
        2.98456       0.0344979       0.0383751 
        3.00023       0.0338623       0.0378785 
        3.01596       0.0333744       0.0373891 
        3.03164       0.0330791       0.0369098 
        3.04738       0.0325487       0.0364374 
         3.0631       0.0319698       0.0359735 
        3.07883       0.0315463       0.0355176 
        3.09456       0.0312898       0.0350698 
        3.11026       0.0307496       0.0346303 
        3.12596       0.0304722       0.0341984 
        3.14163       0.0299846       0.0337749 
        3.15734       0.0296251       0.0333575 
        3.17308       0.0292234       0.0329462 
        3.18879       0.0287801        0.032543 
        3.20447       0.0285232       0.0321471 
         3.2202       0.0281237       0.0317565 
         3.2359       0.0278232       0.0313732 
        3.25157        0.027359        0.030997 
        3.26729       0.0270527       0.0306259 
        3.28304        0.026729       0.0302602 
        3.29877       0.0264192       0.0299009 
        3.31446       0.0260366       0.0295482 
        3.33014       0.0257458       0.0292015 
        3.34585       0.0254418       0.0288599 
        3.36158       0.0250333       0.0285232 
        3.37727       0.0248446       0.0281929 
        3.39294       0.0245708       0.0278682 
        3.40867       0.0242492       0.0275474 
        3.42439       0.0239646       0.0272318 
        3.44008       0.0236917       0.0269218 
        3.45578       0.0234871       0.0266164 
        3.47153       0.0231409        0.026315 
        3.48724       0.0230275       0.0260189 
        3.50292       0.0226031        0.025728 
        3.51859       0.0223038       0.0254416 
        3.53431       0.0221969       0.0251588 
        3.55007       0.0219192       0.0248795 
        3.56577        0.021741       0.0246056 
        3.58146       0.0213917        0.024336 
        3.59719       0.0212466       0.0240697 
        3.61292       0.0209313       0.0238075 
        3.62859       0.0207321       0.0235502 
        3.64429       0.0205919       0.0232963 
        3.66003       0.0203071       0.0230452 
        3.67578       0.0201374        0.022798 
        3.69146       0.0199584       0.0225554 
        3.70712       0.0197944       0.0223167 
        3.72284       0.0195434       0.0220805 
        3.73853       0.0193212       0.0218482 
        3.75422       0.0192494       0.0216192 
        3.76993       0.0189565       0.0213932 
        3.78564       0.0188328       0.0211706 
        3.80137       0.0186291       0.0209508 
        3.81707       0.0183924       0.0207345 
        3.83279       0.0182749       0.0205211 
        3.84853       0.0181129       0.0203104 
        3.86424       0.0179228       0.0201031 
        3.87992       0.0177775       0.0198989 
        3.89561       0.0176479       0.0196976 
        3.91134       0.0174867       0.0194986 
        3.92704       0.0172575       0.0193027 
        3.94273       0.0171119       0.0191096 
        3.95845       0.0169681       0.0189188 
        3.97418       0.0168518       0.0187305 
        3.98988       0.0166476       0.0185451 
        4.00554       0.0164732       0.0183627 
        4.02125        0.016256       0.0181822 
        4.03698       0.0160939       0.0180039 
        4.05268       0.0158794       0.0178284 
        4.06839       0.0156218        0.017655 
         4.0841       0.0154265       0.0174841 
        4.09983        0.015201       0.0173151 
        4.11555        0.015053       0.0171485 
        4.13124       0.0148434       0.0169845 
        4.14693       0.0146057       0.0168225 
        4.16266       0.0144378       0.0166622 
        4.17839       0.0142765       0.0165041 
        4.19408       0.0141379       0.0163485 
        4.20977       0.0139582       0.0161947 
        4.22551       0.0137425       0.0160426 
        4.24123       0.0136051       0.0158926 
        4.25691       0.0134788       0.0157449 
        4.27259       0.0133345       0.0155991 
        4.28831       0.0132442       0.0154548 
        4.30404       0.0131059       0.0153122 
        4.31974       0.0129494       0.0151717 
        4.33543       0.0128466        0.015033 
        4.35116       0.0127445       0.0148957 
        4.36688       0.0126445       0.0147602 
        4.38255       0.0125291       0.0146269 
        4.39825       0.0124878        0.014495 
        4.41398        0.012437       0.0143644 
         4.4297       0.0123307       0.0142355 
        4.44541       0.0122513       0.0141083 
        4.46111       0.0121648       0.0139827 
        4.47683       0.0121359       0.0138586 
        4.49251       0.0120481       0.0137362 
        4.50819       0.0120157       0.0136153 
         4.5239       0.0119699       0.0134957 
        4.53962       0.0119436       0.0133774 
        4.55535       0.0119235       0.0132604 
        4.57106       0.0119406        0.013145 
        4.58678       0.0118753        0.013031 
         4.6025       0.0118937       0.0129183 
        4.61821       0.0119071       0.0128069 
        4.63391       0.0118609        0.012697 
         4.6496       0.0118648       0.0125884 
        4.66532       0.0118656        0.012481 
        4.68103       0.0119026       0.0123748 
        4.69673       0.0119143       0.0122699 
        4.71241       0.0119798       0.0121664 
        4.72811       0.0119781       0.0120639 
        4.74384       0.0120011       0.0119625 
        4.75955       0.0120839       0.0118624 
        4.77525       0.0121349       0.0117634 
        4.79096       0.0122158       0.0116655 
        4.80669       0.0122053       0.0115687 
         4.8224       0.0123337        0.011473 
        4.83809       0.0123628       0.0113786 
        4.85379       0.0124997       0.0112851 
         4.8695       0.0125253       0.0111926 
        4.88521       0.0126265       0.0111012 
        4.90093       0.0127495       0.0110108 
        4.91663       0.0128942       0.0109215 
        4.93234       0.0129751       0.0108331 
        4.94807       0.0130553       0.0107456 
        4.96377       0.0131942       0.0106592 
        4.97943       0.0133422        0.010574 
        4.99514       0.0134738       0.0104894 
        5.01086       0.0135403       0.0104058 
        5.02654       0.0137726       0.0103232 
        5.04227       0.0139081       0.0102413 
          5.058       0.0140597       0.0101603 
        5.07371       0.0142225       0.0100803 
        5.08942       0.0145164       0.0100011 
        5.10513       0.0146487      0.00992282 
        5.12084        0.014753       0.0098453 
        5.13656       0.0150451      0.00976863 
        5.15225       0.0152215       0.0096929 
        5.16796       0.0155328      0.00961786 
        5.18369       0.0156468      0.00954353 
         5.1994       0.0159032      0.00947013 
        5.21509        0.016141      0.00939757 
        5.23079       0.0163371      0.00932568 
        5.24649       0.0166146       0.0092546 
        5.26217       0.0169047      0.00918431 
        5.27788       0.0171674      0.00911465 
        5.29359       0.0174665      0.00904569 
        5.30933       0.0177036      0.00897735 
        5.32504       0.0179848      0.00890983 
        5.34073       0.0184365      0.00884308 
        5.35646        0.018676      0.00877688 
        5.37218       0.0190233      0.00871135 
        5.38789       0.0194507      0.00864658 
        5.40357       0.0197545      0.00858255 
        5.41929       0.0200121      0.00851903 
        5.43502       0.0204938      0.00845614 
         5.4507       0.0208399      0.00839403 
        5.46639       0.0212935      0.00833255 
        5.48212       0.0215056      0.00827153 
        5.49786       0.0220214      0.00821105 
        5.51353       0.0225957      0.00815147 
        5.52921       0.0230385      0.00809242 
        5.54495       0.0235202      0.00803379 
        5.56066       0.0240238       0.0079758 
        5.57637       0.0244703      0.00791839 
        5.59207       0.0248801       0.0078616 
        5.60778       0.0255104      0.00780534 
        5.62346       0.0260408      0.00774971 
        5.63916       0.0264989      0.00769456 
        5.65487       0.0271514      0.00763993 
         5.6706       0.0275885      0.00758576 
        5.68633       0.0283363       0.0075321 
        5.70203       0.0290165      0.00747906 
        5.71773       0.0296237      0.00742655 
        5.73344       0.0302457      0.00737451 
        5.74916       0.0310311      0.00732292 
        5.76486       0.0316815       0.0072719 
        5.78054       0.0322514      0.00722144 
        5.79626       0.0330889      0.00717131 
          5.812       0.0337974      0.00712162 
         5.8277       0.0347828      0.00707253 
        5.84339        0.035293      0.00702391 
        5.85911       0.0363208      0.00697566 
        5.87484       0.0371771      0.00692786 
        5.89053       0.0380876      0.00688061 
        5.90623        0.038961      0.00683377 
        5.92195       0.0399806      0.00678729 
        5.93767       0.0409556      0.00674127 
        5.95336        0.041905      0.00669575 
        5.96905       0.0428597      0.00665067 
        5.98476       0.0436148      0.00660594 
        6.00048       0.0448654       0.0065616 
        6.01617       0.0458694      0.00651773 
        6.03185       0.0470419      0.00647432 
        6.04756       0.0484235      0.00643119 
        6.06331       0.0496676      0.00638837 
        6.07903       0.0508294      0.00634603 
        6.09473       0.0521458       0.0063041 
        6.11044         0.05372      0.00626252 
        6.12616       0.0551086      0.00622133 
        6.14186        0.056332      0.00618054 
        6.15755       0.0577266      0.00614012 
        6.17326       0.0588199      0.00610003 
        6.18898       0.0607176      0.00606028 
        6.20467       0.0625353      0.00602095 
        6.22036       0.0641687      0.00598198 
         6.2361       0.0654141      0.00594324 
         6.2518       0.0678752      0.00590491 
        6.26748       0.0688164      0.00586701 
        6.28319       0.0713635      0.00582933 
        6.29893       0.0733488      0.00579195 
        6.31463       0.0750438      0.00575496 
        6.33033       0.0769405       0.0057183 
        6.34604       0.0789482      0.00568194 
        6.36177       0.0813746      0.00564586 
        6.37747       0.0831437      0.00561016 
