# k  (h/Mpc)    Pcb(k)  (Mpc/h)^3    Pcb_linear(k) (Mpc/h)^3   ShotnoiseSubtracted = true
      0.0200456         17889.2         18285.5 
      0.0350414         12752.5         13292.9 
      0.0492313         9495.01         9658.38 
      0.0637834         8188.24         8028.93 
      0.0800726          6467.1         6372.36 
       0.096163         4492.28          4623.7 
       0.111083         3596.41         3687.98 
       0.126058         3315.97          3268.3 
       0.142273         2869.89         2768.97 
       0.158546         2476.04         2186.91 
        0.17375         1979.34         1842.47 
       0.188953         1930.03         1668.31 
       0.204907         1814.63         1476.12 
       0.220756         1564.56         1248.88 
        0.23588            1391         1086.42 
         0.2514         1209.91         987.002 
       0.267535          1203.1         893.068 
       0.283568         1090.92         787.566 
       0.299022         1028.29          701.68 
       0.314451         979.061         641.288 
       0.330372         900.623          588.31 
       0.346141         844.859         533.981 
       0.361624         812.391         485.316 
       0.377134         754.855         446.567 
       0.392932         726.414           413.2 
       0.408854         706.365          380.89 
       0.424564         658.719         351.072 
       0.440253         647.542         325.484 
       0.455999          616.01         303.235 
       0.471626         589.113         282.788 
        0.48727         566.641         263.661 
       0.502856         551.478         246.478 
       0.518488         545.415         231.147 
       0.534347         509.824         216.894 
       0.550082         491.917         203.752 
       0.565732         491.512         191.729 
       0.581496         462.303         180.718 
       0.597222         455.448         170.619 
       0.612804         444.125         161.333 
       0.628434         429.296         152.677 
       0.644267         418.067         144.585 
       0.660051         405.646         137.127 
       0.675724         401.697          130.24 
       0.691403         388.882         123.821 
       0.707174         375.686         117.798 
       0.722871         371.396         112.199 
        0.73838         366.043         107.025 
       0.754018         355.762         102.137 
       0.769845         346.762         97.5019 
        0.78569          344.43         93.1503 
       0.801365         333.885         89.1077 
       0.817031         323.352         85.3087 
       0.832809         321.667         81.7081 
       0.848511         313.175         78.3325 
       0.864097         307.066         75.1717 
       0.879701         303.069         72.1831 
       0.895507         297.816         69.3225 
       0.911279          288.12         66.6236 
        0.92691         286.381         64.0914 
       0.942635          279.72         61.6775 
       0.958396         274.659         59.3833 
       0.974128         269.916         57.2104 
       0.989692          266.06         55.1683 
        1.00528         261.516         53.2232 
        1.02113         259.245         51.3418 
        1.03692         252.878         49.5586 
        1.05264          249.53         47.8687 
        1.06832         244.243         46.2606 
        1.08405         240.045         44.7223 
        1.09979         236.123         43.2534 
        1.11537         232.517         41.8653 
        1.13105         227.131           40.53 
        1.14679         226.344         39.2481 
        1.16256         222.038         38.0193 
        1.17828         218.524         36.8473 
        1.19395         214.514         35.7289 
         1.2097         214.322         34.6514 
        1.22537         209.153         33.6237 
          1.241         207.836         32.6409 
        1.25666         203.341         31.6951 
        1.27241         200.614         30.7824 
        1.28819          198.19         29.9043 
        1.30392         193.791         29.0631 
        1.31957         194.133         28.2581 
        1.33529         189.446         27.4807 
        1.35108         185.855         26.7296 
        1.36674         185.143         26.0121 
         1.3824         182.696         25.3216 
        1.39811         181.373         24.6539 
        1.41389         177.495         24.0078 
        1.42964         175.123         23.3861 
        1.44531         172.683         22.7894 
        1.46101         170.982         22.2124 
        1.47667         167.565         21.6571 
        1.49229         165.721         21.1224 
        1.50793         163.403         20.6051 
        1.52367          162.23         20.1019 
        1.53953         159.062         19.6121 
        1.55526         156.566         19.1426 
        1.57092         155.301         18.6905 
        1.58662         153.062         18.2519 
        1.60235         150.948         17.8266 
        1.61809         149.755         17.4147 
        1.63369         146.946         17.0194 
        1.64941          144.58         16.6336 
        1.66519         143.292         16.2585 
        1.68085         142.022         15.8975 
        1.69652         139.656         15.5475 
        1.71228         137.593          15.206 
        1.72806         136.035         14.8746 
        1.74368         135.097         14.5563 
        1.75933         132.777         14.2468 
        1.77505         131.172         13.9448 
        1.79081         130.293         13.6511 
         1.8065         128.559         13.3671 
        1.82218         126.023         13.0914 
        1.83797         124.712         12.8216 
        1.85367         123.502          12.561 
        1.86928         121.574         12.3092 
        1.88497         119.464         12.0629 
        1.90073         118.495         11.8224 
        1.91647         117.063         11.5888 
        1.93218         115.661         11.3619 
        1.94787         114.212         11.1415 
        1.96363         112.842          10.926 
        1.97935         110.896         10.7167 
        1.99499         109.855         10.5141 
        2.01064         108.613         10.3164 
         2.0264          107.07         10.1226 
        2.04216          106.23         9.93385 
        2.05781         105.007         9.75112 
        2.07353           103.9         9.57234 
        2.08928          101.98         9.39765 
        2.10499         100.492          9.2278 
        2.12065         99.8532         9.06266 
        2.13633         99.0083         8.90143 
        2.15211         97.4539         8.74308 
        2.16785         95.9458         8.58903 
        2.18349         94.9342         8.43966 
        2.19916         94.0064         8.29353 
        2.21489          92.889         8.15039 
        2.23063         91.4971         8.01052 
         2.2463         90.5008         7.87458 
        2.26194         90.2034         7.74213 
        2.27765         88.4722         7.61205 
        2.29341         87.6794         7.48462 
        2.30914         86.5264         7.36038 
        2.32486         85.8389         7.23902 
        2.34061         84.6672         7.12021 
        2.35635         83.0949         7.00417 
        2.37203         82.2351         6.89112 
        2.38768         81.5176          6.7808 
        2.40339         80.6189         6.67249 
        2.41914         79.4017         6.56631 
        2.43483         78.8382         6.46281 
         2.4505         77.8611         6.36171 
        2.46622         76.9106         6.26244 
        2.48195         76.0873         6.16527 
        2.49759         75.2982         6.07069 
        2.51328         74.5518         5.97785 
        2.52906         73.6097         5.88636 
        2.54479         72.9716         5.79713 
        2.56049         71.9663         5.70993 
        2.57618         71.3008         5.62459 
        2.59189         70.2646         5.54087 
        2.60758         69.4815         5.45899 
        2.62325          68.784         5.37886 
        2.63898         68.0345         5.30006 
        2.65468         67.2361         5.22301 
        2.67044         66.4305         5.14716 
        2.68618         65.8864         5.07299 
        2.70184         65.5672         5.00058 
        2.71755         64.6834          4.9294 
        2.73329         63.8052          4.8595 
        2.74897         63.2628         4.79118 
        2.76462         62.4583         4.72433 
        2.78034         61.6011         4.65848 
        2.79607           60.92         4.59381 
        2.81179         60.5011         4.53045 
        2.82749         59.7661         4.46835 
        2.84321         59.2479         4.40735 
        2.85893         58.4674         4.34751 
        2.87462         57.9269         4.28888 
        2.89033         57.2652         4.23127 
        2.90605         56.4989         4.17468 
        2.92176         56.2431         4.11915 
        2.93747         55.6725         4.06466 
        2.95318         54.9216         4.01114 
        2.96891         54.1528         3.95856 
        2.98456         53.7844         3.90716 
        3.00023         52.9301         3.85659 
        3.01596         52.5575         3.80677 
        3.03164         51.9795         3.75796 
        3.04738         51.4301         3.70987 
         3.0631         50.9637         3.66264 
        3.07883          50.385         3.61622 
        3.09456         50.0788         3.57062 
        3.11026         49.3343         3.52588 
        3.12596         48.9304         3.48191 
        3.14163         48.3384         3.43878 
        3.15734         48.0314         3.39629 
        3.17308         47.5226         3.35442 
        3.18879            47.1         3.31336 
        3.20447         46.2208         3.27305 
         3.2202         46.1629         3.23329 
         3.2359         45.6216         3.19426 
        3.25157         45.2498         3.15596 
        3.26729         44.7274         3.11818 
        3.28304         44.1523         3.08094 
        3.29877         43.7654         3.04436 
        3.31446         43.2358         3.00845 
        3.33014         42.9349         2.97315 
        3.34585         42.7285         2.93837 
        3.36158         42.2256         2.90409 
        3.37727         41.6661         2.87046 
        3.39294          41.336          2.8374 
        3.40867         40.8052         2.80473 
        3.42439         40.4788         2.77261 
        3.44008         40.0522         2.74104 
        3.45578         39.6217         2.70995 
        3.47153         39.3331         2.67926 
        3.48724         38.9937         2.64911 
        3.50292         38.6487         2.61949 
        3.51859          38.051         2.59034 
        3.53431         37.7497         2.56154 
        3.55007         37.4217         2.53311 
        3.56577         37.1067         2.50522 
        3.58146         36.7119         2.47776 
        3.59719         36.3423         2.45065 
        3.61292         36.1159         2.42396 
        3.62859          35.748         2.39776 
        3.64429         35.3993         2.37191 
        3.66003         35.0133         2.34635 
        3.67578         34.6876         2.32118 
        3.69146         34.4897         2.29647 
        3.70712         34.0716         2.27217 
        3.72284         33.7893         2.24813 
        3.73853         33.5352         2.22448 
        3.75422         33.2234         2.20116 
        3.76993         32.9092         2.17815 
        3.78564         32.6186         2.15548 
        3.80137         32.2436          2.1331 
        3.81707         31.9348         2.11108 
        3.83279         31.7308         2.08936 
        3.84853          31.507          2.0679 
        3.86424         31.1105         2.04679 
        3.87992         30.9156         2.02601 
        3.89561         30.5971         2.00551 
        3.91134         30.3082         1.98525 
        3.92704         30.0877          1.9653 
        3.94273         29.7646         1.94564 
        3.95845         29.4152         1.92621 
        3.97418         29.2835         1.90705 
        3.98988         28.9836         1.88817 
        4.00554         28.6937          1.8696 
        4.02125         28.5721         1.85122 
        4.03698         28.1518         1.83306 
        4.05268         28.0957         1.81519 
        4.06839         27.7691         1.79754 
         4.0841         27.5162         1.78014 
        4.09983         27.2297         1.76294 
        4.11555         27.0707         1.74597 
        4.13124         26.7631         1.72927 
        4.14693         26.6132         1.71278 
        4.16266         26.3303         1.69646 
        4.17839         26.0261         1.68037 
        4.19408         25.8635         1.66452 
        4.20977         25.6417         1.64887 
        4.22551          25.465         1.63338 
        4.24123          25.203          1.6181 
        4.25691         25.0564         1.60307 
        4.27259         24.8152         1.58822 
        4.28831         24.5573         1.57353 
        4.30404         24.3543         1.55901 
        4.31974          24.207          1.5447 
        4.33543         23.9279         1.53058 
        4.35116         23.7841         1.51661 
        4.36688         23.5676         1.50281 
        4.38255         23.3846         1.48924 
        4.39825         23.1501          1.4758 
        4.41398         22.9341         1.46251 
         4.4297         22.7965         1.44939 
        4.44541         22.6231         1.43643 
        4.46111          22.426         1.42365 
        4.47683         22.1992         1.41101 
        4.49251         22.0647         1.39855 
        4.50819         21.8164         1.38624 
         4.5239         21.6727         1.37406 
        4.53962         21.5421         1.36202 
        4.55535         21.3659         1.35011 
        4.57106         21.1632         1.33836 
        4.58678         20.9979         1.32675 
         4.6025         20.8394         1.31527 
        4.61821         20.6824         1.30393 
        4.63391         20.4783         1.29274 
         4.6496         20.3337         1.28169 
        4.66532         20.1735         1.27075 
        4.68103         19.9915         1.25994 
        4.69673         19.8251         1.24926 
        4.71241         19.6391         1.23872 
        4.72811         19.5028         1.22829 
        4.74384          19.338         1.21796 
        4.75955         19.2201         1.20776 
        4.77525         19.0531         1.19769 
        4.79096         18.9176         1.18772 
        4.80669         18.7589         1.17786 
         4.8224         18.5689         1.16812 
        4.83809          18.479         1.15851 
        4.85379         18.3256         1.14899 
         4.8695         18.1906         1.13958 
        4.88521         18.0557         1.13027 
        4.90093         17.9048         1.12106 
        4.91663         17.7568         1.11197 
        4.93234         17.5987         1.10297 
        4.94807         17.4527         1.09406 
        4.96377         17.3641         1.08527 
        4.97943         17.2221         1.07659 
        4.99514         17.0761         1.06798 
        5.01086         16.9375         1.05946 
        5.02654         16.8231         1.05106 
        5.04227         16.6596         1.04272 
          5.058          16.576         1.03447 
        5.07371         16.4494         1.02632 
        5.08942         16.3521         1.01826 
        5.10513         16.1967         1.01029 
        5.12084         16.0848          1.0024 
        5.13656         15.9218        0.994592 
        5.15225         15.8311        0.986882 
        5.16796         15.6881        0.979241 
        5.18369         15.5998        0.971674 
         5.1994         15.4439        0.964201 
        5.21509         15.3281        0.956812 
        5.23079           15.23        0.949493 
        5.24649         15.1173        0.942256 
        5.26217         15.0421        0.935099 
        5.27788         14.8863        0.928007 
        5.29359         14.7502        0.920986 
        5.30933         14.6843        0.914028 
        5.32504         14.5671        0.907154 
        5.34073         14.4651        0.900358 
        5.35646         14.3643        0.893617 
        5.37218          14.226        0.886945 
        5.38789         14.1165        0.880351 
        5.40357         14.0261        0.873832 
        5.41929         13.9221        0.867364 
        5.43502         13.8089        0.860961 
         5.4507         13.7202        0.854638 
        5.46639         13.6385        0.848377 
        5.48212         13.5258        0.842165 
        5.49786         13.4567        0.836007 
        5.51353         13.3167        0.829941 
        5.52921         13.2471        0.823929 
        5.54495         13.1548        0.817959 
        5.56066          13.025        0.812055 
        5.57637         12.9344         0.80621 
        5.59207         12.8482        0.800427 
        5.60778         12.7775        0.794699 
        5.62346         12.6796        0.789035 
        5.63916         12.5826        0.783421 
        5.65487         12.5062        0.777858 
         5.6706         12.4199        0.772343 
        5.68633         12.3141         0.76688 
        5.70203         12.2426         0.76148 
        5.71773         12.1363        0.756133 
        5.73344         12.0606        0.750835 
        5.74916         11.9881        0.745582 
        5.76486            11.9        0.740387 
        5.78054          11.822         0.73525 
        5.79626         11.6985        0.730146 
          5.812           11.65        0.725086 
         5.8277         11.5774        0.720089 
        5.84339         11.4694        0.715139 
        5.85911         11.4053        0.710226 
        5.87484         11.3264        0.705359 
        5.89053         11.2489        0.700548 
        5.90623          11.167         0.69578 
        5.92195         11.0938        0.691047 
        5.93767          11.017        0.686362 
        5.95336         10.9397        0.681727 
        5.96905         10.8713        0.677137 
        5.98476         10.8071        0.672583 
        6.00048         10.7197        0.668069 
        6.01617         10.6414        0.663602 
        6.03185         10.5514        0.659182 
        6.04756         10.4782        0.654791 
        6.06331         10.4172        0.650431 
        6.07903          10.359         0.64612 
        6.09473         10.2784        0.641852 
        6.11044         10.2274        0.637618 
        6.12616         10.1493        0.633424 
        6.14186         10.0885        0.629271 
        6.15755         10.0231        0.625155 
        6.17326         9.96152        0.621074 
        6.18898         9.88609        0.617026 
        6.20467         9.80314        0.613022 
        6.22036         9.76107        0.609054 
         6.2361         9.68374         0.60511 
         6.2518         9.61783        0.601208 
        6.26748         9.56036        0.597349 
        6.28319         9.48939        0.593512 
        6.29893          9.4329        0.589706 
        6.31463          9.3704         0.58594 
        6.33033         9.31223        0.582208 
        6.34604         9.23824        0.578506 
        6.36177         9.19485        0.574832 
        6.37747         9.14453        0.571197 
