# k  (h/Mpc)    Pcb(k)  (Mpc/h)^3    Pcb_linear(k) (Mpc/h)^3   ShotnoiseSubtracted = true
      0.0200456         11517.5         11740.4 
      0.0350414         8275.06         8534.87 
      0.0492313         6144.34         6201.28 
      0.0637834         5256.05         5155.07 
      0.0800726         4158.71         4091.45 
       0.096163         2905.51          2968.7 
       0.111083         2312.15         2367.91 
       0.126058         2130.28         2098.45 
       0.142273         1840.41         1777.85 
       0.158546         1542.28         1404.13 
        0.17375         1237.29         1182.98 
       0.188953         1194.41         1071.16 
       0.204907         1121.75         947.758 
       0.220756          954.26         801.861 
        0.23588         840.569         697.549 
         0.2514          733.92         633.716 
       0.267535         715.807         573.405 
       0.283568         649.006         505.666 
       0.299022         605.394         450.522 
       0.314451         569.142         411.747 
       0.330372         524.905         377.731 
       0.346141         477.331         342.849 
       0.361624         458.984         311.603 
       0.377134         426.867         286.724 
       0.392932         405.231           265.3 
       0.408854         389.049         244.555 
       0.424564         369.493          225.41 
       0.440253         357.419         208.981 
       0.455999         336.405         194.696 
       0.471626         314.261         181.567 
        0.48727          304.96         169.287 
       0.502856         294.966         158.254 
       0.518488         291.618         148.411 
       0.534347         274.247         139.259 
       0.550082         258.226         130.821 
       0.565732         254.558         123.102 
       0.581496         241.373         116.032 
       0.597222         235.868         109.548 
       0.612804         227.659         103.586 
       0.628434         219.588         98.0282 
       0.644267         212.591         92.8325 
       0.660051         209.896          88.044 
       0.675724         205.426         83.6223 
       0.691403         199.586         79.5005 
       0.707174         191.311         75.6334 
       0.722871         189.624         72.0389 
        0.73838          185.55         68.7164 
       0.754018         180.305         65.5784 
       0.769845         174.859         62.6022 
        0.78569         172.982         59.8082 
       0.801365         167.726         57.2126 
       0.817031         162.349         54.7734 
       0.832809         160.156         52.4616 
       0.848511         156.156         50.2943 
       0.864097         153.736         48.2649 
       0.879701         150.314          46.346 
       0.895507         146.553         44.5093 
       0.911279         143.471         42.7765 
        0.92691         142.434         41.1507 
       0.942635         138.921         39.6007 
       0.958396         138.654         38.1277 
       0.974128         134.762         36.7326 
       0.989692         131.521         35.4214 
        1.00528         129.159         34.1726 
        1.02113         128.421         32.9646 
        1.03692         123.592         31.8197 
        1.05264         122.601         30.7347 
        1.06832         120.013         29.7021 
        1.08405         118.449         28.7145 
        1.09979         117.902         27.7714 
        1.11537         114.011         26.8801 
        1.13105         113.635         26.0228 
        1.14679         112.559         25.1997 
        1.16256         110.889         24.4107 
        1.17828         108.214         23.6582 
        1.19395          106.83         22.9402 
         1.2097          104.74         22.2483 
        1.22537         104.543         21.5885 
          1.241         102.174         20.9575 
        1.25666          100.25         20.3502 
        1.27241         98.9563         19.7642 
        1.28819           97.52         19.2004 
        1.30392         96.3174         18.6603 
        1.31957         94.9863         18.1434 
        1.33529         93.1767         17.6443 
        1.35108         92.1514         17.1621 
        1.36674         91.2144         16.7013 
         1.3824         89.5054          16.258 
        1.39811         88.6016         15.8293 
        1.41389         87.3121         15.4145 
        1.42964         86.1367         15.0153 
        1.44531         84.2909         14.6322 
        1.46101         83.4358         14.2617 
        1.47667         83.1008         13.9052 
        1.49229          81.458         13.5619 
        1.50793         80.8944         13.2297 
        1.52367         79.6546         12.9066 
        1.53953         78.4408         12.5922 
        1.55526         77.7418         12.2908 
        1.57092         77.3642         12.0005 
        1.58662         75.6555         11.7189 
        1.60235            75.2         11.4458 
        1.61809         74.1008         11.1813 
        1.63369          73.133         10.9275 
        1.64941         72.4535         10.6798 
        1.66519         70.9057         10.4389 
        1.68085         70.4869         10.2072 
        1.69652         69.1764         9.98245 
        1.71228         68.9278         9.76321 
        1.72806         68.0161         9.55039 
        1.74368         67.2059         9.34606 
        1.75933         66.2986         9.14731 
        1.77505          65.785         8.95343 
        1.79081         64.7725         8.76483 
         1.8065         64.1849         8.58248 
        1.82218         63.2751         8.40549 
        1.83797          62.675         8.23229 
        1.85367         61.9664         8.06493 
        1.86928         61.5314         7.90324 
        1.88497         60.5451         7.74511 
        1.90073         59.6725         7.59072 
        1.91647         59.4219         7.44069 
        1.93218         58.6051         7.29504 
        1.94787         57.9124         7.15351 
        1.96363         57.1687         7.01518 
        1.97935         56.8253          6.8808 
        1.99499         55.9093          6.7507 
        2.01064         55.7407         6.62378 
         2.0264         54.3885         6.49933 
        2.04216         54.1231         6.37815 
        2.05781         53.4864         6.26082 
        2.07353         52.8674         6.14603 
        2.08928         52.2549         6.03387 
        2.10499         51.8844         5.92482 
        2.12065         51.2378         5.81879 
        2.13633         50.9348         5.71526 
        2.15211         50.5847         5.61359 
        2.16785         49.6876         5.51469 
        2.18349          49.354         5.41878 
        2.19916         48.7896         5.32496 
        2.21489         48.3564         5.23305 
        2.23063         47.6995         5.14325 
         2.2463         47.2745         5.05596 
        2.26194         46.4752         4.97092 
        2.27765         46.0587          4.8874 
        2.29341         45.5266         4.80559 
        2.30914         44.9602         4.72581 
        2.32486         44.3325          4.6479 
        2.34061         44.0838         4.57161 
        2.35635         43.5802         4.49711 
        2.37203         43.0353         4.42452 
        2.38768         42.6622         4.35369 
        2.40339         42.3229         4.28415 
        2.41914          41.957         4.21597 
        2.43483         41.3326         4.14952 
         2.4505         41.0067         4.08461 
        2.46622         40.5962         4.02087 
        2.48195         40.1476         3.95849 
        2.49759         39.6842         3.89776 
        2.51328         39.1646         3.83815 
        2.52906         38.9335         3.77941 
        2.54479         38.3366         3.72212 
        2.56049         37.9274         3.66612 
        2.57618         37.6294         3.61133 
        2.59189         37.1853         3.55758 
        2.60758         36.9686         3.50501 
        2.62325         36.4797         3.45356 
        2.63898         36.1096         3.40297 
        2.65468          35.699         3.35349 
        2.67044         35.2902         3.30479 
        2.68618         35.0541         3.25717 
        2.70184         34.6543         3.21068 
        2.71755         34.4415         3.16498 
        2.73329          34.017          3.1201 
        2.74897         33.6617         3.07623 
        2.76462         33.1963         3.03331 
        2.78034          33.085         2.99103 
        2.79607         32.6913         2.94951 
        2.81179         32.4052         2.90883 
        2.82749         32.0638         2.86896 
        2.84321         31.6779         2.82979 
        2.85893         31.3678         2.79137 
        2.87462         31.0374         2.75372 
        2.89033         30.7541         2.71674 
        2.90605         30.5636          2.6804 
        2.92176         30.3394         2.64475 
        2.93747         29.9772         2.60976 
        2.95318         29.5666          2.5754 
        2.96891         29.3428         2.54164 
        2.98456         29.0114         2.50864 
        3.00023         28.7095         2.47617 
        3.01596         28.4385         2.44418 
        3.03164         28.3101         2.41284 
        3.04738          28.014         2.38197 
         3.0631         27.7397         2.35164 
        3.07883         27.4311         2.32184 
        3.09456          27.141         2.29256 
        3.11026         26.9057         2.26383 
        3.12596         26.7066          2.2356 
        3.14163         26.4053         2.20791 
        3.15734         26.1601         2.18063 
        3.17308         25.8578         2.15374 
        3.18879         25.7086         2.12738 
        3.20447         25.3833          2.1015 
         3.2202         25.1647         2.07597 
         3.2359         24.8798         2.05091 
        3.25157         24.8395         2.02632 
        3.26729         24.5409         2.00206 
        3.28304         24.2701         1.97815 
        3.29877         23.9755         1.95466 
        3.31446         23.7712         1.93161 
        3.33014         23.5489         1.90895 
        3.34585         23.4142         1.88661 
        3.36158         23.1027          1.8646 
        3.37727         22.8707         1.84301 
        3.39294         22.7629         1.82178 
        3.40867         22.5134         1.80081 
        3.42439         22.2951         1.78018 
        3.44008         22.1059         1.75992 
        3.45578         21.9491         1.73995 
        3.47153         21.6359         1.72025 
        3.48724         21.4979         1.70089 
        3.50292         21.3499         1.68187 
        3.51859         21.0833         1.66316 
        3.53431         20.9009         1.64467 
        3.55007          20.677         1.62641 
        3.56577         20.4772         1.60851 
        3.58146         20.3827         1.59088 
        3.59719         20.1048         1.57347 
        3.61292         19.9703         1.55633 
        3.62859         19.7671         1.53951 
        3.64429         19.6151         1.52291 
        3.66003         19.4788          1.5065 
        3.67578         19.2245         1.49034 
        3.69146         19.1533         1.47448 
        3.70712         18.9504         1.45887 
        3.72284         18.8309         1.44344 
        3.73853         18.5889         1.42825 
        3.75422          18.393         1.41328 
        3.76993         18.2826         1.39851 
        3.78564         18.1056         1.38395 
        3.80137         17.9508         1.36958 
        3.81707         17.7769         1.35544 
        3.83279           17.64          1.3415 
        3.84853         17.4702         1.32772 
        3.86424         17.3224         1.31417 
        3.87992         17.1879         1.30082 
        3.89561         16.9918         1.28766 
        3.91134         16.9018         1.27465 
        3.92704         16.7465         1.26184 
        3.94273         16.5963         1.24922 
        3.95845          16.418         1.23675 
        3.97418         16.3527         1.22444 
        3.98988         16.1559         1.21232 
        4.00554         16.0261          1.2004 
        4.02125         15.9123          1.1886 
        4.03698         15.8027         1.17694 
        4.05268         15.6135         1.16546 
        4.06839         15.4932         1.15413 
         4.0841         15.4009         1.14296 
        4.09983          15.218         1.13191 
        4.11555         15.1098         1.12102 
        4.13124          14.994          1.1103 
        4.14693         14.8599         1.09971 
        4.16266         14.7347         1.08923 
        4.17839         14.5998          1.0789 
        4.19408         14.4508         1.06872 
        4.20977         14.3981         1.05867 
        4.22551         14.2337         1.04873 
        4.24123         14.1381         1.03892 
        4.25691         14.0437         1.02927 
        4.27259         13.8729         1.01973 
        4.28831         13.7339          1.0103 
        4.30404         13.6725         1.00098 
        4.31974         13.5535        0.991793 
        4.33543         13.4547        0.982728 
        4.35116         13.3499        0.973755 
        4.36688         13.2181        0.964897 
        4.38255         13.0957        0.956183 
        4.39825         12.9984        0.947557 
        4.41398         12.9385         0.93902 
         4.4297          12.772        0.930597 
        4.44541         12.6879         0.92228 
        4.46111         12.5829         0.91407 
        4.47683          12.502        0.905954 
        4.49251         12.3917        0.897953 
        4.50819         12.3054        0.890051 
         4.5239         12.2056        0.882232 
        4.53962          12.116        0.874498 
        4.55535         12.0024        0.866852 
        4.57106         11.8927        0.859309 
        4.58678         11.7991        0.851854 
         4.6025         11.7059        0.844486 
        4.61821         11.6272        0.837206 
        4.63391         11.5331        0.830021 
         4.6496         11.4272        0.822923 
        4.66532         11.3248        0.815898 
        4.68103         11.2464        0.808957 
        4.69673         11.1732        0.802104 
        4.71241          11.054        0.795337 
        4.72811         10.9737        0.788636 
        4.74384          10.922        0.782005 
        4.75955         10.8116        0.775459 
        4.77525         10.7299        0.768992 
        4.79096         10.6599        0.762591 
        4.80669         10.5887         0.75626 
         4.8224         10.5109        0.750008 
        4.83809         10.4141        0.743833 
        4.85379          10.331        0.737723 
         4.8695         10.2965        0.731678 
        4.88521          10.167        0.725702 
        4.90093         10.1024        0.719793 
        4.91663          10.026        0.713954 
        4.93234          9.9581        0.708174 
        4.94807         9.87496        0.702454 
        4.96377         9.79791        0.696808 
        4.97943          9.7224        0.691236 
        4.99514         9.66349         0.68571 
        5.01086         9.59681         0.68024 
        5.02654         9.52362        0.674844 
        5.04227         9.44318        0.669491 
          5.058          9.3566        0.664193 
        5.07371         9.31639        0.658963 
        5.08942         9.24512        0.653789 
        5.10513         9.16699        0.648669 
        5.12084         9.09204        0.643602 
        5.13656          9.0288        0.638589 
        5.15225         8.96962        0.633639 
        5.16796         8.91201        0.628733 
        5.18369          8.8427        0.623875 
         5.1994         8.74339        0.619076 
        5.21509         8.71423        0.614333 
        5.23079         8.64386        0.609633 
        5.24649         8.57593        0.604986 
        5.26217         8.52323        0.600391 
        5.27788         8.44663        0.595837 
        5.29359         8.39596         0.59133 
        5.30933         8.31354        0.586862 
        5.32504         8.26491        0.582449 
        5.34073          8.2278        0.578085 
        5.35646         8.14381        0.573757 
        5.37218         8.09843        0.569473 
        5.38789         8.04202        0.565239 
        5.40357          7.9896        0.561054 
        5.41929         7.93018        0.556901 
        5.43502         7.86221         0.55279 
         5.4507         7.81478         0.54873 
        5.46639         7.77656         0.54471 
        5.48212         7.71354        0.540722 
        5.49786         7.67537        0.536768 
        5.51353         7.59664        0.532873 
        5.52921         7.55521        0.529013 
        5.54495         7.50709         0.52518 
        5.56066         7.44461        0.521389 
        5.57637         7.38348        0.517637 
        5.59207          7.3481        0.513924 
        5.60778         7.28362        0.510246 
        5.62346         7.23593        0.506609 
        5.63916         7.18372        0.503005 
        5.65487          7.1439        0.499433 
         5.6706         7.08042        0.495892 
        5.68633         7.03949        0.492384 
        5.70203         7.00451        0.488917 
        5.71773         6.94336        0.485484 
        5.73344         6.89575        0.482082 
        5.74916         6.86155         0.47871 
        5.76486         6.82064        0.475374 
        5.78054         6.76096        0.472076 
        5.79626         6.70876        0.468799 
          5.812         6.67844         0.46555 
         5.8277         6.63496        0.462342 
        5.84339         6.57372        0.459163 
        5.85911         6.54266        0.456009 
        5.87484         6.49366        0.452884 
        5.89053         6.45664        0.449795 
        5.90623         6.41119        0.446734 
        5.92195         6.35033        0.443695 
        5.93767         6.33073        0.440687 
        5.95336         6.27747        0.437711 
        5.96905         6.24348        0.434764 
        5.98476          6.1963         0.43184 
        6.00048         6.17403        0.428941 
        6.01617         6.12085        0.426073 
        6.03185         6.08751        0.423235 
        6.04756         6.04109        0.420416 
        6.06331         6.00767        0.417617 
        6.07903         5.96941        0.414849 
        6.09473         5.92231        0.412108 
        6.11044         5.88658         0.40939 
        6.12616         5.85121        0.406697 
        6.14186         5.81694        0.404031 
        6.15755         5.77626        0.401388 
        6.17326          5.7293        0.398768 
        6.18898         5.68849        0.396169 
        6.20467         5.66201        0.393598 
        6.22036         5.63335         0.39105 
         6.2361         5.58463        0.388518 
         6.2518         5.55441        0.386013 
        6.26748          5.5287        0.383535 
        6.28319         5.48057        0.381071 
        6.29893         5.44713        0.378628 
        6.31463         5.42678         0.37621 
        6.33033         5.37877        0.373813 
        6.34604         5.35782        0.371436 
        6.36177         5.31897        0.369078 
        6.37747         5.28736        0.366744 
