# k  (h/Mpc)    Pcb(k)  (Mpc/h)^3    Pcb_linear(k) (Mpc/h)^3   ShotnoiseSubtracted = true
      0.0200456         9685.85         9865.16 
      0.0350414         6977.07         7171.64 
      0.0492313         5174.75         5210.78 
      0.0637834         4414.37         4331.67 
      0.0800726          3494.6         3437.94 
       0.096163         2447.43         2494.53 
       0.111083          1945.1          1989.7 
       0.126058         1789.68         1763.28 
       0.142273         1544.76         1493.88 
       0.158546         1282.73         1179.85 
        0.17375         1031.71         994.027 
       0.188953         991.302         900.069 
       0.204907         929.864         796.377 
       0.220756         787.321         673.783 
        0.23588         691.722         586.133 
         0.2514         605.723         532.496 
       0.267535         585.908         481.817 
       0.283568         530.975         424.898 
       0.299022         493.351         378.562 
       0.314451         460.381          345.98 
       0.330372         425.105         317.398 
       0.346141         384.308         288.087 
       0.361624         368.911         261.832 
       0.377134         344.062         240.927 
       0.392932         323.091         222.925 
       0.408854         309.771         205.493 
       0.424564          295.58         189.406 
       0.440253         283.326         175.602 
       0.455999         266.563         163.598 
       0.471626         247.622         152.567 
        0.48727         240.552         142.247 
       0.502856         231.994         132.977 
       0.518488         228.481         124.706 
       0.534347         215.891         117.016 
       0.550082          201.89         109.926 
       0.565732         197.615         103.439 
       0.581496         188.093         97.4986 
       0.597222         182.987         92.0503 
       0.612804         175.796         87.0403 
       0.628434         170.599         82.3706 
       0.644267         164.865         78.0049 
       0.660051         162.735         73.9811 
       0.675724         158.613         70.2657 
       0.691403         153.886         66.8023 
       0.707174         147.366         63.5528 
       0.722871         146.026         60.5324 
        0.73838         142.872         57.7406 
       0.754018         137.754         55.1038 
       0.769845         134.463         52.6031 
        0.78569         131.875         50.2554 
       0.801365         128.213         48.0743 
       0.817031         123.769         46.0247 
       0.832809           122.1         44.0822 
       0.848511         118.771          42.261 
       0.864097         116.127         40.5557 
       0.879701         114.115         38.9434 
       0.895507         111.376         37.4001 
       0.911279         109.625          35.944 
        0.92691         107.801         34.5779 
       0.942635         105.061         33.2755 
       0.958396          104.71         32.0378 
       0.974128         101.814         30.8655 
       0.989692         99.3177         29.7637 
        1.00528         97.3301         28.7143 
        1.02113         96.4612         27.6993 
        1.03692         92.9661         26.7373 
        1.05264         92.8645         25.8256 
        1.06832         90.4199          24.958 
        1.08405         89.2521         24.1281 
        1.09979         88.7306         23.3356 
        1.11537         85.6588         22.5867 
        1.13105         85.7794         21.8663 
        1.14679          84.435         21.1747 
        1.16256         83.2154         20.5117 
        1.17828         80.9966         19.8794 
        1.19395          80.259          19.276 
         1.2097         78.2039         18.6947 
        1.22537         78.4555         18.1402 
          1.241         76.5063           17.61 
        1.25666          75.002         17.0998 
        1.27241         74.1781         16.6074 
        1.28819         72.9406         16.1336 
        1.30392         72.0202         15.6798 
        1.31957          71.128         15.2455 
        1.33529         69.8794         14.8261 
        1.35108         69.4804         14.4209 
        1.36674         68.5659         14.0337 
         1.3824         67.1933         13.6612 
        1.39811         66.6097          13.301 
        1.41389         65.5818         12.9524 
        1.42964         64.8857          12.617 
        1.44531         63.6327         12.2951 
        1.46101         62.7356         11.9838 
        1.47667         62.6393         11.6842 
        1.49229         61.5389         11.3957 
        1.50793         60.9754         11.1166 
        1.52367         59.9397         10.8451 
        1.53953         59.2836         10.5809 
        1.55526         58.6275         10.3276 
        1.57092         58.3556         10.0837 
        1.58662         57.3003         9.84707 
        1.60235         56.7823          9.6176 
        1.61809         55.9906         9.39535 
        1.63369         55.0703         9.18212 
        1.64941         54.5389         8.97399 
        1.66519         53.6611         8.77157 
        1.68085         53.2567         8.57686 
        1.69652         52.4487           8.388 
        1.71228         52.1044         8.20378 
        1.72806         51.6461         8.02495 
        1.74368          50.858         7.85326 
        1.75933         50.3732         7.68626 
        1.77505         49.8177         7.52334 
        1.79081         49.2223         7.36487 
         1.8065           48.78         7.21164 
        1.82218         48.1137         7.06292 
        1.83797         47.5139         6.91739 
        1.85367         46.9127         6.77676 
        1.86928         46.4745         6.64089 
        1.88497         46.1174         6.50802 
        1.90073         45.5802         6.37829 
        1.91647         45.0913         6.25223 
        1.93218         44.5775         6.12984 
        1.94787         44.1708         6.01092 
        1.96363          43.633         5.89468 
        1.97935         43.1228         5.78176 
        1.99499         42.6386         5.67244 
        2.01064         42.3736          5.5658 
         2.0264         41.5777         5.46123 
        2.04216         41.2528          5.3594 
        2.05781         40.7161         5.26081 
        2.07353         40.3409         5.16436 
        2.08928         40.0688         5.07011 
        2.10499         39.5542         4.97848 
        2.12065         39.1254         4.88938 
        2.13633         38.9823         4.80239 
        2.15211         38.4018         4.71696 
        2.16785         37.7299         4.63385 
        2.18349         37.5661         4.55327 
        2.19916         37.2631         4.47443 
        2.21489         36.7288          4.3972 
        2.23063         36.3588         4.32174 
         2.2463         35.9019          4.2484 
        2.26194         35.5538         4.17694 
        2.27765         35.2025         4.10676 
        2.29341         34.8667         4.03801 
        2.30914         34.5285         3.97098 
        2.32486         34.0728         3.90551 
        2.34061         33.8429         3.84141 
        2.35635         33.5417         3.77881 
        2.37203         33.2378         3.71781 
        2.38768         32.8059          3.6583 
        2.40339         32.6637         3.59987 
        2.41914         32.3433         3.54258 
        2.43483         31.7896         3.48674 
         2.4505         31.5845          3.4322 
        2.46622         31.3349         3.37864 
        2.48195         31.0524         3.32622 
        2.49759         30.6729         3.27519 
        2.51328         30.2915          3.2251 
        2.52906         30.1832         3.17574 
        2.54479         29.7252          3.1276 
        2.56049         29.4595         3.08055 
        2.57618         29.1354         3.03451 
        2.59189         29.0081         2.98935 
        2.60758         28.7448         2.94517 
        2.62325         28.2978         2.90194 
        2.63898         28.2063         2.85943 
        2.65468         27.7786         2.81786 
        2.67044         27.6064         2.77693 
        2.68618         27.2806         2.73692 
        2.70184         27.0066         2.69785 
        2.71755         26.8795         2.65945 
        2.73329         26.5532         2.62174 
        2.74897         26.2456         2.58488 
        2.76462         26.0259         2.54882 
        2.78034         25.9066         2.51329 
        2.79607         25.5946          2.4784 
        2.81179         25.3658         2.44422 
        2.82749         25.1435         2.41071 
        2.84321         24.7857          2.3778 
        2.85893         24.5699         2.34552 
        2.87462         24.3761         2.31388 
        2.89033         24.1911         2.28281 
        2.90605         23.9971         2.25227 
        2.92176          23.824         2.22231 
        2.93747         23.5779         2.19292 
        2.95318         23.2366         2.16404 
        2.96891         23.1346         2.13568 
        2.98456         22.8311         2.10794 
        3.00023         22.6382         2.08066 
        3.01596         22.4315         2.05378 
        3.03164         22.2038         2.02745 
        3.04738         22.0528         2.00151 
         3.0631         21.8597         1.97602 
        3.07883         21.6767         1.95098 
        3.09456         21.4241         1.92638 
        3.11026         21.2471         1.90224 
        3.12596          21.072         1.87852 
        3.14163         20.9379         1.85525 
        3.15734         20.7213         1.83233 
        3.17308          20.552         1.80973 
        3.18879         20.3298         1.78758 
        3.20447         20.1516         1.76584 
         3.2202         19.9863         1.74439 
         3.2359          19.728         1.72333 
        3.25157         19.7194         1.70267 
        3.26729         19.5309         1.68228 
        3.28304         19.3099         1.66219 
        3.29877         18.9896         1.64246 
        3.31446         18.9522         1.62308 
        3.33014          18.745         1.60404 
        3.34585         18.5362         1.58527 
        3.36158         18.4422         1.56678 
        3.37727         18.2405         1.54864 
        3.39294         18.0509          1.5308 
        3.40867         17.9191         1.51318 
        3.42439         17.7695         1.49584 
        3.44008         17.5836         1.47881 
        3.45578         17.4326         1.46204 
        3.47153         17.3073         1.44548 
        3.48724         17.1223         1.42922 
        3.50292          17.017         1.41324 
        3.51859         16.8514         1.39751 
        3.53431         16.6985         1.38197 
        3.55007         16.5708         1.36663 
        3.56577         16.4196         1.35159 
        3.58146         16.2919         1.33677 
        3.59719         16.1316         1.32215 
        3.61292         15.9908         1.30775 
        3.62859         15.8482         1.29361 
        3.64429         15.7097         1.27966 
        3.66003         15.5762         1.26587 
        3.67578         15.4702         1.25229 
        3.69146         15.3561         1.23897 
        3.70712         15.1633         1.22585 
        3.72284         15.1207         1.21288 
        3.73853         14.9664         1.20012 
        3.75422         14.7618         1.18754 
        3.76993         14.6833         1.17513 
        3.78564         14.5288          1.1629 
        3.80137         14.4186         1.15083 
        3.81707         14.3166         1.13895 
        3.83279         14.1464         1.12723 
        3.84853         14.0705         1.11565 
        3.86424         13.9275         1.10426 
        3.87992         13.8033         1.09305 
        3.89561         13.7088         1.08199 
        3.91134         13.5864         1.07106 
        3.92704         13.4645         1.06029 
        3.94273         13.3592         1.04969 
        3.95845         13.2417         1.03921 
        3.97418         13.1875         1.02887 
        3.98988         13.0366         1.01868 
        4.00554          12.936         1.00866 
        4.02125         12.8055        0.998749 
        4.03698          12.734        0.988953 
        4.05268         12.6165        0.979311 
        4.06839         12.4954         0.96979 
         4.0841         12.3866        0.960399 
        4.09983         12.2811        0.951118 
        4.11555         12.1971        0.941964 
        4.13124         12.0951        0.932956 
        4.14693         12.0183        0.924057 
        4.16266         11.9011        0.915255 
        4.17839         11.8107        0.906572 
        4.19408         11.7145        0.898021 
        4.20977         11.6083        0.889577 
        4.22551         11.5228        0.881221 
        4.24123         11.4355        0.872981 
        4.25691          11.332        0.864869 
        4.27259         11.2516        0.856857 
        4.28831         11.1493         0.84893 
        4.30404         11.0541        0.841096 
        4.31974         10.9838        0.833378 
        4.33543         10.8841        0.825762 
        4.35116         10.8033        0.818222 
        4.36688         10.6979        0.810779 
        4.38255           10.63        0.803456 
        4.39825         10.5805        0.796208 
        4.41398         10.4506        0.789035 
         4.4297         10.3708        0.781958 
        4.44541         10.2727        0.774968 
        4.46111         10.2236         0.76807 
        4.47683         10.1536         0.76125 
        4.49251         10.0802        0.754527 
        4.50819         9.97898        0.747887 
         4.5239         9.90754        0.741318 
        4.53962         9.86775        0.734819 
        4.55535          9.7559        0.728394 
        4.57106         9.67776        0.722056 
        4.58678         9.58765        0.715792 
         4.6025         9.52579          0.7096 
        4.61821         9.44015        0.703483 
        4.63391         9.35866        0.697446 
         4.6496         9.32776        0.691482 
        4.66532         9.23155        0.685578 
        4.68103         9.16668        0.679746 
        4.69673         9.08587        0.673988 
        4.71241         9.01747        0.668301 
        4.72811         8.93621        0.662671 
        4.74384         8.91066        0.657099 
        4.75955          8.8323        0.651599 
        4.77525         8.76487        0.646165 
        4.79096          8.7112        0.640786 
        4.80669         8.62667        0.635466 
         4.8224         8.56759        0.630213 
        4.83809         8.51899        0.625024 
        4.85379         8.42618         0.61989 
         4.8695         8.37901         0.61481 
        4.88521         8.32126        0.609789 
        4.90093         8.24863        0.604824 
        4.91663         8.17746        0.599918 
        4.93234          8.1438        0.595061 
        4.94807         8.04888        0.590254 
        4.96377         8.01048         0.58551 
        4.97943         7.97236        0.580828 
        4.99514         7.90021        0.576185 
        5.01086          7.8175        0.571589 
        5.02654          7.7685        0.567055 
        5.04227         7.73672        0.562557 
          5.058         7.66547        0.558105 
        5.07371         7.61365         0.55371 
        5.08942         7.54927        0.549362 
        5.10513         7.49675         0.54506 
        5.12084         7.44076        0.540802 
        5.13656         7.38865        0.536591 
        5.15225         7.32545        0.532431 
        5.16796         7.29455        0.528309 
        5.18369         7.21819        0.524226 
         5.1994         7.15527        0.520194 
        5.21509         7.11553        0.516208 
        5.23079         7.06964        0.512259 
        5.24649         7.01834        0.508355 
        5.26217         6.97184        0.504494 
        5.27788          6.9052        0.500667 
        5.29359          6.8864         0.49688 
        5.30933         6.82743        0.493126 
        5.32504         6.77838        0.489417 
        5.34073         6.73141         0.48575 
        5.35646         6.67727        0.482114 
        5.37218         6.64915        0.478514 
        5.38789         6.59653        0.474957 
        5.40357         6.54417        0.471439 
        5.41929          6.4924         0.46795 
        5.43502         6.45323        0.464496 
         5.4507         6.41471        0.461084 
        5.46639         6.36289        0.457706 
        5.48212         6.32882        0.454355 
        5.49786          6.2885        0.451033 
        5.51353         6.22791         0.44776 
        5.52921         6.19616        0.444517 
        5.54495         6.14928        0.441296 
        5.56066         6.10924         0.43811 
        5.57637         6.05514        0.434957 
        5.59207         6.02984        0.431837 
        5.60778         5.97957        0.428747 
        5.62346         5.94094        0.425691 
        5.63916         5.90867        0.422662 
        5.65487         5.86586        0.419661 
         5.6706         5.83135        0.416686 
        5.68633         5.78616        0.413738 
        5.70203         5.75297        0.410825 
        5.71773         5.71809         0.40794 
        5.73344         5.66954        0.405082 
        5.74916         5.62858        0.402248 
        5.76486         5.60484        0.399445 
        5.78054         5.56519        0.396673 
        5.79626         5.52591         0.39392 
          5.812         5.48723         0.39119 
         5.8277         5.44735        0.388494 
        5.84339         5.42457        0.385823 
        5.85911         5.37411        0.383173 
        5.87484         5.36182        0.380547 
        5.89053         5.31201        0.377952 
        5.90623         5.27441        0.375379 
        5.92195         5.24528        0.372826 
        5.93767         5.19499        0.370298 
        5.95336         5.17185        0.367797 
        5.96905         5.15289        0.365321 
        5.98476         5.11747        0.362864 
        6.00048         5.08214        0.360429 
        6.01617         5.04623        0.358019 
        6.03185         5.01478        0.355634 
        6.04756         4.98372        0.353265 
        6.06331         4.94979        0.350913 
        6.07903         4.91635        0.348587 
        6.09473         4.88959        0.346284 
        6.11044         4.84962           0.344 
        6.12616         4.82092        0.341737 
        6.14186          4.7913        0.339497 
        6.15755         4.76149        0.337277 
        6.17326         4.73768        0.335074 
        6.18898         4.70397        0.332891 
        6.20467         4.67386        0.330731 
        6.22036         4.64239         0.32859 
         6.2361         4.61358        0.326462 
         6.2518         4.58096        0.324357 
        6.26748         4.55821        0.322274 
        6.28319         4.53065        0.320205 
        6.29893         4.50943        0.318151 
        6.31463         4.47623         0.31612 
        6.33033         4.44285        0.314106 
        6.34604         4.42815        0.312109 
        6.36177         4.39123        0.310127 
        6.37747         4.36834        0.308166 
