# k  (h/Mpc)    Pcb(k)  (Mpc/h)^3    Pcb_linear(k) (Mpc/h)^3   ShotnoiseSubtracted = true
      0.0200456         16201.2         16462.7 
      0.0350414         12315.4         11967.9 
      0.0492313         8565.21         8695.62 
      0.0637834         6915.94         7228.59 
      0.0800726         5438.57         5737.15 
       0.096163         4316.79          4162.8 
       0.111083         3513.28         3320.36 
       0.126058         2913.74         2942.51 
       0.142273         2532.24         2492.96 
       0.158546         2080.31         1968.91 
        0.17375         1837.33         1658.81 
       0.188953         1720.93         1502.01 
       0.204907         1475.44         1328.98 
       0.220756         1327.59         1124.39 
        0.23588         1183.28         978.125 
         0.2514         1063.27         888.616 
       0.267535         1031.46         804.045 
       0.283568         908.505          709.06 
       0.299022         867.887         631.736 
       0.314451         892.699         577.364 
       0.330372          772.88         529.666 
       0.346141         713.406         480.753 
       0.361624         683.892         436.939 
       0.377134         648.763         402.052 
       0.392932         624.865         372.011 
       0.408854         595.951         342.923 
       0.424564         579.629         316.077 
       0.440253         529.862          293.04 
       0.455999         507.569         273.008 
       0.471626          515.55         254.599 
        0.48727          487.16         237.379 
       0.502856         454.918         221.909 
       0.518488         451.914         208.106 
       0.534347         424.419         195.274 
       0.550082         407.904         183.442 
       0.565732         404.957         172.617 
       0.581496         392.892         162.703 
       0.597222         381.809         153.611 
       0.612804         372.832         145.251 
       0.628434         358.192         137.458 
       0.644267         344.679         130.173 
       0.660051         340.042         123.458 
       0.675724         334.564         117.258 
       0.691403          326.71         111.478 
       0.707174         314.442         106.055 
       0.722871         309.617         101.015 
        0.73838         305.927         96.3562 
       0.754018         294.056          91.956 
       0.769845         292.801         87.7827 
        0.78569         286.146         83.8649 
       0.801365         277.983         80.2253 
       0.817031         274.118          76.805 
       0.832809         269.427         73.5633 
       0.848511         262.778         70.5242 
       0.864097         256.543         67.6785 
       0.879701         255.345         64.9878 
       0.895507         248.639         62.4124 
       0.911279         242.133         59.9825 
        0.92691          239.81         57.7027 
       0.942635         238.005         55.5294 
       0.958396         231.674         53.4638 
       0.974128         228.445         51.5076 
       0.989692          220.54          49.669 
        1.00528         220.188         47.9178 
        1.02113         216.773         46.2239 
        1.03692         211.945         44.6186 
        1.05264         208.586         43.0971 
        1.06832         208.272         41.6493 
        1.08405         202.377         40.2644 
        1.09979         201.059         38.9418 
        1.11537         197.016         37.6921 
        1.13105         193.731         36.4899 
        1.14679         191.955         35.3357 
        1.16256         189.151         34.2294 
        1.17828         187.085         33.1743 
        1.19395         182.186         32.1674 
         1.2097         181.424         31.1973 
        1.22537         180.063          30.272 
          1.241         175.413         29.3872 
        1.25666         173.424         28.5357 
        1.27241         169.692          27.714 
        1.28819         168.257         26.9234 
        1.30392         165.962          26.166 
        1.31957         162.091         25.4413 
        1.33529         160.296         24.7414 
        1.35108         158.668         24.0652 
        1.36674           155.9         23.4191 
         1.3824         154.963         22.7975 
        1.39811          151.79         22.1964 
        1.41389         149.535         21.6147 
        1.42964         147.503         21.0549 
        1.44531         146.071         20.5178 
        1.46101          143.03         19.9982 
        1.47667          142.76         19.4983 
        1.49229         140.426         19.0169 
        1.50793         137.884         18.5512 
        1.52367         136.355         18.0981 
        1.53953          133.94         17.6572 
        1.55526         133.465         17.2345 
        1.57092         131.668         16.8274 
        1.58662         128.998         16.4325 
        1.60235         127.553         16.0496 
        1.61809         126.211         15.6787 
        1.63369          124.19         15.3229 
        1.64941         123.548         14.9756 
        1.66519         121.573         14.6378 
        1.68085         119.403         14.3129 
        1.69652         118.438         13.9977 
        1.71228          117.43         13.6903 
        1.72806         115.979         13.3918 
        1.74368         114.116         13.1053 
        1.75933         113.252         12.8266 
        1.77505         111.173         12.5548 
        1.79081         109.895         12.2903 
         1.8065         107.995         12.0346 
        1.82218         106.924         11.7864 
        1.83797         106.562         11.5436 
        1.85367         104.473         11.3089 
        1.86928         104.031         11.0822 
        1.88497         102.127         10.8604 
        1.90073         101.403         10.6439 
        1.91647         99.6854         10.4336 
        1.93218          98.522         10.2293 
        1.94787         97.1478         10.0309 
        1.96363         96.3178          9.8369 
        1.97935         95.3716         9.64846 
        1.99499         94.5295         9.46604 
        2.01064         92.3512         9.28807 
         2.0264          91.864         9.11356 
        2.04216         90.0122         8.94363 
        2.05781         89.6414         8.77911 
        2.07353          88.492         8.61815 
        2.08928         87.2315         8.46088 
        2.10499          86.161         8.30796 
        2.12065         85.7586         8.15928 
        2.13633         84.6188         8.01412 
        2.15211         83.2634         7.87155 
        2.16785         82.0845         7.73286 
        2.18349          81.102         7.59838 
        2.19916         80.2329         7.46682 
        2.21489         79.3256         7.33794 
        2.23063         78.2796         7.21202 
         2.2463         77.8314         7.08963 
        2.26194         76.7199         6.97038 
        2.27765         75.8617         6.85327 
        2.29341         74.9999         6.73854 
        2.30914         74.1224         6.62668 
        2.32486         72.5259         6.51743 
        2.34061         72.2295         6.41045 
        2.35635         71.3972         6.30598 
        2.37203          70.348          6.2042 
        2.38768         69.7364         6.10488 
        2.40339         68.9666         6.00737 
        2.41914         67.8809         5.91177 
        2.43483         67.4894         5.81858 
         2.4505         66.5037         5.72757 
        2.46622         66.0666         5.63819 
        2.48195          65.074         5.55071 
        2.49759         64.3833         5.46556 
        2.51328         63.6793         5.38197 
        2.52906         62.9362          5.2996 
        2.54479         62.2373         5.21926 
        2.56049         61.5049         5.14075 
        2.57618         60.6856         5.06392 
        2.59189         60.2846         4.98855 
        2.60758         59.4547         4.91483 
        2.62325         58.8444         4.84269 
        2.63898         58.2527         4.77174 
        2.65468         57.6787         4.70237 
        2.67044         57.0566         4.63408 
        2.68618         56.5236          4.5673 
        2.70184         55.7309         4.50211 
        2.71755         54.9837         4.43803 
        2.73329         54.6304          4.3751 
        2.74897         54.1687         4.31359 
        2.76462          53.702          4.2534 
        2.78034         52.9705         4.19411 
        2.79607         52.1618          4.1359 
        2.81179          51.657         4.07885 
        2.82749         51.2617         4.02294 
        2.84321         50.8627         3.96802 
        2.85893         50.2506         3.91414 
        2.87462         49.4905         3.86135 
        2.89033         49.0286         3.80949 
        2.90605         48.4475         3.75854 
        2.92176         48.0876         3.70855 
        2.93747         47.5303         3.65949 
        2.95318         47.0541          3.6113 
        2.96891         46.5198         3.56397 
        2.98456         46.1587         3.51769 
        3.00023         45.4234         3.47216 
        3.01596         45.1484          3.4273 
        3.03164         44.6374         3.38336 
        3.04738         44.2153         3.34007 
         3.0631         43.8857         3.29754 
        3.07883         43.3423         3.25575 
        3.09456         42.8604          3.2147 
        3.11026         42.3987         3.17441 
        3.12596         42.0024         3.13482 
        3.14163         41.5938           3.096 
        3.15734          41.198         3.05774 
        3.17308         40.9082         3.02004 
        3.18879         40.4821         2.98308 
        3.20447         39.9312         2.94679 
         3.2202         39.5593         2.91099 
         3.2359         39.2755         2.87585 
        3.25157         38.7353         2.84137 
        3.26729         38.4776         2.80735 
        3.28304         38.1284         2.77383 
        3.29877         37.5807         2.74089 
        3.31446         37.3423         2.70856 
        3.33014         36.8853         2.67678 
        3.34585         36.4532         2.64547 
        3.36158         36.1907          2.6146 
        3.37727         35.8114         2.58433 
        3.39294         35.4514         2.55456 
        3.40867         35.2024         2.52515 
        3.42439         34.7855         2.49623 
        3.44008         34.5273         2.46781 
        3.45578         34.1607         2.43981 
        3.47153         33.9531         2.41219 
        3.48724         33.5311         2.38504 
        3.50292         33.2567         2.35838 
        3.51859         32.9575         2.33213 
        3.53431         32.6634          2.3062 
        3.55007         32.1503          2.2806 
        3.56577         32.0297         2.25549 
        3.58146         31.6688         2.23078 
        3.59719         31.3808         2.20637 
        3.61292         31.1873         2.18234 
        3.62859         30.7801         2.15875 
        3.64429         30.5107         2.13547 
        3.66003         30.2441         2.11246 
        3.67578         30.0087          2.0898 
        3.69146         29.7968         2.06756 
        3.70712         29.3705         2.04568 
        3.72284         29.1918         2.02403 
        3.73853         28.9787         2.00274 
        3.75422         28.7082         1.98174 
        3.76993         28.4004         1.96103 
        3.78564         28.1271         1.94062 
        3.80137           27.96         1.92047 
        3.81707         27.6353         1.90065 
        3.83279         27.3405         1.88109 
        3.84853         27.1664         1.86177 
        3.86424         26.7599         1.84276 
        3.87992          26.564         1.82405 
        3.89561         26.4465          1.8056 
        3.91134         26.1352         1.78736 
        3.92704         25.8714         1.76939 
        3.94273         25.5882         1.75169 
        3.95845          25.455          1.7342 
        3.97418         25.2175         1.71695 
        3.98988         25.0073         1.69995 
        4.00554         24.7264         1.68323 
        4.02125         24.5639         1.66669 
        4.03698         24.3376         1.65034 
        4.05268         24.1086         1.63425 
        4.06839          23.897         1.61836 
         4.0841         23.7192         1.60269 
        4.09983          23.433          1.5872 
        4.11555         23.2824         1.57193 
        4.13124         23.1682         1.55689 
        4.14693         22.9229         1.54204 
        4.16266         22.7063         1.52735 
        4.17839         22.5416         1.51286 
        4.19408         22.2726          1.4986 
        4.20977         22.1485          1.4845 
        4.22551         21.9847         1.47056 
        4.24123         21.7468         1.45681 
        4.25691         21.5967         1.44327 
        4.27259         21.4203          1.4299 
        4.28831         21.2192         1.41667 
        4.30404         21.0049          1.4036 
        4.31974         20.8488         1.39072 
        4.33543         20.7247         1.37801 
        4.35116         20.5275         1.36543 
        4.36688         20.3401         1.35301 
        4.38255         20.1406         1.34079 
        4.39825         20.0298         1.32869 
        4.41398         19.8347         1.31672 
         4.4297         19.7105         1.30491 
        4.44541         19.5063         1.29325 
        4.46111         19.2781         1.28174 
        4.47683         19.1519         1.27036 
        4.49251         19.0579         1.25914 
        4.50819         18.8866         1.24806 
         4.5239         18.7358         1.23709 
        4.53962          18.621         1.22625 
        4.55535         18.4269         1.21553 
        4.57106         18.3143         1.20495 
        4.58678          18.124          1.1945 
         4.6025         17.9285         1.18416 
        4.61821         17.8578         1.17396 
        4.63391         17.6831         1.16388 
         4.6496         17.5689         1.15393 
        4.66532          17.402         1.14408 
        4.68103         17.2797         1.13434 
        4.69673         17.1321         1.12473 
        4.71241          17.041         1.11525 
        4.72811         16.8663         1.10585 
        4.74384         16.7083         1.09655 
        4.75955         16.5909         1.08737 
        4.77525         16.4726          1.0783 
        4.79096         16.3361         1.06933 
        4.80669         16.2175         1.06045 
         4.8224         16.0911         1.05168 
        4.83809         15.9391         1.04302 
        4.85379         15.8282         1.03446 
         4.8695         15.7352         1.02598 
        4.88521          15.577          1.0176 
        4.90093         15.4451         1.00932 
        4.91663         15.3478         1.00113 
        4.93234         15.2198        0.993023 
        4.94807         15.1214        0.985002 
        4.96377         15.0003        0.977085 
        4.97943         14.9104        0.969272 
        4.99514         14.7626        0.961523 
        5.01086          14.671        0.953854 
        5.02654         14.5454        0.946287 
        5.04227         14.4413        0.938781 
          5.058         14.3204        0.931352 
        5.07371         14.2193        0.924018 
        5.08942         14.1152        0.916762 
        5.10513         14.0039        0.909583 
        5.12084         13.9196        0.902478 
        5.13656         13.8073         0.89545 
        5.15225         13.6927        0.888508 
        5.16796          13.578        0.881629 
        5.18369         13.4733        0.874816 
         5.1994         13.3758        0.868088 
        5.21509         13.2851        0.861436 
        5.23079         13.1929        0.854846 
        5.24649          13.099         0.84833 
        5.26217         13.0002        0.841887 
        5.27788         12.8829        0.835501 
        5.29359          12.798        0.829181 
        5.30933         12.7211        0.822916 
        5.32504         12.6148        0.816727 
        5.34073         12.5412        0.810608 
        5.35646         12.4647         0.80454 
        5.37218         12.3477        0.798533 
        5.38789         12.2397        0.792596 
        5.40357         12.1689        0.786727 
        5.41929         12.0766        0.780904 
        5.43502         11.9931        0.775139 
         5.4507         11.9029        0.769446 
        5.46639         11.7947        0.763809 
        5.48212          11.734        0.758216 
        5.49786         11.6603        0.752672 
        5.51353         11.5667        0.747211 
        5.52921         11.5032        0.741799 
        5.54495         11.3994        0.736424 
        5.56066         11.3051        0.731108 
        5.57637         11.2528        0.725846 
        5.59207         11.1697         0.72064 
        5.60778         11.0842        0.715483 
        5.62346         10.9931        0.710383 
        5.63916         10.9246        0.705328 
        5.65487         10.8619         0.70032 
         5.6706         10.7717        0.695355 
        5.68633         10.6817        0.690436 
        5.70203         10.6195        0.685574 
        5.71773         10.5196        0.680761 
        5.73344          10.477        0.675991 
        5.74916         10.4072        0.671262 
        5.76486         10.3431        0.666584 
        5.78054         10.2596        0.661959 
        5.79626         10.1975        0.657364 
          5.812         10.1241        0.652809 
         5.8277         10.0516        0.648309 
        5.84339         9.95548        0.643853 
        5.85911         9.90967        0.639429 
        5.87484         9.82547        0.635048 
        5.89053         9.75957        0.630716 
        5.90623          9.7206        0.626423 
        5.92195         9.64238        0.622163 
        5.93767         9.58428        0.617944 
        5.95336          9.4948        0.613771 
        5.96905         9.44893        0.609639 
        5.98476         9.36883        0.605539 
        6.00048         9.31409        0.601475 
        6.01617         9.25089        0.597453 
        6.03185         9.20416        0.593474 
        6.04756         9.13252        0.589521 
        6.06331         9.07512        0.585595 
        6.07903         9.01051        0.581714 
        6.09473         8.94086        0.577871 
        6.11044         8.88918        0.574059 
        6.12616         8.83987        0.570283 
        6.14186         8.79285        0.566544 
        6.15755         8.72775        0.562839 
        6.17326         8.64951        0.559164 
        6.18898         8.60683         0.55552 
        6.20467         8.54336        0.551915 
        6.22036          8.4821        0.548343 
         6.2361         8.42779        0.544792 
         6.2518         8.37728        0.541279 
        6.26748         8.31777        0.537804 
        6.28319         8.28645         0.53435 
        6.29893         8.22746        0.530923 
        6.31463         8.15397        0.527533 
        6.33033         8.10378        0.524173 
        6.34604         8.05226        0.520839 
        6.36177         8.01829        0.517532 
        6.37747         7.95377         0.51426 
