# k  (h/Mpc)    Pcb(k)  (Mpc/h)^3    Pcb_linear(k) (Mpc/h)^3   ShotnoiseSubtracted = true
      0.0200456         4472.97         4544.63 
      0.0350414          3250.8          3303.8 
      0.0492313         2399.19         2400.48 
      0.0637834         2026.28         1995.49 
      0.0800726         1606.04         1583.77 
       0.096163         1136.74         1149.17 
       0.111083         901.603         916.604 
       0.126058         821.809         812.298 
       0.142273         705.723         688.195 
       0.158546         570.205          543.53 
        0.17375         464.596         457.923 
       0.188953         436.869         414.639 
       0.204907         405.977         366.871 
       0.220756         339.316         310.395 
        0.23588         296.264         270.017 
         0.2514         262.691         245.308 
       0.267535         246.258         221.961 
       0.283568         221.863          195.74 
       0.299022         203.006         174.394 
       0.314451         183.804         159.385 
       0.330372          170.77         146.217 
       0.346141         154.091         132.715 
       0.361624         144.971         120.619 
       0.377134         136.431         110.989 
       0.392932         122.754         102.696 
       0.408854         118.024         94.6657 
       0.424564         112.632         87.2548 
       0.440253         104.635         80.8953 
       0.455999         98.5031         75.3654 
       0.471626         91.3673         70.2836 
        0.48727         88.2313         65.5298 
       0.502856         83.6555         61.2592 
       0.518488         80.4733         57.4488 
       0.534347         77.2662         53.9064 
       0.550082         71.0539         50.6402 
       0.565732         67.4043          47.652 
       0.581496         65.2897         44.9152 
       0.597222         63.1565         42.4053 
       0.612804         59.4876         40.0973 
       0.628434         57.8858         37.9461 
       0.644267          56.204         35.9349 
       0.660051         54.0016         34.0813 
       0.675724         51.5014         32.3697 
       0.691403         49.9478         30.7742 
       0.707174         48.4449         29.2772 
       0.722871         46.7142         27.8858 
        0.73838         45.3959         26.5997 
       0.754018         43.2859          25.385 
       0.769845         42.2581         24.2329 
        0.78569         41.0393         23.1514 
       0.801365         39.5673         22.1466 
       0.817031         38.6624         21.2024 
       0.832809         37.9524         20.3076 
       0.848511         35.8259         19.4686 
       0.864097         35.1796          18.683 
       0.879701         34.5034         17.9403 
       0.895507         33.8967         17.2293 
       0.911279         32.8027         16.5585 
        0.92691         32.0238         15.9292 
       0.942635         30.8498         15.3292 
       0.958396         30.5028          14.759 
       0.974128         29.5771          14.219 
       0.989692         29.2196         13.7114 
        1.00528         28.5489          13.228 
        1.02113         27.5116         12.7604 
        1.03692         26.9816         12.3172 
        1.05264         26.5442         11.8972 
        1.06832         25.8892         11.4975 
        1.08405         25.3507         11.1152 
        1.09979         24.8401         10.7501 
        1.11537         24.2619         10.4051 
        1.13105         24.0241         10.0732 
        1.14679         23.6874         9.75463 
        1.16256         22.8632         9.44923 
        1.17828         22.7168         9.15796 
        1.19395         22.0828         8.87999 
         1.2097         21.9232         8.61219 
        1.22537         21.4252         8.35676 
          1.241         21.0427          8.1125 
        1.25666            20.5         7.87743 
        1.27241         20.1993          7.6506 
        1.28819         19.7561         7.43235 
        1.30392         19.6037         7.22328 
        1.31957         19.3954         7.02321 
        1.33529          19.102         6.83001 
        1.35108          18.653         6.64333 
        1.36674         18.3975         6.46498 
         1.3824         18.0184         6.29337 
        1.39811         17.7813         6.12743 
        1.41389          17.614         5.96686 
        1.42964          17.328         5.81233 
        1.44531         17.2003         5.66404 
        1.46101         16.7141         5.52063 
        1.47667         16.5285         5.38262 
        1.49229         16.3456         5.24971 
        1.50793         16.1232         5.12115 
        1.52367         15.9084         4.99608 
        1.53953         15.7114         4.87436 
        1.55526         15.4457         4.75768 
        1.57092         15.2101          4.6453 
        1.58662         15.0727          4.5363 
        1.60235         14.8476         4.43059 
        1.61809         14.6765         4.32821 
        1.63369         14.4829         4.22997 
        1.64941         14.2172         4.13409 
        1.66519         14.1492         4.04085 
        1.68085         13.9282         3.95114 
        1.69652         13.7478         3.86414 
        1.71228         13.5823         3.77928 
        1.72806         13.4871          3.6969 
        1.74368         13.2673          3.6178 
        1.75933         13.1251         3.54087 
        1.77505          12.966         3.46582 
        1.79081         12.7711         3.39281 
         1.8065         12.7018         3.32222 
        1.82218         12.4636         3.25371 
        1.83797         12.3492         3.18667 
        1.85367         12.1986         3.12188 
        1.86928         12.1675         3.05929 
        1.88497         11.9178         2.99808 
        1.90073         11.8988         2.93832 
        1.91647         11.7479         2.88025 
        1.93218         11.6443         2.82387 
        1.94787         11.4883         2.76908 
        1.96363          11.407         2.71553 
        1.97935         11.2339         2.66351 
        1.99499         11.0856         2.61315 
        2.01064         10.9893         2.56402 
         2.0264         10.8943         2.51585 
        2.04216         10.7673         2.46894 
        2.05781         10.6114         2.42352 
        2.07353         10.5594         2.37909 
        2.08928         10.4436         2.33567 
        2.10499         10.3813         2.29346 
        2.12065         10.2149         2.25242 
        2.13633         10.2013         2.21234 
        2.15211         10.0367         2.17299 
        2.16785         9.99656          2.1347 
        2.18349         9.92033         2.09758 
        2.19916         9.78806         2.06126 
        2.21489         9.69465         2.02568 
        2.23063         9.59663         1.99092 
         2.2463         9.48412         1.95713 
        2.26194         9.40154         1.92421 
        2.27765         9.36815         1.89188 
        2.29341         9.25658         1.86021 
        2.30914         9.11755         1.82933 
        2.32486         9.06835         1.79917 
        2.34061         8.99271         1.76964 
        2.35635          8.9364          1.7408 
        2.37203         8.85549          1.7127 
        2.38768          8.7136         1.68529 
        2.40339          8.6721         1.65837 
        2.41914         8.56126         1.63198 
        2.43483         8.54495         1.60625 
         2.4505         8.46986         1.58113 
        2.46622         8.37852         1.55645 
        2.48195         8.31072         1.53231 
        2.49759         8.24764          1.5088 
        2.51328         8.15753         1.48572 
        2.52906         8.11536         1.46299 
        2.54479         8.03082         1.44081 
        2.56049         7.98812         1.41913 
        2.57618         7.93051         1.39792 
        2.59189         7.81578         1.37712 
        2.60758         7.80295         1.35677 
        2.62325         7.72579         1.33685 
        2.63898         7.61348         1.31727 
        2.65468         7.54541         1.29812 
        2.67044         7.51556         1.27926 
        2.68618          7.4515         1.26083 
        2.70184         7.39789         1.24283 
        2.71755          7.3213         1.22514 
        2.73329         7.26767         1.20777 
        2.74897         7.22396         1.19079 
        2.76462         7.18953         1.17418 
        2.78034         7.09527         1.15781 
        2.79607         7.05023         1.14174 
        2.81179         7.01177         1.12599 
        2.82749         6.95032         1.11056 
        2.84321         6.93814         1.09539 
        2.85893         6.86382         1.08052 
        2.87462          6.7821         1.06595 
        2.89033         6.73043         1.05163 
        2.90605          6.6829         1.03757 
        2.92176         6.62744         1.02377 
        2.93747         6.58124         1.01022 
        2.95318         6.56305        0.996921 
        2.96891         6.48401        0.983853 
        2.98456         6.43147        0.971078 
        3.00023          6.3739         0.95851 
        3.01596         6.34553        0.946126 
        3.03164         6.30865        0.933997 
        3.04738         6.27572        0.922044 
         3.0631         6.20192        0.910305 
        3.07883         6.15406        0.898769 
        3.09456         6.11073        0.887436 
        3.11026          6.0823        0.876315 
        3.12596         6.03888        0.865386 
        3.14163         5.97406        0.854669 
        3.15734         5.93778        0.844108 
        3.17308         5.90105          0.8337 
        3.18879         5.84392        0.823496 
        3.20447         5.83002        0.813478 
         3.2202         5.75425        0.803595 
         3.2359         5.74296        0.793894 
        3.25157         5.68551        0.784376 
        3.26729         5.67221        0.774986 
        3.28304          5.6107         0.76573 
        3.29877         5.56289        0.756639 
        3.31446         5.52928        0.747714 
        3.33014         5.50088        0.738941 
        3.34585         5.46511        0.730296 
        3.36158         5.42239        0.721776 
        3.37727         5.39155        0.713418 
        3.39294         5.36806        0.705201 
        3.40867         5.30452        0.697083 
        3.42439         5.28761        0.689098 
        3.44008         5.23932        0.681253 
        3.45578         5.19924        0.673524 
        3.47153         5.17041        0.665899 
        3.48724         5.14331        0.658405 
        3.50292         5.10511        0.651043 
        3.51859         5.06823        0.643798 
        3.53431         5.01783         0.63664 
        3.55007         5.00585        0.629574 
        3.56577         4.97697        0.622642 
        3.58146         4.94958        0.615818 
        3.59719         4.90611        0.609081 
        3.61292         4.88433        0.602446 
        3.62859         4.83491        0.595936 
        3.64429         4.80793        0.589509 
        3.66003         4.77917        0.583157 
        3.67578         4.74717        0.576901 
        3.69146         4.69268         0.57076 
        3.70712          4.6868         0.56472 
        3.72284         4.65603        0.558745 
        3.73853         4.62742        0.552867 
        3.75422         4.59235        0.547071 
        3.76993         4.56595        0.541353 
        3.78564         4.52992        0.535719 
        3.80137         4.51171        0.530156 
        3.81707         4.47994        0.524684 
        3.83279         4.44587        0.519285 
        3.84853         4.40498        0.513952 
        3.86424         4.38153        0.508706 
        3.87992         4.35981         0.50354 
        3.89561         4.34571        0.498445 
        3.91134          4.2969        0.493411 
        3.92704         4.26829        0.488451 
        3.94273         4.25119        0.483565 
        3.95845         4.22828        0.478737 
        3.97418         4.19738        0.473974 
        3.98988         4.17896        0.469282 
        4.00554         4.14721        0.464666 
        4.02125         4.11555        0.460099 
        4.03698         4.08185        0.455586 
        4.05268         4.05065        0.451144 
        4.06839         4.04149        0.446758 
         4.0841         4.00062        0.442432 
        4.09983         3.97616        0.438157 
        4.11555         3.94379         0.43394 
        4.13124         3.92265        0.429789 
        4.14693         3.89522         0.42569 
        4.16266         3.87911        0.421635 
        4.17839         3.85126        0.417635 
        4.19408          3.8141        0.413696 
        4.20977         3.80007        0.409806 
        4.22551         3.76751        0.405956 
        4.24123         3.75187         0.40216 
        4.25691         3.72794        0.398423 
        4.27259         3.71646        0.394732 
        4.28831         3.67903        0.391081 
        4.30404         3.65788        0.387472 
        4.31974         3.63486        0.383917 
        4.33543         3.59916        0.380408 
        4.35116          3.5791        0.376934 
        4.36688          3.5641        0.373506 
        4.38255         3.53447        0.370132 
        4.39825         3.52588        0.366793 
        4.41398         3.50965        0.363489 
         4.4297         3.48117        0.360228 
        4.44541         3.45848        0.357009 
        4.46111         3.44353        0.353831 
        4.47683         3.40618        0.350689 
        4.49251         3.39232        0.347592 
        4.50819         3.37435        0.344533 
         4.5239         3.35767        0.341507 
        4.53962         3.33824        0.338513 
        4.55535         3.31862        0.335553 
        4.57106         3.29415        0.332633 
        4.58678         3.27252        0.329747 
         4.6025         3.25663        0.326895 
        4.61821         3.24111        0.324077 
        4.63391         3.22405        0.321296 
         4.6496         3.20648        0.318548 
        4.66532         3.17039        0.315829 
        4.68103         3.15398        0.313142 
        4.69673         3.13859        0.310489 
        4.71241          3.1137         0.30787 
        4.72811         3.10276        0.305276 
        4.74384           3.089        0.302709 
        4.75955         3.07213        0.300175 
        4.77525         3.05379        0.297672 
        4.79096         3.02711        0.295194 
        4.80669         3.01549        0.292744 
         4.8224         3.00625        0.290323 
        4.83809         2.98112        0.287933 
        4.85379          2.9666        0.285568 
         4.8695         2.95196        0.283228 
        4.88521          2.9334        0.280915 
        4.90093         2.91633        0.278627 
        4.91663         2.90104        0.276367 
        4.93234         2.88173         0.27413 
        4.94807         2.87059        0.271916 
        4.96377         2.84848         0.26973 
        4.97943         2.83533        0.267573 
        4.99514         2.81171        0.265434 
        5.01086         2.79804        0.263317 
        5.02654         2.78406        0.261228 
        5.04227         2.77366        0.259156 
          5.058          2.7642        0.257105 
        5.07371         2.73959        0.255081 
        5.08942         2.72828        0.253077 
        5.10513         2.71209        0.251096 
        5.12084         2.69676        0.249134 
        5.13656           2.685        0.247194 
        5.15225         2.66469        0.245278 
        5.16796          2.6458        0.243379 
        5.18369          2.6357        0.241498 
         5.1994         2.62635        0.239641 
        5.21509         2.61018        0.237804 
        5.23079         2.59529        0.235985 
        5.24649         2.58095        0.234186 
        5.26217         2.57288        0.232408 
        5.27788         2.54753        0.230645 
        5.29359          2.5374          0.2289 
        5.30933         2.52895        0.227171 
        5.32504         2.50821        0.225462 
        5.34073         2.49573        0.223773 
        5.35646         2.48494        0.222098 
        5.37218         2.46565        0.220439 
        5.38789         2.46234        0.218801 
        5.40357         2.44761         0.21718 
        5.41929         2.43237        0.215573 
        5.43502          2.4182        0.213982 
         5.4507         2.40718         0.21241 
        5.46639         2.39475        0.210854 
        5.48212         2.38539         0.20931 
        5.49786         2.37282        0.207779 
        5.51353         2.35356        0.206272 
        5.52921         2.34718        0.204778 
        5.54495         2.33518        0.203294 
        5.56066         2.32365        0.201827 
        5.57637         2.31081        0.200374 
        5.59207         2.29881        0.198937 
        5.60778         2.29261        0.197513 
        5.62346         2.27701        0.196105 
        5.63916         2.26154         0.19471 
        5.65487         2.25326        0.193327 
         5.6706         2.24161        0.191957 
        5.68633         2.23028        0.190599 
        5.70203         2.21792        0.189257 
        5.71773         2.20873        0.187928 
        5.73344         2.19559        0.186611 
        5.74916         2.18586        0.185306 
        5.76486         2.17918        0.184014 
        5.78054         2.17007        0.182738 
        5.79626         2.15844        0.181469 
          5.812         2.14167        0.180212 
         5.8277         2.13081         0.17897 
        5.84339         2.12122        0.177739 
        5.85911          2.1145        0.176518 
        5.87484         2.10265        0.175309 
        5.89053          2.0926        0.174113 
        5.90623         2.08343        0.172928 
        5.92195         2.07322        0.171752 
        5.93767         2.06478        0.170587 
        5.95336         2.05052        0.169435 
        5.96905         2.04354        0.168294 
        5.98476         2.03025        0.167162 
        6.00048         2.02072         0.16604 
        6.01617         2.01637         0.16493 
        6.03185           2.005        0.163832 
        6.04756         1.99322        0.162741 
        6.06331         1.98428        0.161657 
        6.07903         1.97389        0.160585 
        6.09473         1.97075        0.159525 
        6.11044         1.95866        0.158472 
        6.12616         1.94762         0.15743 
        6.14186         1.94255        0.156398 
        6.15755         1.93176        0.155375 
        6.17326         1.92148         0.15436 
        6.18898         1.91578        0.153355 
        6.20467         1.90529        0.152359 
        6.22036          1.8965        0.151373 
         6.2361         1.88479        0.150393 
         6.2518         1.87675        0.149423 
        6.26748         1.87085        0.148464 
        6.28319         1.86311         0.14751 
        6.29893         1.85783        0.146564 
        6.31463          1.8469        0.145628 
        6.33033         1.83371        0.144701 
        6.34604         1.82843        0.143781 
        6.36177         1.82364        0.142868 
        6.37747         1.81441        0.141964 
