# k  (h/Mpc)    Pcb(k)  (Mpc/h)^3    Pcb_linear(k) (Mpc/h)^3   ShotnoiseSubtracted = true
      0.0200456         5457.62         5547.72 
      0.0350414         3958.79         4033.01 
      0.0492313         2925.26          2930.3 
      0.0637834         2476.13         2435.94 
      0.0800726         1962.24         1933.34 
       0.096163         1385.24         1402.81 
       0.111083         1098.85         1118.92 
       0.126058         1004.27         991.587 
       0.142273         863.642         840.093 
       0.158546         701.442         663.497 
        0.17375         569.651         558.996 
       0.188953         538.476         506.158 
       0.204907         501.871         447.847 
       0.220756         420.344         378.905 
        0.23588          367.41         329.615 
         0.2514          324.84         299.452 
       0.267535         306.607         270.952 
       0.283568         276.838         238.944 
       0.299022         254.154         212.886 
       0.314451         231.538         194.564 
       0.330372         214.871          178.49 
       0.346141         193.603         162.007 
       0.361624         183.177         147.242 
       0.377134         172.219         135.486 
       0.392932         156.282         125.363 
       0.408854         150.082          115.56 
       0.424564         143.646         106.514 
       0.440253         134.227         98.7504 
       0.455999         126.338              92 
       0.471626         116.896         85.7965 
        0.48727          113.26         79.9935 
       0.502856         107.885         74.7803 
       0.518488         104.287         70.1288 
       0.534347          99.935         65.8046 
       0.550082         92.1902         61.8174 
       0.565732          88.096         58.1697 
       0.581496         84.9658         54.8288 
       0.597222         82.1817         51.7649 
       0.612804         77.8044         48.9475 
       0.628434         75.9914         46.3215 
       0.644267         73.5774         43.8664 
       0.660051         71.1888         41.6036 
       0.675724         68.2355         39.5143 
       0.691403         66.1993         37.5666 
       0.707174         64.0725         35.7392 
       0.722871         62.1693         34.0407 
        0.73838         60.6543         32.4707 
       0.754018         57.7028         30.9879 
       0.769845         56.4656         29.5816 
        0.78569         54.9545         28.2613 
       0.801365         53.0293         27.0348 
       0.817031         51.6781         25.8822 
       0.832809         50.8946         24.7898 
       0.848511         48.3105         23.7657 
       0.864097         47.2973         22.8067 
       0.879701         46.5467            21.9 
       0.895507         45.8282         21.0321 
       0.911279         44.5381         20.2133 
        0.92691          43.431          19.445 
       0.942635         41.8973         18.7126 
       0.958396         41.6375         18.0166 
       0.974128         40.4499         17.3574 
       0.989692          39.825         16.7378 
        1.00528         38.9541         16.1476 
        1.02113         37.7162         15.5768 
        1.03692         36.9787         15.0358 
        1.05264         36.4985         14.5231 
        1.06832         35.5699         14.0352 
        1.08405         35.0207         13.5685 
        1.09979         34.3535         13.1229 
        1.11537         33.3032         12.7017 
        1.13105         33.2804         12.2966 
        1.14679         32.7632         11.9077 
        1.16256         31.7968         11.5349 
        1.17828         31.3104         11.1793 
        1.19395         30.6879           10.84 
         1.2097         30.4355         10.5131 
        1.22537         29.9383         10.2013 
          1.241         29.2884         9.90308 
        1.25666         28.5657         9.61613 
        1.27241         28.3181         9.33924 
        1.28819         27.5578         9.07281 
        1.30392         27.3271          8.8176 
        1.31957         27.1226         8.57336 
        1.33529         26.8295         8.33752 
        1.35108         26.2125         8.10964 
        1.36674         25.7652         7.89193 
         1.3824         25.2578         7.68243 
        1.39811          25.079         7.47987 
        1.41389         24.7827         7.28386 
        1.42964         24.3258         7.09522 
        1.44531         24.1965          6.9142 
        1.46101         23.5733         6.73914 
        1.47667         23.3488         6.57067 
        1.49229         23.1376         6.40842 
        1.50793         22.8086         6.25149 
        1.52367         22.5636         6.09881 
        1.53953         22.3166         5.95022 
        1.55526         21.8888         5.80778 
        1.57092         21.6074         5.67061 
        1.58662         21.3631         5.53754 
        1.60235         21.1141         5.40851 
        1.61809         20.8661         5.28352 
        1.63369         20.6243         5.16361 
        1.64941         20.2233         5.04656 
        1.66519         20.1529         4.93274 
        1.68085         19.8252         4.82324 
        1.69652         19.5937         4.71703 
        1.71228         19.4209         4.61343 
        1.72806         19.1832         4.51287 
        1.74368          18.924         4.41632 
        1.75933         18.7294          4.3224 
        1.77505         18.5296         4.23079 
        1.79081          18.273         4.14167 
         1.8065         18.1927          4.0555 
        1.82218         17.8794         3.97187 
        1.83797         17.6349         3.89002 
        1.85367         17.4814         3.81094 
        1.86928         17.3554         3.73454 
        1.88497         17.0794         3.65981 
        1.90073         17.0774         3.58686 
        1.91647         16.7953         3.51597 
        1.93218         16.6407         3.44715 
        1.94787         16.5163         3.38027 
        1.96363          16.367          3.3149 
        1.97935         16.1791          3.2514 
        1.99499         15.9547         3.18992 
        2.01064         15.8228         3.12995 
         2.0264         15.6286         3.07115 
        2.04216         15.4873         3.01388 
        2.05781          15.266         2.95844 
        2.07353         15.1471          2.9042 
        2.08928         15.0304          2.8512 
        2.10499          14.856         2.79967 
        2.12065         14.6393         2.74957 
        2.13633         14.6337         2.70065 
        2.15211         14.3957         2.65261 
        2.16785         14.3784         2.60587 
        2.18349         14.2397         2.56055 
        2.19916         14.0398         2.51622 
        2.21489         13.9414         2.47279 
        2.23063         13.7803         2.43035 
         2.2463         13.6416         2.38911 
        2.26194         13.5404         2.34892 
        2.27765          13.453         2.30946 
        2.29341         13.2926          2.2708 
        2.30914          13.112          2.2331 
        2.32486         13.0949         2.19628 
        2.34061         12.9406         2.16024 
        2.35635         12.8012         2.12503 
        2.37203         12.7467         2.09073 
        2.38768         12.5771         2.05726 
        2.40339         12.4182          2.0244 
        2.41914         12.3329         1.99218 
        2.43483         12.2816         1.96078 
         2.4505         12.1513         1.93011 
        2.46622         12.0449         1.89999 
        2.48195         11.9618         1.87051 
        2.49759         11.8521         1.84182 
        2.51328         11.7142         1.81365 
        2.52906         11.6208         1.78589 
        2.54479         11.5223         1.75882 
        2.56049         11.4774         1.73236 
        2.57618          11.387         1.70647 
        2.59189         11.2159         1.68107 
        2.60758         11.1922         1.65623 
        2.62325         11.1265         1.63192 
        2.63898          10.939         1.60801 
        2.65468         10.8689         1.58463 
        2.67044         10.7834         1.56162 
        2.68618          10.672         1.53912 
        2.70184         10.6067         1.51715 
        2.71755         10.5034         1.49556 
        2.73329         10.3919         1.47435 
        2.74897         10.3334         1.45362 
        2.76462         10.3165         1.43334 
        2.78034         10.1238         1.41336 
        2.79607         10.0847         1.39374 
        2.81179         9.98904         1.37452 
        2.82749         9.96169         1.35568 
        2.84321         9.83742         1.33717 
        2.85893         9.77309         1.31901 
        2.87462         9.70933         1.30122 
        2.89033         9.58055         1.28375 
        2.90605         9.52009         1.26658 
        2.92176         9.46742         1.24973 
        2.93747         9.37813          1.2332 
        2.95318         9.33713         1.21696 
        2.96891         9.24546         1.20101 
        2.98456         9.15541         1.18541 
        3.00023          9.1001         1.17007 
        3.01596         9.03493         1.15495 
        3.03164         8.98983         1.14015 
        3.04738          8.9109         1.12556 
         3.0631         8.80249         1.11123 
        3.07883         8.76069         1.09714 
        3.09456         8.70947         1.08331 
        3.11026         8.60486         1.06973 
        3.12596         8.58075         1.05639 
        3.14163          8.4848         1.04331 
        3.15734         8.43035         1.03042 
        3.17308         8.37989         1.01771 
        3.18879         8.29606         1.00526 
        3.20447         8.23401        0.993027 
         3.2202         8.16594        0.980963 
         3.2359         8.12998        0.969121 
        3.25157         8.06576        0.957503 
        3.26729         8.01251        0.946039 
        3.28304         7.92235        0.934742 
        3.29877         7.86401        0.923643 
        3.31446         7.83208        0.912748 
        3.33014         7.74193        0.902039 
        3.34585         7.72539        0.891486 
        3.36158         7.65662        0.881085 
        3.37727         7.60851        0.870883 
        3.39294         7.56382        0.860852 
        3.40867         7.45281        0.850943 
        3.42439         7.43596        0.841195 
        3.44008         7.36813        0.831618 
        3.45578         7.32248        0.822184 
        3.47153          7.2832        0.812875 
        3.48724         7.22035        0.803727 
        3.50292         7.18739         0.79474 
        3.51859         7.11736        0.785896 
        3.53431         7.06045        0.777158 
        3.55007         7.03338        0.768532 
        3.56577         6.98215        0.760071 
        3.58146         6.92619        0.751741 
        3.59719         6.86527        0.743516 
        3.61292         6.83483        0.735418 
        3.62859         6.77553         0.72747 
        3.64429         6.73125        0.719624 
        3.66003         6.66173        0.711871 
        3.67578         6.64411        0.704234 
        3.69146         6.58017        0.696738 
        3.70712         6.56859        0.689365 
        3.72284         6.47424        0.682071 
        3.73853         6.45643        0.674895 
        3.75422         6.40102         0.66782 
        3.76993         6.37783         0.66084 
        3.78564         6.31511        0.653963 
        3.80137         6.28488        0.647172 
        3.81707         6.22464        0.640492 
        3.83279         6.21588        0.633901 
        3.84853         6.14097        0.627391 
        3.86424           6.089        0.620986 
        3.87992         6.06188         0.61468 
        3.89561          6.0167        0.608461 
        3.91134         5.97346        0.602316 
        3.92704         5.93535        0.596262 
        3.94273         5.89039        0.590297 
        3.95845         5.85696        0.584403 
        3.97418         5.83213        0.578589 
        3.98988         5.77302        0.572861 
        4.00554         5.73936        0.567226 
        4.02125         5.69186        0.561651 
        4.03698         5.66156        0.556143 
        4.05268         5.62799         0.55072 
        4.06839         5.59476        0.545366 
         4.0841         5.54958        0.540085 
        4.09983         5.50834        0.534866 
        4.11555         5.46356        0.529718 
        4.13124         5.43079        0.524652 
        4.14693         5.37397        0.519648 
        4.16266         5.33463        0.514698 
        4.17839         5.30877        0.509815 
        4.19408         5.26411        0.505006 
        4.20977         5.23409        0.500258 
        4.22551         5.18914        0.495559 
        4.24123         5.16049        0.490925 
        4.25691         5.13542        0.486363 
        4.27259         5.09864        0.481857 
        4.28831         5.06192          0.4774 
        4.30404         5.02002        0.472994 
        4.31974         4.99607        0.468654 
        4.33543          4.9516        0.464371 
        4.35116         4.92255        0.460131 
        4.36688         4.87147        0.455945 
        4.38255         4.84117        0.451827 
        4.39825          4.8306        0.447751 
        4.41398         4.79031        0.443717 
         4.4297         4.76259        0.439738 
        4.44541         4.72411        0.435807 
        4.46111         4.70496        0.431928 
        4.47683         4.64775        0.428093 
        4.49251         4.63478        0.424312 
        4.50819         4.59885        0.420578 
         4.5239         4.57141        0.416883 
        4.53962         4.55335        0.413229 
        4.55535         4.51741        0.409616 
        4.57106         4.49412        0.406052 
        4.58678         4.45924        0.402529 
         4.6025         4.43421        0.399047 
        4.61821         4.39945        0.395607 
        4.63391         4.37752        0.392212 
         4.6496         4.34673        0.388858 
        4.66532         4.32312        0.385538 
        4.68103         4.28087        0.382259 
        4.69673         4.26218         0.37902 
        4.71241         4.22948        0.375822 
        4.72811         4.21431        0.372656 
        4.74384         4.19482        0.369523 
        4.75955         4.15456         0.36643 
        4.77525         4.12106        0.363374 
        4.79096         4.09893        0.360349 
        4.80669         4.06753        0.357357 
         4.8224         4.05238        0.354403 
        4.83809         4.02443        0.351485 
        4.85379         3.99797        0.348598 
         4.8695         3.97154        0.345741 
        4.88521         3.94693        0.342918 
        4.90093         3.93567        0.340125 
        4.91663         3.90018        0.337366 
        4.93234         3.87796        0.334635 
        4.94807         3.85935        0.331932 
        4.96377         3.81755        0.329264 
        4.97943         3.80053        0.326631 
        4.99514         3.77814         0.32402 
        5.01086         3.75971        0.321436 
        5.02654         3.73257        0.318886 
        5.04227         3.70958        0.316356 
          5.058         3.69077        0.313853 
        5.07371         3.66616        0.311382 
        5.08942         3.64717        0.308936 
        5.10513         3.62227        0.306517 
        5.12084         3.60097        0.304123 
        5.13656         3.58444        0.301754 
        5.15225         3.56282        0.299415 
        5.16796         3.53738        0.297097 
        5.18369         3.51576        0.294801 
         5.1994         3.49232        0.292534 
        5.21509          3.4764        0.290292 
        5.23079         3.45114        0.288071 
        5.24649         3.43441        0.285876 
        5.26217         3.41414        0.283704 
        5.27788         3.38624        0.281553 
        5.29359         3.36501        0.279423 
        5.30933         3.35372        0.277312 
        5.32504         3.33296        0.275226 
        5.34073         3.30822        0.273164 
        5.35646         3.29915        0.271119 
        5.37218          3.2731        0.269095 
        5.38789         3.25493        0.267094 
        5.40357         3.23779        0.265116 
        5.41929         3.21238        0.263154 
        5.43502         3.19932        0.261211 
         5.4507         3.18217        0.259293 
        5.46639         3.15661        0.257393 
        5.48212          3.1436        0.255509 
        5.49786         3.12295         0.25364 
        5.51353         3.10508          0.2518 
        5.52921         3.09042        0.249976 
        5.54495         3.07076        0.248165 
        5.56066         3.05123        0.246373 
        5.57637         3.04034          0.2446 
        5.59207         3.02315        0.242846 
        5.60778         3.00563        0.241108 
        5.62346         2.98379        0.239389 
        5.63916         2.96594        0.237686 
        5.65487         2.95238        0.235998 
         5.6706         2.93156        0.234325 
        5.68633         2.91527        0.232667 
        5.70203         2.90585        0.231029 
        5.71773         2.88257        0.229407 
        5.73344         2.86419          0.2278 
        5.74916         2.85006        0.226206 
        5.76486         2.83877         0.22463 
        5.78054         2.81648        0.223071 
        5.79626         2.80778        0.221523 
          5.812         2.79297        0.219988 
         5.8277          2.7785        0.218471 
        5.84339         2.75961         0.21697 
        5.85911         2.74799        0.215479 
        5.87484         2.73511        0.214003 
        5.89053         2.71292        0.212543 
        5.90623         2.70041        0.211096 
        5.92195         2.68809         0.20966 
        5.93767         2.67184        0.208239 
        5.95336         2.65645        0.206833 
        5.96905         2.64312         0.20544 
        5.98476         2.63128        0.204058 
        6.00048         2.61886        0.202689 
        6.01617         2.59852        0.201334 
        6.03185         2.58678        0.199993 
        6.04756         2.57034         0.19866 
        6.06331         2.55596        0.197338 
        6.07903         2.54122         0.19603 
        6.09473         2.53493        0.194735 
        6.11044         2.51391         0.19345 
        6.12616         2.50332        0.192178 
        6.14186         2.48887        0.190918 
        6.15755         2.47685        0.189669 
        6.17326         2.46499        0.188431 
        6.18898         2.45256        0.187203 
        6.20467         2.44038        0.185988 
        6.22036         2.42558        0.184784 
         6.2361         2.41455        0.183587 
         6.2518         2.40446        0.182404 
        6.26748         2.38846        0.181233 
        6.28319         2.37544        0.180069 
        6.29893         2.36886        0.178914 
        6.31463         2.35333        0.177771 
        6.33033          2.3376        0.176639 
        6.34604         2.32818        0.175516 
        6.36177         2.31864        0.174401 
        6.37747         2.30606        0.173298 
