# k  (h/Mpc)    Pcb(k)  (Mpc/h)^3    Pcb_linear(k) (Mpc/h)^3   ShotnoiseSubtracted = true
      0.0200456         91.0553         92.2728 
      0.0350414         67.1681         67.0792 
      0.0492313         48.9537         48.7385 
      0.0637834         40.6126         40.5158 
      0.0800726         32.1879         32.1564 
       0.096163         23.4077         23.3323 
       0.111083         18.6411         18.6104 
       0.126058         16.4948         16.4926 
       0.142273           13.98         13.9729 
       0.158546         11.0911         11.0356 
        0.17375         9.30164         9.29753 
       0.188953         8.41523          8.4187 
       0.204907         7.50087         7.44883 
       0.220756         6.32949         6.30216 
        0.23588         5.50626         5.48233 
         0.2514         4.98046         4.98065 
       0.267535         4.50488         4.50663 
       0.283568         3.98279         3.97424 
       0.299022         3.55561         3.54084 
       0.314451         3.22365         3.23609 
       0.330372         2.96571         2.96875 
       0.346141         2.69375         2.69459 
       0.361624          2.4544         2.44902 
       0.377134          2.2629         2.25348 
       0.392932         2.06665          2.0851 
       0.408854         1.92746         1.92206 
       0.424564         1.76816         1.77159 
       0.440253         1.64172         1.64247 
       0.455999         1.53491         1.53019 
       0.471626         1.43379         1.42701 
        0.48727         1.32987          1.3305 
       0.502856         1.24067         1.24379 
       0.518488         1.17303         1.16642 
       0.534347         1.10501          1.0945 
       0.550082           1.027         1.02818 
       0.565732        0.958561         0.96751 
       0.581496        0.913219        0.911943 
       0.597222        0.863377        0.860982 
       0.612804        0.813771        0.814122 
       0.628434        0.774467        0.770445 
       0.644267        0.730112         0.72961 
       0.660051        0.690789        0.691975 
       0.675724        0.658091        0.657223 
       0.691403        0.627178        0.624828 
       0.707174        0.594887        0.594435 
       0.722871        0.563761        0.566184 
        0.73838        0.541496        0.540071 
       0.754018        0.518561        0.515408 
       0.769845        0.494265        0.492017 
        0.78569        0.471122        0.470058 
       0.801365         0.44964        0.449658 
       0.817031         0.43107        0.430488 
       0.832809         0.41295        0.412318 
       0.848511        0.395037        0.395284 
       0.864097        0.377594        0.379334 
       0.879701        0.362106        0.364253 
       0.895507        0.350426        0.349818 
       0.911279        0.336385        0.336198 
        0.92691        0.322669         0.32342 
       0.942635        0.311007        0.311239 
       0.958396        0.298557        0.299662 
       0.974128        0.287524        0.288697 
       0.989692         0.27778        0.278392 
        1.00528        0.268655        0.268577 
        1.02113        0.257089        0.259083 
        1.03692         0.24914        0.250084 
        1.05264        0.240655        0.241557 
        1.06832        0.232705        0.233442 
        1.08405        0.223992        0.225679 
        1.09979        0.216486        0.218267 
        1.11537        0.210994        0.211262 
        1.13105        0.203849        0.204524 
        1.14679        0.198059        0.198055 
        1.16256        0.190186        0.191854 
        1.17828        0.184357         0.18594 
        1.19395        0.178417        0.180296 
         1.2097        0.172923        0.174859 
        1.22537         0.16886        0.169673 
          1.241        0.163416        0.164714 
        1.25666        0.159161        0.159941 
        1.27241        0.153996        0.155335 
        1.28819        0.149562        0.150904 
        1.30392        0.145153        0.146659 
        1.31957        0.141336        0.142597 
        1.33529        0.136977        0.138674 
        1.35108        0.133342        0.134884 
        1.36674        0.128851        0.131263 
         1.3824        0.126784        0.127778 
        1.39811        0.122747        0.124409 
        1.41389        0.119549        0.121149 
        1.42964        0.116886        0.118012 
        1.44531        0.113099        0.115001 
        1.46101        0.110522        0.112089 
        1.47667        0.107212        0.109287 
        1.49229        0.104855        0.106588 
        1.50793        0.101955        0.103978 
        1.52367       0.0996156        0.101439 
        1.53953       0.0974716       0.0989674 
        1.55526       0.0950282       0.0965983 
        1.57092       0.0920786       0.0943167 
        1.58662       0.0903525       0.0921035 
        1.60235       0.0884951       0.0899572 
        1.61809       0.0856986       0.0878785 
        1.63369       0.0841658        0.085884 
        1.64941       0.0823305       0.0839373 
        1.66519        0.080185        0.082044 
        1.68085       0.0782113       0.0802227 
        1.69652       0.0763584       0.0784563 
        1.71228       0.0750706       0.0767332 
        1.72806       0.0728659       0.0750605 
        1.74368       0.0715953       0.0734546 
        1.75933       0.0700523       0.0718926 
        1.77505       0.0684257       0.0703688 
        1.79081       0.0671566       0.0688865 
         1.8065       0.0652953       0.0674533 
        1.82218       0.0641643       0.0660623 
        1.83797       0.0627024        0.064701 
        1.85367        0.061386       0.0633857 
        1.86928       0.0603008       0.0621149 
        1.88497       0.0591298       0.0608721 
        1.90073       0.0577881       0.0596587 
        1.91647        0.056443       0.0584796 
        1.93218       0.0553081       0.0573348 
        1.94787       0.0541461       0.0562225 
        1.96363       0.0532342       0.0551353 
        1.97935        0.051995       0.0540791 
        1.99499       0.0510667       0.0530566 
        2.01064       0.0502153       0.0520591 
         2.0264       0.0492521        0.051081 
        2.04216       0.0481669       0.0501286 
        2.05781       0.0473221       0.0492064 
        2.07353        0.046162       0.0483043 
        2.08928       0.0454293       0.0474228 
        2.10499        0.044388       0.0465656 
        2.12065       0.0438056       0.0457323 
        2.13633       0.0427938       0.0449187 
        2.15211       0.0422814       0.0441196 
        2.16785       0.0414477       0.0433422 
        2.18349       0.0404302       0.0425885 
        2.19916       0.0400498       0.0418511 
        2.21489       0.0393703       0.0411288 
        2.23063       0.0385274        0.040423 
         2.2463       0.0376884        0.039737 
        2.26194       0.0370469       0.0390686 
        2.27765       0.0364038       0.0384122 
        2.29341       0.0359413       0.0377691 
        2.30914       0.0351603       0.0371422 
        2.32486       0.0345638       0.0365298 
        2.34061       0.0340347       0.0359302 
        2.35635       0.0333806       0.0353447 
        2.37203       0.0328414       0.0347742 
        2.38768       0.0322377       0.0342175 
        2.40339       0.0316831        0.033671 
        2.41914       0.0312782       0.0331351 
        2.43483       0.0305746       0.0326128 
         2.4505        0.030121       0.0321027 
        2.46622       0.0296515       0.0316017 
        2.48195        0.029091       0.0311114 
        2.49759       0.0287198       0.0306341 
        2.51328       0.0283475       0.0301656 
        2.52906       0.0278335        0.029704 
        2.54479       0.0273869       0.0292537 
        2.56049        0.026947       0.0288136 
        2.57618        0.026518        0.028383 
        2.59189        0.026089       0.0279605 
        2.60758       0.0257351       0.0275473 
        2.62325       0.0252935        0.027143 
        2.63898       0.0248747       0.0267453 
        2.65468        0.024478       0.0263565 
        2.67044       0.0242019       0.0259738 
        2.68618       0.0237876       0.0255995 
        2.70184       0.0234156       0.0252341 
        2.71755       0.0229746       0.0248749 
        2.73329       0.0226605       0.0245222 
        2.74897       0.0224121       0.0241774 
        2.76462       0.0220061       0.0238401 
        2.78034       0.0216944       0.0235078 
        2.79607       0.0214223       0.0231815 
        2.81179        0.021068       0.0228617 
        2.82749       0.0207524       0.0225484 
        2.84321       0.0204716       0.0222405 
        2.85893       0.0201457       0.0219385 
        2.87462       0.0199078       0.0216427 
        2.89033       0.0196458        0.021352 
        2.90605       0.0192853       0.0210664 
        2.92176        0.019109       0.0207862 
        2.93747       0.0187908       0.0205112 
        2.95318       0.0184892       0.0202411 
        2.96891       0.0182924       0.0199758 
        2.98456       0.0180892       0.0197164 
        3.00023       0.0177489       0.0194613 
        3.01596       0.0174768       0.0192098 
        3.03164       0.0173439       0.0189636 
        3.04738       0.0170622       0.0187209 
         3.0631       0.0167615       0.0184825 
        3.07883       0.0165546       0.0182483 
        3.09456       0.0164273       0.0180182 
        3.11026       0.0161538       0.0177924 
        3.12596        0.015999       0.0175705 
        3.14163       0.0157427       0.0173529 
        3.15734       0.0155553       0.0171385 
        3.17308       0.0153203       0.0169272 
        3.18879       0.0151497         0.01672 
        3.20447       0.0149775       0.0165166 
         3.2202       0.0147744       0.0163159 
         3.2359       0.0146046        0.016119 
        3.25157       0.0143866       0.0159257 
        3.26729       0.0142552       0.0157351 
        3.28304       0.0140351       0.0155471 
        3.29877       0.0138909       0.0153625 
        3.31446       0.0137058       0.0151813 
        3.33014       0.0135075       0.0150032 
        3.34585       0.0133496       0.0148277 
        3.36158       0.0131829       0.0146547 
        3.37727       0.0130561        0.014485 
        3.39294       0.0129025       0.0143182 
        3.40867       0.0127679       0.0141533 
        3.42439       0.0126256       0.0139912 
        3.44008       0.0124705       0.0138319 
        3.45578       0.0123331        0.013675 
        3.47153       0.0121655       0.0135202 
        3.48724       0.0120925        0.013368 
        3.50292       0.0118626       0.0132186 
        3.51859       0.0117354       0.0130715 
        3.53431       0.0116572       0.0129261 
        3.55007       0.0115403       0.0127827 
        3.56577       0.0114293       0.0126419 
        3.58146       0.0112199       0.0125034 
        3.59719        0.011132       0.0123666 
        3.61292       0.0109863       0.0122319 
        3.62859       0.0108886       0.0120997 
        3.64429       0.0107951       0.0119692 
        3.66003       0.0106754       0.0118402 
        3.67578       0.0105613       0.0117132 
        3.69146       0.0104782       0.0115885 
        3.70712       0.0103725       0.0114659 
        3.72284       0.0102391       0.0113446 
        3.73853        0.010113       0.0112252 
        3.75422       0.0100672       0.0111075 
        3.76993      0.00993285       0.0109915 
        3.78564      0.00988776       0.0108771 
        3.80137      0.00976875       0.0107641 
        3.81707      0.00964056        0.010653 
        3.83279      0.00955463       0.0105434 
        3.84853      0.00948466       0.0104351 
        3.86424      0.00936222       0.0103286 
        3.87992      0.00928404       0.0102237 
        3.89561      0.00922093       0.0101203 
        3.91134      0.00914858        0.010018 
        3.92704      0.00901496      0.00991736 
        3.94273      0.00896836      0.00981815 
        3.95845      0.00885897      0.00972012 
        3.97418      0.00877725      0.00962341 
        3.98988      0.00871225      0.00952814 
        4.00554      0.00859562      0.00943442 
        4.02125      0.00850111      0.00934169 
        4.03698       0.0084247      0.00925007 
        4.05268      0.00830742      0.00915988 
        4.06839      0.00818515      0.00907083 
         4.0841      0.00810652      0.00898299 
        4.09983      0.00799412      0.00889618 
        4.11555       0.0079107      0.00881056 
        4.13124      0.00781001       0.0087263 
        4.14693      0.00772675      0.00864307 
        4.16266      0.00762063      0.00856074 
        4.17839      0.00755843      0.00847952 
        4.19408      0.00747451      0.00839954 
        4.20977      0.00740291      0.00832056 
        4.22551      0.00732916       0.0082424 
        4.24123      0.00724408      0.00816533 
        4.25691      0.00717915      0.00808946 
        4.27259      0.00711337      0.00801452 
        4.28831      0.00707897      0.00794038 
        4.30404      0.00699862      0.00786711 
        4.31974      0.00693992      0.00779492 
        4.33543      0.00688068      0.00772367 
        4.35116       0.0068277      0.00765315 
        4.36688       0.0067701      0.00758353 
        4.38255      0.00673694      0.00751504 
        4.39825      0.00671557      0.00744725 
        4.41398      0.00668258      0.00738015 
         4.4297      0.00664876      0.00731396 
        4.44541      0.00660224      0.00724858 
        4.46111      0.00656146      0.00718406 
        4.47683      0.00655455      0.00712027 
        4.49251      0.00650739      0.00705739 
        4.50819       0.0065032      0.00699528 
         4.5239       0.0064967      0.00693384 
        4.53962      0.00647422      0.00687305 
        4.55535      0.00645689      0.00681296 
        4.57106      0.00647667      0.00675368 
        4.58678      0.00644467      0.00669508 
         4.6025      0.00646839      0.00663717 
        4.61821      0.00647133      0.00657996 
        4.63391      0.00645261      0.00652349 
         4.6496      0.00646771       0.0064677 
        4.66532      0.00647099      0.00641249 
        4.68103      0.00649107      0.00635794 
        4.69673      0.00648899      0.00630407 
        4.71241      0.00652189      0.00625089 
        4.72811      0.00652374      0.00619823 
        4.74384      0.00656789      0.00614611 
        4.75955      0.00657754      0.00609466 
        4.77525      0.00662152      0.00604384 
        4.79096      0.00665912      0.00599353 
        4.80669      0.00666661      0.00594377 
         4.8224      0.00672175      0.00589463 
        4.83809      0.00674527       0.0058461 
        4.85379      0.00680913      0.00579808 
         4.8695      0.00685547      0.00575056 
        4.88521      0.00690722       0.0057036 
        4.90093      0.00696407      0.00565715 
        4.91663      0.00704712      0.00561127 
        4.93234        0.007078      0.00556584 
        4.94807      0.00715298      0.00552088 
        4.96377      0.00720909      0.00547651 
        4.97943      0.00727462      0.00543271 
        4.99514      0.00735488      0.00538928 
        5.01086      0.00744228       0.0053463 
        5.02654      0.00752003      0.00530389 
        5.04227      0.00761924      0.00526181 
          5.058      0.00769461      0.00522018 
        5.07371      0.00779882      0.00517907 
        5.08942      0.00791594       0.0051384 
        5.10513      0.00796517      0.00509816 
        5.12084       0.0080694      0.00505834 
        5.13656      0.00818066      0.00501894 
        5.15225      0.00827667      0.00498004 
        5.16796       0.0084126      0.00494148 
        5.18369      0.00855889      0.00490329 
         5.1994      0.00866085      0.00486558 
        5.21509      0.00884809       0.0048283 
        5.23079      0.00890781      0.00479136 
        5.24649      0.00909836      0.00475484 
        5.26217      0.00920073      0.00471873 
        5.27788      0.00940127      0.00468294 
        5.29359      0.00951844      0.00464751 
        5.30933      0.00971705       0.0046124 
        5.32504      0.00984252      0.00457771 
        5.34073       0.0100598      0.00454341 
        5.35646       0.0101823       0.0045094 
        5.37218       0.0103668      0.00447573 
        5.38789       0.0105614      0.00444246 
        5.40357       0.0107015      0.00440956 
        5.41929       0.0109101      0.00437692 
        5.43502       0.0111409      0.00434461 
         5.4507       0.0113823       0.0043127 
        5.46639       0.0116385      0.00428111 
        5.48212       0.0117064      0.00424976 
        5.49786       0.0120395      0.00421869 
        5.51353       0.0122807      0.00418808 
        5.52921       0.0125238      0.00415774 
        5.54495       0.0127922      0.00412761 
        5.56066       0.0130072      0.00409782 
        5.57637        0.013299      0.00406832 
        5.59207       0.0135118      0.00403914 
        5.60778       0.0137974      0.00401024 
        5.62346       0.0141552      0.00398166 
        5.63916       0.0143891      0.00395333 
        5.65487       0.0147416      0.00392526 
         5.6706       0.0149525      0.00389743 
        5.68633       0.0153716      0.00386985 
        5.70203       0.0156929      0.00384261 
        5.71773       0.0160402      0.00381563 
        5.73344       0.0163257      0.00378889 
        5.74916       0.0167707      0.00376238 
        5.76486       0.0171275      0.00373617 
        5.78054       0.0174748      0.00371024 
        5.79626       0.0177976      0.00368449 
          5.812       0.0183241      0.00365896 
         5.8277       0.0186622      0.00363374 
        5.84339       0.0191013      0.00360876 
        5.85911       0.0196785      0.00358396 
        5.87484       0.0200976      0.00355941 
        5.89053       0.0205629      0.00353513 
        5.90623        0.021189      0.00351107 
        5.92195       0.0216217      0.00348719 
        5.93767       0.0220989      0.00346354 
        5.95336       0.0225743      0.00344015 
        5.96905       0.0232935      0.00341699 
        5.98476        0.023609      0.00339401 
        6.00048       0.0242331      0.00337123 
        6.01617       0.0248644      0.00334869 
        6.03185        0.025402      0.00332639 
        6.04756       0.0261293      0.00330423 
        6.06331       0.0266476      0.00328223 
        6.07903       0.0274947      0.00326047 
        6.09473       0.0279353      0.00323893 
        6.11044       0.0289471      0.00321757 
        6.12616        0.029719       0.0031964 
        6.14186       0.0301889      0.00317545 
        6.15755       0.0310401      0.00315468 
        6.17326       0.0317004      0.00313408 
        6.18898       0.0328749      0.00311366 
        6.20467       0.0337855      0.00309345 
        6.22036       0.0345215      0.00307343 
         6.2361       0.0354181      0.00305353 
         6.2518       0.0364148      0.00303384 
        6.26748       0.0370505      0.00301436 
        6.28319       0.0383365        0.002995 
        6.29893       0.0392756       0.0029758 
        6.31463       0.0404828      0.00295679 
        6.33033       0.0414508      0.00293796 
        6.34604       0.0426085      0.00291928 
        6.36177        0.043918      0.00290074 
        6.37747       0.0450754       0.0028824 
