# k  (h/Mpc)    Pcb(k)  (Mpc/h)^3    Pcb_linear(k) (Mpc/h)^3   ShotnoiseSubtracted = true
      0.0200456         1876.56         1900.73 
      0.0350414         1401.82         1381.76 
      0.0492313         1006.35         1003.96 
      0.0637834         823.603         834.586 
      0.0800726         651.729          662.39 
       0.096163         489.718         480.622 
       0.111083         393.702         383.356 
       0.126058         337.851         339.732 
       0.142273          285.92         287.827 
       0.158546         230.391         227.323 
        0.17375         197.061          191.52 
       0.188953         177.328         173.417 
       0.204907         152.063         153.439 
       0.220756         133.135         129.818 
        0.23588         116.286         112.931 
         0.2514         105.313         102.596 
       0.267535         97.0652         92.8321 
       0.283568         85.2803         81.8654 
       0.299022         77.4873         72.9378 
       0.314451         72.7793         66.6603 
       0.330372         65.2294         61.1533 
       0.346141         59.5521         55.5059 
       0.361624         54.5272         50.4473 
       0.377134         49.8816         46.4195 
       0.392932         48.0986          42.951 
       0.408854          43.751         39.5926 
       0.424564         41.6767          36.493 
       0.440253         38.0129         33.8333 
       0.455999         34.7526         31.5205 
       0.471626         32.8002         29.3951 
        0.48727         31.7525         27.4069 
       0.502856         29.6679         25.6208 
       0.518488          27.583         24.0271 
       0.534347         25.9042         22.5456 
       0.550082         24.8676         21.1795 
       0.565732         23.8476         19.9297 
       0.581496         22.4266         18.7851 
       0.597222         21.1448         17.7354 
       0.612804         20.0536         16.7701 
       0.628434         19.5866         15.8704 
       0.644267         18.5411         15.0292 
       0.660051         17.5669          14.254 
       0.675724         16.6857         13.5381 
       0.691403         16.2638         12.8708 
       0.707174         15.5333         12.2448 
       0.722871         15.0545         11.6628 
        0.73838         14.1857         11.1249 
       0.754018          13.492         10.6169 
       0.769845         13.0323         10.1351 
        0.78569         12.6591         9.68273 
       0.801365          12.124         9.26251 
       0.817031         11.7059         8.86761 
       0.832809         11.2397         8.49334 
       0.848511         10.9101         8.14246 
       0.864097         10.5167          7.8139 
       0.879701         10.3023         7.50325 
       0.895507         9.90775          7.2059 
       0.911279         9.49616         6.92535 
        0.92691         9.25877         6.66214 
       0.942635         8.97619         6.41121 
       0.958396         8.66284         6.17274 
       0.974128         8.45592         5.94688 
       0.989692         8.05624          5.7346 
        1.00528         7.97437         5.53241 
        1.02113          7.7017         5.33684 
        1.03692         7.51215         5.15149 
        1.05264         7.28311         4.97583 
        1.06832         7.10707         4.80867 
        1.08405         6.92374         4.64877 
        1.09979         6.74222         4.49608 
        1.11537         6.56585         4.35179 
        1.13105          6.4013         4.21299 
        1.14679         6.25613         4.07973 
        1.16256          6.0783           3.952 
        1.17828         5.97187         3.83018 
        1.19395         5.79485         3.71393 
         1.2097         5.61915         3.60192 
        1.22537         5.48506         3.49509 
          1.241         5.35438         3.39294 
        1.25666         5.32091         3.29462 
        1.27241         5.19806         3.19975 
        1.28819         4.98872         3.10847 
        1.30392         4.90262         3.02103 
        1.31957         4.81715         2.93735 
        1.33529          4.7013         2.85655 
        1.35108         4.59936         2.77847 
        1.36674         4.48472         2.70388 
         1.3824         4.43627         2.63211 
        1.39811            4.33         2.56271 
        1.41389         4.21948         2.49555 
        1.42964         4.15956         2.43092 
        1.44531          4.0782          2.3689 
        1.46101         4.01984         2.30892 
        1.47667         3.92706          2.2512 
        1.49229         3.81167         2.19562 
        1.50793         3.74149         2.14185 
        1.52367         3.67323         2.08954 
        1.53953         3.60005         2.03863 
        1.55526         3.59591         1.98983 
        1.57092         3.49576         1.94283 
        1.58662         3.45244         1.89724 
        1.60235          3.3725         1.85303 
        1.61809         3.31558         1.81021 
        1.63369         3.25727         1.76912 
        1.64941         3.20187         1.72902 
        1.66519         3.16079         1.69002 
        1.68085         3.09552         1.65251 
        1.69652         3.04955         1.61612 
        1.71228         3.00263         1.58063 
        1.72806         2.95865         1.54617 
        1.74368         2.91089         1.51309 
        1.75933         2.86649         1.48092 
        1.77505         2.81105         1.44953 
        1.79081         2.77616         1.41899 
         1.8065         2.73574         1.38947 
        1.82218         2.68299         1.36082 
        1.83797         2.63702         1.33278 
        1.85367         2.60012         1.30568 
        1.86928         2.57375         1.27951 
        1.88497         2.51647          1.2539 
        1.90073         2.49731         1.22891 
        1.91647         2.45547         1.20462 
        1.93218         2.42151         1.18104 
        1.94787         2.39039         1.15813 
        1.96363         2.35906         1.13573 
        1.97935         2.32016         1.11398 
        1.99499         2.29085         1.09291 
        2.01064         2.26452         1.07237 
         2.0264         2.22382         1.05222 
        2.04216         2.19901          1.0326 
        2.05781         2.16454          1.0136 
        2.07353         2.15156         0.99502 
        2.08928         2.11426        0.976862 
        2.10499         2.07936        0.959206 
        2.12065         2.07026         0.94204 
        2.13633         2.03544         0.92528 
        2.15211         2.00262         0.90882 
        2.16785         1.98295        0.892807 
        2.18349         1.95491        0.877281 
        2.19916         1.94123        0.862091 
        2.21489         1.91878        0.847211 
        2.23063         1.88165        0.832673 
         2.2463         1.85391        0.818542 
        2.26194          1.8422        0.804774 
        2.27765         1.80291        0.791252 
        2.29341         1.79174        0.778007 
        2.30914         1.76695        0.765092 
        2.32486         1.76105        0.752478 
        2.34061         1.73691        0.740127 
        2.35635         1.71608        0.728065 
        2.37203         1.69822        0.716314 
        2.38768         1.67832        0.704846 
        2.40339          1.6581        0.693588 
        2.41914         1.64063         0.68255 
        2.43483         1.62257        0.671792 
         2.4505         1.60305        0.661284 
        2.46622         1.58149        0.650964 
        2.48195         1.57051        0.640864 
        2.49759         1.54909        0.631033 
        2.51328          1.5366        0.621382 
        2.52906         1.52378        0.611872 
        2.54479         1.50169        0.602597 
        2.56049         1.48909        0.593532 
        2.57618         1.47243        0.584661 
        2.59189          1.4631        0.575959 
        2.60758         1.44299        0.567447 
        2.62325         1.42478        0.559118 
        2.63898         1.41112        0.550927 
        2.65468         1.39188        0.542918 
        2.67044         1.38938        0.535033 
        2.68618         1.37432        0.527324 
        2.70184          1.3592        0.519797 
        2.71755         1.35069        0.512398 
        2.73329         1.32958        0.505132 
        2.74897         1.32017        0.498031 
        2.76462         1.30759        0.491082 
        2.78034         1.30407        0.484237 
        2.79607         1.28431        0.477515 
        2.81179          1.2721        0.470928 
        2.82749         1.25902        0.464474 
        2.84321         1.25082        0.458133 
        2.85893         1.23674        0.451912 
        2.87462         1.22864        0.445817 
        2.89033         1.21589         0.43983 
        2.90605           1.208        0.433947 
        2.92176         1.19759        0.428175 
        2.93747         1.18665         0.42251 
        2.95318         1.17262        0.416947 
        2.96891         1.17044        0.411482 
        2.98456          1.1541        0.406139 
        3.00023         1.14355        0.400883 
        3.01596         1.13175        0.395704 
        3.03164         1.12541         0.39063 
        3.04738         1.11798        0.385631 
         3.0631         1.10519        0.380722 
        3.07883         1.09798        0.375897 
        3.09456         1.08642        0.371157 
        3.11026         1.08227        0.366506 
        3.12596         1.06925        0.361935 
        3.14163         1.06502        0.357453 
        3.15734         1.05339        0.353036 
        3.17308         1.04795        0.348683 
        3.18879         1.04076        0.344415 
        3.20447         1.03048        0.340225 
         3.2202         1.02184        0.336092 
         3.2359         1.01443        0.332034 
        3.25157         1.00624        0.328054 
        3.26729         1.00017        0.324126 
        3.28304        0.992142        0.320256 
        3.29877        0.983187        0.316453 
        3.31446         0.97984         0.31272 
        3.33014        0.964549        0.309051 
        3.34585        0.962505        0.305436 
        3.36158        0.955243        0.301872 
        3.37727        0.951815        0.298377 
        3.39294        0.940352         0.29494 
        3.40867        0.937515        0.291545 
        3.42439        0.932928        0.288205 
        3.44008        0.923518        0.284924 
        3.45578        0.915879        0.281692 
        3.47153         0.91013        0.278502 
        3.48724          0.9032        0.275368 
        3.50292        0.894544        0.272289 
        3.51859        0.895247        0.269259 
        3.53431        0.884529        0.266265 
        3.55007        0.881392         0.26331 
        3.56577        0.875364        0.260411 
        3.58146        0.870302        0.257557 
        3.59719         0.86359        0.254739 
        3.61292        0.856503        0.251964 
        3.62859        0.852145        0.249241 
        3.64429        0.844774        0.246553 
        3.66003        0.839458        0.243897 
        3.67578        0.834912         0.24128 
        3.69146        0.830653        0.238712 
        3.70712        0.825179        0.236186 
        3.72284         0.81987        0.233687 
        3.73853        0.812991        0.231229 
        3.75422        0.810382        0.228804 
        3.76993        0.803102        0.226413 
        3.78564        0.798699        0.224057 
        3.80137        0.794391         0.22173 
        3.81707         0.78856        0.219441 
        3.83279        0.783977        0.217183 
        3.84853        0.779048        0.214953 
        3.86424        0.771558        0.212759 
        3.87992        0.771788        0.210598 
        3.89561        0.765621        0.208467 
        3.91134        0.758855        0.206362 
        3.92704        0.754765        0.204288 
        3.94273        0.750308        0.202244 
        3.95845        0.745916        0.200225 
        3.97418        0.741759        0.198233 
        3.98988        0.737445         0.19627 
        4.00554        0.730737         0.19434 
        4.02125        0.726535         0.19243 
        4.03698        0.721177        0.190542 
        4.05268        0.716444        0.188684 
        4.06839        0.710028         0.18685 
         4.0841        0.704436        0.185041 
        4.09983        0.700832        0.183253 
        4.11555        0.695718        0.181489 
        4.13124        0.688786        0.179753 
        4.14693        0.686614        0.178039 
        4.16266        0.678082        0.176343 
        4.17839        0.674258         0.17467 
        4.19408        0.672283        0.173022 
        4.20977        0.666653        0.171395 
        4.22551        0.664087        0.169785 
        4.24123        0.657528        0.168198 
        4.25691        0.653207        0.166635 
        4.27259        0.650255        0.165091 
        4.28831           0.647        0.163564 
        4.30404        0.644142        0.162055 
        4.31974        0.637504        0.160568 
        4.33543        0.634328          0.1591 
        4.35116        0.630241        0.157647 
        4.36688        0.625751        0.156213 
        4.38255         0.62383        0.154802 
        4.39825        0.620973        0.153406 
        4.41398        0.616109        0.152024 
         4.4297         0.61565         0.15066 
        4.44541        0.609497        0.149314 
        4.46111        0.607385        0.147984 
        4.47683        0.604698        0.146671 
        4.49251         0.60182        0.145375 
        4.50819        0.599057        0.144096 
         4.5239        0.596117         0.14283 
        4.53962        0.590424        0.141578 
        4.55535        0.591616         0.14034 
        4.57106         0.58759        0.139119 
        4.58678         0.58578        0.137912 
         4.6025        0.582741        0.136719 
        4.61821        0.580793        0.135541 
        4.63391        0.580387        0.134377 
         4.6496        0.576132        0.133228 
        4.66532         0.57395        0.132091 
        4.68103        0.572137        0.130967 
        4.69673        0.568307        0.129858 
        4.71241        0.568653        0.128762 
        4.72811        0.565914        0.127677 
        4.74384        0.564942        0.126604 
        4.75955        0.563572        0.125544 
        4.77525        0.560223        0.124497 
        4.79096        0.559844        0.123461 
        4.80669        0.557148        0.122436 
         4.8224        0.555161        0.121423 
        4.83809        0.553567        0.120424 
        4.85379        0.553213        0.119435 
         4.8695        0.551327        0.118456 
        4.88521        0.550092        0.117488 
        4.90093         0.54841        0.116532 
        4.91663        0.547319        0.115586 
        4.93234         0.54512        0.114651 
        4.94807        0.545417        0.113725 
        4.96377         0.54533        0.112811 
        4.97943        0.543131        0.111908 
        4.99514        0.541455        0.111014 
        5.01086        0.540579        0.110128 
        5.02654        0.540906        0.109255 
        5.04227        0.538614        0.108388 
          5.058        0.539204         0.10753 
        5.07371        0.536882        0.106684 
        5.08942        0.538146        0.105846 
        5.10513        0.536983        0.105017 
        5.12084         0.53464        0.104197 
        5.13656         0.53573        0.103385 
        5.15225        0.535014        0.102584 
        5.16796        0.534509         0.10179 
        5.18369        0.533012        0.101003 
         5.1994        0.533548        0.100226 
        5.21509        0.533196       0.0994582 
        5.23079        0.531437       0.0986973 
        5.24649        0.532676        0.097945 
        5.26217        0.532729       0.0972011 
        5.27788        0.532971       0.0964639 
        5.29359        0.532522       0.0957341 
        5.30933        0.532183       0.0950109 
        5.32504         0.53126       0.0942963 
        5.34073        0.531753       0.0935898 
        5.35646        0.531401       0.0928892 
        5.37218        0.532894       0.0921956 
        5.38789        0.530475       0.0915102 
        5.40357        0.530822       0.0908325 
        5.41929        0.532191       0.0901602 
        5.43502         0.53188       0.0894946 
         5.4507        0.532267       0.0888374 
        5.46639        0.531969       0.0881866 
        5.48212        0.532922       0.0875408 
        5.49786         0.53332       0.0869007 
        5.51353        0.532837       0.0862702 
        5.52921        0.532719       0.0856453 
        5.54495        0.533839       0.0850247 
        5.56066        0.534271        0.084411 
        5.57637        0.534098       0.0838034 
        5.59207        0.535544       0.0832023 
        5.60778        0.535323       0.0826069 
        5.62346         0.53503       0.0820182 
        5.63916        0.535622       0.0814346 
        5.65487        0.535387       0.0808564 
         5.6706        0.535833       0.0802831 
        5.68633        0.537828       0.0797151 
        5.70203        0.537843       0.0791539 
        5.71773        0.538101       0.0785981 
        5.73344        0.539377       0.0780473 
        5.74916         0.53893       0.0775014 
        5.76486        0.540469       0.0769613 
        5.78054        0.540444       0.0764273 
        5.79626        0.539603       0.0758968 
          5.812        0.540871       0.0753708 
         5.8277        0.541908       0.0748514 
        5.84339        0.542365       0.0743368 
        5.85911        0.543884       0.0738261 
        5.87484        0.543401       0.0733203 
        5.89053        0.545365       0.0728202 
        5.90623         0.54594       0.0723245 
        5.92195        0.545467       0.0718326 
        5.93767         0.54716       0.0713455 
        5.95336        0.548051       0.0708638 
        5.96905        0.546857       0.0703866 
        5.98476        0.547184       0.0699132 
        6.00048        0.548649        0.069444 
        6.01617        0.548406       0.0689797 
        6.03185        0.550052       0.0685202 
        6.04756        0.550541       0.0680638 
        6.06331        0.552513       0.0676106 
        6.07903        0.552758       0.0671625 
        6.09473        0.552727       0.0667188 
        6.11044         0.55187       0.0662788 
        6.12616        0.554832       0.0658427 
        6.14186         0.55391        0.065411 
        6.15755        0.555272       0.0649833 
        6.17326        0.556681        0.064559 
        6.18898        0.556392       0.0641383 
        6.20467        0.558332       0.0637221 
        6.22036        0.558362       0.0633096 
         6.2361        0.558009       0.0628996 
         6.2518        0.558702        0.062494 
        6.26748        0.559574       0.0620928 
        6.28319        0.560122        0.061694 
        6.29893        0.562049       0.0612984 
        6.31463        0.562202        0.060907 
        6.33033        0.561264        0.060519 
        6.34604        0.562967       0.0601342 
        6.36177        0.562911       0.0597523 
        6.37747          0.5651       0.0593745 
