# k  (h/Mpc)    Pcb(k)  (Mpc/h)^3    Pcb_linear(k) (Mpc/h)^3   ShotnoiseSubtracted = true
      0.0200456         22875.2         23284.8 
      0.0350414         17465.8         16927.3 
      0.0492313         12018.6           12299 
      0.0637834         9687.12         10224.1 
      0.0800726         7599.54          8114.6 
       0.096163         6121.59         5887.85 
       0.111083         4986.38          4696.3 
       0.126058          4120.2         4161.88 
       0.142273         3614.83         3526.02 
       0.158546         2966.44         2784.82 
        0.17375         2657.99         2346.21 
       0.188953         2525.66         2124.44 
       0.204907         2174.11          1879.7 
       0.220756         1968.48         1590.34 
        0.23588         1758.26         1383.45 
         0.2514         1595.42         1256.85 
       0.267535          1538.5         1137.24 
       0.283568         1374.38         1002.89 
       0.299022         1310.66         893.524 
       0.314451         1367.03          816.62 
       0.330372         1213.27         749.157 
       0.346141         1114.72         679.974 
       0.361624         1070.32         618.003 
       0.377134         1028.25         568.661 
       0.392932         979.716         526.171 
       0.408854         941.122         485.028 
       0.424564         921.935         447.057 
       0.440253         857.201         414.474 
       0.455999         820.162         386.141 
       0.471626          834.52         360.104 
        0.48727         788.533         335.747 
       0.502856         759.688         313.867 
       0.518488         736.022         294.344 
       0.534347          708.92         276.194 
       0.550082         676.506         259.459 
       0.565732          666.65         244.149 
       0.581496         653.027         230.127 
       0.597222         640.469         217.267 
       0.612804         625.174         205.442 
       0.628434          599.99          194.42 
       0.644267         584.132         184.115 
       0.660051         578.146         174.618 
       0.675724         566.855         165.849 
       0.691403         550.058         157.674 
       0.707174         534.522         150.004 
       0.722871         529.679         142.875 
        0.73838         517.698         136.286 
       0.754018         505.958         130.062 
       0.769845         499.694         124.159 
        0.78569         489.228         118.618 
       0.801365          473.33          113.47 
       0.817031         469.533         108.633 
       0.832809         462.428         104.048 
       0.848511         455.103          99.749 
       0.864097         445.307          95.724 
       0.879701         444.987         91.9184 
       0.895507         427.648         88.2757 
       0.911279         422.247         84.8389 
        0.92691         417.437         81.6144 
       0.942635         412.586         78.5404 
       0.958396         399.797          75.619 
       0.974128         394.586         72.8521 
       0.989692         383.897         70.2516 
        1.00528          380.43         67.7747 
        1.02113         374.092         65.3789 
        1.03692         368.718         63.1082 
        1.05264         363.612         60.9563 
        1.06832         355.934         58.9085 
        1.08405         354.573         56.9497 
        1.09979         347.063         55.0791 
        1.11537         338.209         53.3115 
        1.13105         334.623         51.6111 
        1.14679         329.136         49.9787 
        1.16256         327.429         48.4139 
        1.17828         322.179         46.9216 
        1.19395         314.241         45.4974 
         1.2097         312.491         44.1253 
        1.22537         307.521         42.8166 
          1.241         300.943         41.5651 
        1.25666         298.198         40.3607 
        1.27241         294.365         39.1985 
        1.28819          287.36         38.0803 
        1.30392         287.565         37.0091 
        1.31957         279.589          35.984 
        1.33529         276.122         34.9941 
        1.35108         274.827         34.0376 
        1.36674         267.479         33.1239 
         1.3824         265.049         32.2446 
        1.39811         262.105         31.3944 
        1.41389         256.149         30.5717 
        1.42964         253.063           29.78 
        1.44531         250.435         29.0202 
        1.46101         246.047         28.2854 
        1.47667          243.46         27.5783 
        1.49229         240.154         26.8973 
        1.50793         236.729         26.2387 
        1.52367         233.134         25.5978 
        1.53953          229.31         24.9742 
        1.55526         227.104         24.3763 
        1.57092         225.277         23.8006 
        1.58662         220.248         23.2421 
        1.60235         217.812         22.7005 
        1.61809         215.813         22.1759 
        1.63369          211.76         21.6726 
        1.64941         208.838         21.1814 
        1.66519         206.336         20.7036 
        1.68085         202.738          20.244 
        1.69652         200.909         19.7983 
        1.71228         197.874         19.3634 
        1.72806         195.776         18.9414 
        1.74368         193.483         18.5361 
        1.75933         192.175         18.1419 
        1.77505         189.222         17.7574 
        1.79081          185.69         17.3833 
         1.8065         184.645         17.0217 
        1.82218          180.13         16.6707 
        1.83797             179         16.3272 
        1.85367          176.43         15.9952 
        1.86928         173.886         15.6745 
        1.88497         172.372         15.3609 
        1.90073         170.753         15.0547 
        1.91647         167.531         14.7572 
        1.93218         165.151         14.4683 
        1.94787         163.157         14.1876 
        1.96363         162.493         13.9133 
        1.97935         160.575         13.6467 
        1.99499         158.046         13.3887 
        2.01064         154.762          13.137 
         2.0264         154.454         12.8902 
        2.04216          151.77         12.6498 
        2.05781         149.246         12.4171 
        2.07353          148.52         12.1895 
        2.08928         146.658          11.967 
        2.10499         145.132         11.7507 
        2.12065         143.501         11.5404 
        2.13633         141.408         11.3351 
        2.15211         139.231         11.1335 
        2.16785         137.926         10.9373 
        2.18349         136.443         10.7471 
        2.19916         134.511          10.561 
        2.21489          132.86         10.3787 
        2.23063         131.334         10.2006 
         2.2463         129.505         10.0275 
        2.26194         128.545         9.85887 
        2.27765         126.423         9.69322 
        2.29341         125.467         9.53095 
        2.30914         124.093         9.37274 
        2.32486         122.001         9.21821 
        2.34061         120.578         9.06691 
        2.35635         119.763         8.91914 
        2.37203         117.758         8.77518 
        2.38768         116.991          8.6347 
        2.40339         114.796         8.49679 
        2.41914         113.801         8.36157 
        2.43483         112.939         8.22977 
         2.4505         111.489         8.10104 
        2.46622         109.793         7.97462 
        2.48195         108.877         7.85089 
        2.49759         107.234         7.73045 
        2.51328         106.266         7.61223 
        2.52906         105.275         7.49573 
        2.54479         103.854          7.3821 
        2.56049         102.497         7.27105 
        2.57618          101.49         7.16238 
        2.59189         100.778         7.05577 
        2.60758         99.1204          6.9515 
        2.62325         98.5997         6.84947 
        2.63898         97.3829         6.74912 
        2.65468         96.4233           6.651 
        2.67044         95.3055         6.55442 
        2.68618         93.8838         6.45997 
        2.70184         92.8864         6.36776 
        2.71755         92.3019         6.27712 
        2.73329         90.7014         6.18811 
        2.74897         89.8851         6.10112 
        2.76462         89.4987         6.01599 
        2.78034         87.9224         5.93213 
        2.79607         86.8263         5.84979 
        2.81179          86.186          5.7691 
        2.82749         85.4327         5.69003 
        2.84321         84.0773         5.61234 
        2.85893         82.8816         5.53614 
        2.87462         82.4637         5.46148 
        2.89033         81.4474         5.38813 
        2.90605          80.638         5.31606 
        2.92176         79.9596         5.24535 
        2.93747         79.0667         5.17596 
        2.95318         77.8234         5.10781 
        2.96891          77.381         5.04085 
        2.98456         76.2928          4.9754 
        3.00023         75.6071         4.91101 
        3.01596         74.9889         4.84756 
        3.03164         74.0853         4.78541 
        3.04738         73.7321         4.72417 
         3.0631         72.4709         4.66402 
        3.07883          71.947         4.60492 
        3.09456          70.992         4.54685 
        3.11026         70.5602         4.48987 
        3.12596         69.6487         4.43388 
        3.14163         68.9938         4.37897 
        3.15734         68.0045         4.32486 
        3.17308         67.6013         4.27153 
        3.18879         66.9245         4.21925 
        3.20447         66.3593         4.16792 
         3.2202         65.3238         4.11729 
         3.2359         64.7338         4.06758 
        3.25157         64.3699         4.01882 
        3.26729         63.5857          3.9707 
        3.28304         62.7085         3.92328 
        3.29877         62.3364          3.8767 
        3.31446         61.4905         3.83097 
        3.33014         61.0639         3.78603 
        3.34585         60.4776         3.74173 
        3.36158         60.0413         3.69808 
        3.37727         59.4052         3.65526 
        3.39294         58.7491         3.61316 
        3.40867         58.2707         3.57156 
        3.42439         57.6314         3.53065 
        3.44008         57.0192         3.49046 
        3.45578         56.4956         3.45086 
        3.47153          55.995         3.41179 
        3.48724         55.4855         3.37339 
        3.50292         54.9001         3.33567 
        3.51859         54.4531         3.29855 
        3.53431         53.7823         3.26188 
        3.55007          53.196         3.22567 
        3.56577         52.7047         3.19016 
        3.58146         52.1687          3.1552 
        3.59719         51.7698         3.12068 
        3.61292         51.1108         3.08668 
        3.62859         50.7783         3.05333 
        3.64429         50.3837          3.0204 
        3.66003         49.9719         2.98785 
        3.67578         49.3761          2.9558 
        3.69146         48.9724         2.92434 
        3.70712         48.6163         2.89339 
        3.72284         48.0934         2.86278 
        3.73853         47.6446         2.83266 
        3.75422         47.1632         2.80296 
        3.76993         46.7842         2.77367 
        3.78564         46.3488          2.7448 
        3.80137         45.9915          2.7163 
        3.81707         45.4534         2.68826 
        3.83279         45.1236          2.6606 
        3.84853         44.6367         2.63328 
        3.86424         44.2239          2.6064 
        3.87992         43.8009         2.57993 
        3.89561            43.5         2.55382 
        3.91134         43.0843         2.52803 
        3.92704         42.6875         2.50262 
        3.94273         42.3649         2.47759 
        3.95845         41.8755         2.45285 
        3.97418         41.5688         2.42844 
        3.98988         41.1989          2.4044 
        4.00554         40.7406         2.38075 
        4.02125         40.5332         2.35735 
        4.03698         40.0472         2.33423 
        4.05268         39.8623         2.31147 
        4.06839         39.4632           2.289 
         4.0841         39.1827         2.26684 
        4.09983         38.7295         2.24493 
        4.11555         38.4734         2.22333 
        4.13124         37.9874         2.20206 
        4.14693         37.7542         2.18106 
        4.16266         37.4482         2.16028 
        4.17839         37.0553         2.13979 
        4.19408         36.7797          2.1196 
        4.20977         36.4916         2.09967 
        4.22551         36.1349         2.07995 
        4.24123         35.8875          2.0605 
        4.25691         35.5391         2.04136 
        4.27259         35.2389         2.02244 
        4.28831         34.9756         2.00374 
        4.30404         34.6958         1.98525 
        4.31974         34.3922         1.96703 
        4.33543         34.0808         1.94905 
        4.35116         33.7722         1.93125 
        4.36688         33.4792         1.91369 
        4.38255         33.2836          1.8964 
        4.39825         32.9768          1.8793 
        4.41398         32.6849         1.86236 
         4.4297         32.3944         1.84566 
        4.44541         32.2423         1.82916 
        4.46111         31.8181         1.81288 
        4.47683         31.6719         1.79678 
        4.49251         31.4229         1.78092 
        4.50819         31.1347         1.76524 
         4.5239         30.8058         1.74974 
        4.53962         30.6213          1.7344 
        4.55535         30.3512         1.71923 
        4.57106         30.0343         1.70427 
        4.58678         29.8721         1.68949 
         4.6025         29.6703         1.67487 
        4.61821         29.4339         1.66044 
        4.63391         29.1496         1.64619 
         4.6496          28.884         1.63211 
        4.66532         28.6885         1.61818 
        4.68103         28.4649         1.60441 
        4.69673         28.2546         1.59082 
        4.71241         28.0402          1.5774 
        4.72811         27.8085         1.56411 
        4.74384         27.6494         1.55096 
        4.75955         27.4438         1.53797 
        4.77525         27.1194         1.52515 
        4.79096         26.9012         1.51245 
        4.80669         26.7469          1.4999 
         4.8224         26.5635          1.4875 
        4.83809         26.2658         1.47525 
        4.85379         26.1085         1.46313 
         4.8695         25.9145         1.45114 
        4.88521          25.665         1.43929 
        4.90093         25.5501         1.42757 
        4.91663         25.3209         1.41599 
        4.93234         25.0472         1.40453 
        4.94807         24.8631         1.39318 
        4.96377         24.7127         1.38198 
        4.97943         24.5501         1.37093 
        4.99514         24.4006         1.35997 
        5.01086         24.1661         1.34913 
        5.02654         23.9576         1.33842 
        5.04227         23.8086         1.32781 
          5.058          23.572          1.3173 
        5.07371         23.3837         1.30693 
        5.08942         23.1833         1.29666 
        5.10513          23.114         1.28651 
        5.12084         22.9164         1.27646 
        5.13656         22.7388         1.26652 
        5.15225         22.6205          1.2567 
        5.16796         22.3936         1.24697 
        5.18369         22.2111         1.23733 
         5.1994         21.9956         1.22782 
        5.21509         21.8717         1.21841 
        5.23079         21.7008         1.20909 
        5.24649         21.5542         1.19987 
        5.26217         21.3933         1.19076 
        5.27788         21.2564         1.18173 
        5.29359          21.069         1.17279 
        5.30933         20.8903         1.16393 
        5.32504         20.7589         1.15517 
        5.34073         20.5724         1.14652 
        5.35646          20.447         1.13794 
        5.37218         20.2964         1.12944 
        5.38789         20.1509         1.12104 
        5.40357         19.9895         1.11274 
        5.41929         19.8819         1.10451 
        5.43502         19.7275         1.09635 
         5.4507         19.5294          1.0883 
        5.46639          19.392         1.08033 
        5.48212         19.2669         1.07242 
        5.49786         19.1369         1.06458 
        5.51353         19.0212         1.05685 
        5.52921         18.8674          1.0492 
        5.54495          18.725         1.04159 
        5.56066         18.5945         1.03408 
        5.57637         18.4513         1.02663 
        5.59207         18.3073         1.01927 
        5.60778         18.2613         1.01197 
        5.62346          18.081         1.00476 
        5.63916         17.9493        0.997612 
        5.65487         17.7889        0.990529 
         5.6706         17.7003        0.983506 
        5.68633         17.5846        0.976549 
        5.70203         17.4482        0.969673 
        5.71773         17.3412        0.962864 
        5.73344         17.2247        0.956117 
        5.74916          17.088        0.949429 
        5.76486         16.9619        0.942813 
        5.78054         16.8249        0.936271 
        5.79626         16.7227        0.929772 
          5.812         16.6335        0.923329 
         5.8277         16.4729        0.916965 
        5.84339         16.3663        0.910662 
        5.85911         16.2797        0.904405 
        5.87484         16.1256        0.898208 
        5.89053              16        0.892082 
        5.90623         15.9309         0.88601 
        5.92195         15.7986        0.879983 
        5.93767         15.7151        0.874017 
        5.95336         15.5981        0.868115 
        5.96905         15.4845         0.86227 
        5.98476         15.3963         0.85647 
        6.00048         15.2827        0.850722 
        6.01617         15.2062        0.845034 
        6.03185         15.0771        0.839406 
        6.04756         14.9821        0.833814 
        6.06331         14.8858        0.828262 
        6.07903         14.7567        0.822773 
        6.09473         14.6644        0.817337 
        6.11044         14.5699        0.811946 
        6.12616          14.488        0.806605 
        6.14186         14.3976        0.801317 
        6.15755         14.2702        0.796076 
        6.17326         14.1738        0.790878 
        6.18898         14.0777        0.785725 
        6.20467         13.9653        0.780626 
        6.22036         13.8816        0.775573 
         6.2361         13.7781        0.770551 
         6.2518         13.6996        0.765581 
        6.26748         13.6371        0.760667 
        6.28319          13.527        0.755782 
        6.29893         13.4446        0.750935 
        6.31463         13.3661        0.746139 
        6.33033         13.2833        0.741387 
        6.34604         13.1695        0.736672 
        6.36177         13.0886        0.731994 
        6.37747          13.007        0.727366 
