# k  (h/Mpc)    Pcb(k)  (Mpc/h)^3    Pcb_linear(k) (Mpc/h)^3   ShotnoiseSubtracted = true
      0.0200456         1154.36         1170.79 
      0.0350414         846.282         851.121 
      0.0492313         620.412         618.409 
      0.0637834         518.501         514.077 
      0.0800726         411.052         408.011 
       0.096163         295.111         296.047 
       0.111083         234.361         236.135 
       0.126058         210.257         209.264 
       0.142273          179.12         177.292 
       0.158546         142.414         140.024 
        0.17375         117.997          117.97 
       0.188953          108.25         106.819 
       0.204907         98.5098         94.5131 
       0.220756         82.2576         79.9638 
        0.23588         71.6011         69.5616 
         0.2514         64.2938          63.196 
       0.267535         58.7045         57.1815 
       0.283568         52.2096         50.4264 
       0.299022         47.0401         44.9273 
       0.314451         42.1274         41.0605 
       0.330372         39.0784         37.6684 
       0.346141         35.4945         34.1898 
       0.361624         32.6207         31.0739 
       0.377134         30.4349         28.5929 
       0.392932         27.1136         26.4564 
       0.408854         25.9329         24.3877 
       0.424564         24.0133         22.4785 
       0.440253         22.1558         20.8402 
       0.455999         20.8596         19.4156 
       0.471626         19.5919         18.1064 
        0.48727         18.3317         16.8817 
       0.502856         17.0824         15.7816 
       0.518488         16.3028         14.7999 
       0.534347         15.5461         13.8873 
       0.550082         14.2068         13.0459 
       0.565732         13.1339         12.2761 
       0.581496         12.8415          11.571 
       0.597222         12.3007         10.9244 
       0.612804         11.4536         10.3298 
       0.628434         11.0271         9.77564 
       0.644267         10.5452         9.25752 
       0.660051          9.9411         8.77999 
       0.675724         9.44129         8.33905 
       0.691403         9.11161         7.92801 
       0.707174         8.65293         7.54237 
       0.722871         8.28601         7.18392 
        0.73838         7.95723         6.85259 
       0.754018         7.69008         6.53966 
       0.769845         7.29593         6.24287 
        0.78569         7.05073         5.96424 
       0.801365         6.74222          5.7054 
       0.817031         6.51597         5.46216 
       0.832809         6.29775         5.23162 
       0.848511         5.93974         5.01549 
       0.864097         5.73461         4.81311 
       0.879701         5.54356         4.62175 
       0.895507         5.30145          4.4386 
       0.911279          5.2215         4.26579 
        0.92691         5.02175         4.10366 
       0.942635         4.80087          3.9491 
       0.958396         4.63294          3.8022 
       0.974128          4.5055         3.66308 
       0.989692         4.41835         3.53232 
        1.00528          4.2216         3.40778 
        1.02113         4.06596         3.28732 
        1.03692         3.99037         3.17315 
        1.05264         3.84955         3.06495 
        1.06832         3.75708         2.96198 
        1.08405         3.58235         2.86349 
        1.09979         3.50865         2.76944 
        1.11537         3.42049         2.68056 
        1.13105         3.32842         2.59506 
        1.14679         3.23948         2.51298 
        1.16256         3.13395          2.4343 
        1.17828         3.06438         2.35927 
        1.19395         2.98067         2.28766 
         1.2097         2.85734         2.21867 
        1.22537         2.79457         2.15286 
          1.241         2.73717         2.08994 
        1.25666         2.71375         2.02938 
        1.27241         2.59008         1.97094 
        1.28819         2.53298         1.91472 
        1.30392         2.48707         1.86086 
        1.31957         2.42888         1.80931 
        1.33529         2.35725         1.75954 
        1.35108         2.30498         1.71145 
        1.36674         2.24391          1.6655 
         1.3824         2.17903         1.62129 
        1.39811          2.1345         1.57854 
        1.41389         2.09885         1.53718 
        1.42964         2.05124         1.49737 
        1.44531         2.00639         1.45917 
        1.46101         1.96438         1.42222 
        1.47667         1.89838         1.38667 
        1.49229         1.88356         1.35243 
        1.50793         1.83225         1.31931 
        1.52367         1.80621         1.28709 
        1.53953         1.74744         1.25573 
        1.55526         1.71421         1.22567 
        1.57092          1.6834         1.19672 
        1.58662         1.65262         1.16864 
        1.60235         1.61417         1.14141 
        1.61809         1.58051         1.11503 
        1.63369         1.56343         1.08972 
        1.64941         1.52119         1.06502 
        1.66519         1.49812           1.041 
        1.68085         1.45409         1.01789 
        1.69652         1.43159        0.995478 
        1.71228         1.41269        0.973614 
        1.72806         1.37401        0.952391 
        1.74368         1.35689        0.932015 
        1.75933         1.32573        0.912196 
        1.77505         1.30559        0.892861 
        1.79081         1.28242        0.874053 
         1.8065         1.25331        0.855869 
        1.82218         1.23974        0.838219 
        1.83797         1.21961        0.820947 
        1.85367         1.20451        0.804257 
        1.86928         1.18212        0.788133 
        1.88497         1.15163        0.772364 
        1.90073         1.12828        0.756968 
        1.91647         1.12072        0.742007 
        1.93218         1.10076        0.727482 
        1.94787         1.07691        0.713368 
        1.96363         1.05868        0.699573 
        1.97935         1.04034        0.686172 
        1.99499         1.02196        0.673198 
        2.01064         1.00668        0.660542 
         2.0264        0.997794        0.648131 
        2.04216        0.977951        0.636046 
        2.05781        0.960978        0.624346 
        2.07353        0.948439        0.612899 
        2.08928        0.929957        0.601715 
        2.10499        0.917394        0.590839 
        2.12065        0.909616        0.580266 
        2.13633        0.892009        0.569942 
        2.15211        0.875488        0.559803 
        2.16785        0.860415         0.54994 
        2.18349        0.851389        0.540376 
        2.19916        0.837063         0.53102 
        2.21489        0.822914        0.521854 
        2.23063        0.810829        0.512899 
         2.2463        0.805874        0.504195 
        2.26194        0.784395        0.495714 
        2.27765        0.775201        0.487385 
        2.29341        0.768429        0.479227 
        2.30914        0.761021        0.471271 
        2.32486        0.748143        0.463501 
        2.34061         0.73596        0.455894 
        2.35635        0.722595        0.448464 
        2.37203        0.715262        0.441226 
        2.38768        0.706976        0.434162 
        2.40339        0.697943        0.427228 
        2.41914        0.689444        0.420429 
        2.43483        0.678115        0.413802 
         2.4505        0.667927        0.407329 
        2.46622        0.659547        0.400972 
        2.48195        0.655393        0.394751 
        2.49759        0.644301        0.388695 
        2.51328        0.632823        0.382751 
        2.52906        0.626074        0.376893 
        2.54479        0.619454         0.37118 
        2.56049         0.60952        0.365596 
        2.57618        0.604203        0.360132 
        2.59189        0.595779        0.354772 
        2.60758        0.589096        0.349529 
        2.62325        0.581234        0.344398 
        2.63898        0.576134        0.339353 
        2.65468        0.567907         0.33442 
        2.67044        0.559321        0.329563 
        2.68618        0.552818        0.324814 
        2.70184        0.546019        0.320178 
        2.71755        0.539385         0.31562 
        2.73329        0.534363        0.311145 
        2.74897        0.528401        0.306771 
        2.76462        0.521238         0.30249 
        2.78034        0.516252        0.298274 
        2.79607        0.509757        0.294134 
        2.81179        0.503053        0.290076 
        2.82749        0.498925        0.286101 
        2.84321        0.493936        0.282195 
        2.85893        0.486982        0.278363 
        2.87462        0.482116        0.274609 
        2.89033        0.475312        0.270921 
        2.90605        0.471611        0.267297 
        2.92176        0.465456        0.263742 
        2.93747        0.461175        0.260253 
        2.95318        0.456074        0.256826 
        2.96891         0.45147        0.253459 
        2.98456        0.447467        0.250168 
        3.00023        0.442569        0.246931 
        3.01596        0.437006         0.24374 
        3.03164        0.433463        0.240615 
        3.04738        0.426364        0.237536 
         3.0631        0.424344        0.234512 
        3.07883        0.418696         0.23154 
        3.09456        0.413824        0.228621 
        3.11026        0.410502        0.225756 
        3.12596        0.405518         0.22294 
        3.14163        0.402521        0.220179 
        3.15734        0.400223        0.217458 
        3.17308        0.394304        0.214777 
        3.18879        0.390854        0.212148 
        3.20447        0.386583        0.209567 
         3.2202        0.383925        0.207021 
         3.2359        0.379812        0.204522 
        3.25157        0.375652         0.20207 
        3.26729         0.37369        0.199651 
        3.28304        0.369169        0.197267 
        3.29877        0.365416        0.194925 
        3.31446        0.362888        0.192625 
        3.33014        0.359498        0.190365 
        3.34585         0.35747        0.188138 
        3.36158        0.353217        0.185943 
        3.37727        0.350157         0.18379 
        3.39294        0.347495        0.181673 
        3.40867        0.343731        0.179582 
        3.42439        0.341263        0.177525 
        3.44008        0.338978        0.175504 
        3.45578        0.336763        0.173513 
        3.47153        0.332843        0.171548 
        3.48724        0.331466        0.169618 
        3.50292        0.328732        0.167721 
        3.51859        0.324658        0.165855 
        3.53431        0.322584        0.164011 
        3.55007        0.320896         0.16219 
        3.56577        0.316945        0.160405 
        3.58146         0.31427        0.158647 
        3.59719        0.312589        0.156911 
        3.61292        0.310404        0.155202 
        3.62859         0.30619        0.153524 
        3.64429        0.305427        0.151869 
        3.66003        0.302597        0.150232 
        3.67578        0.299877        0.148621 
        3.69146        0.297802        0.147039 
        3.70712        0.295801        0.145483 
        3.72284        0.293475        0.143944 
        3.73853        0.291969        0.142429 
        3.75422        0.288596        0.140936 
        3.76993        0.287355        0.139463 
        3.78564        0.284967        0.138012 
        3.80137        0.282282        0.136578 
        3.81707        0.281464        0.135169 
        3.83279        0.278394        0.133778 
        3.84853         0.27632        0.132404 
        3.86424        0.274078        0.131052 
        3.87992        0.272619        0.129721 
        3.89561        0.270322        0.128409 
        3.91134        0.269197        0.127112 
        3.92704         0.26601        0.125834 
        3.94273        0.264313        0.124576 
        3.95845        0.262331        0.123332 
        3.97418        0.260047        0.122105 
        3.98988        0.257958        0.120896 
        4.00554        0.255881        0.119707 
        4.02125        0.253565         0.11853 
        4.03698        0.251511        0.117368 
        4.05268        0.249423        0.116223 
        4.06839        0.246525        0.115093 
         4.0841        0.243437        0.113979 
        4.09983        0.241137        0.112878 
        4.11555        0.238715        0.111791 
        4.13124        0.235959        0.110722 
        4.14693        0.234477        0.109666 
        4.16266        0.231865        0.108621 
        4.17839        0.230209        0.107591 
        4.19408        0.227985        0.106576 
        4.20977        0.226511        0.105574 
        4.22551        0.224388        0.104582 
        4.24123        0.222477        0.103604 
        4.25691        0.220712        0.102642 
        4.27259        0.218792        0.101691 
        4.28831        0.217434         0.10075 
        4.30404        0.214955       0.0998203 
        4.31974        0.214301       0.0989043 
        4.33543        0.212323       0.0980004 
        4.35116        0.210684       0.0971055 
        4.36688        0.209499       0.0962222 
        4.38255        0.207908       0.0953532 
        4.39825        0.206779        0.094493 
        4.41398        0.205113       0.0936417 
         4.4297        0.203797       0.0928018 
        4.44541        0.203085       0.0919723 
        4.46111        0.202064       0.0911536 
        4.47683        0.201103       0.0903442 
        4.49251         0.19943       0.0895464 
        4.50819        0.198318       0.0887583 
         4.5239        0.198099       0.0879787 
        4.53962        0.196844       0.0872074 
        4.55535        0.196022       0.0864449 
        4.57106        0.195051       0.0856927 
        4.58678        0.194496       0.0849493 
         4.6025        0.193513       0.0842145 
        4.61821        0.192903       0.0834885 
        4.63391        0.192232        0.082772 
         4.6496        0.191722       0.0820642 
        4.66532           0.191       0.0813636 
        4.68103        0.190916       0.0806715 
        4.69673         0.19014        0.079988 
        4.71241        0.189839       0.0793132 
        4.72811        0.189013        0.078645 
        4.74384        0.189214       0.0779837 
        4.75955        0.188802        0.077331 
        4.77525        0.188549       0.0766861 
        4.79096         0.18803       0.0760477 
        4.80669        0.188042       0.0754164 
         4.8224        0.187502       0.0747929 
        4.83809        0.187718       0.0741771 
        4.85379        0.188079       0.0735678 
         4.8695        0.187381       0.0729649 
        4.88521         0.18743        0.072369 
        4.90093         0.18796       0.0717797 
        4.91663        0.188184       0.0711975 
        4.93234        0.187689       0.0706211 
        4.94807        0.188145       0.0700507 
        4.96377        0.188675       0.0694876 
        4.97943        0.189098       0.0689319 
        4.99514         0.18905       0.0683809 
        5.01086        0.189749       0.0678355 
        5.02654        0.189681       0.0672974 
        5.04227        0.189865       0.0667635 
          5.058        0.190637       0.0662352 
        5.07371        0.191277       0.0657136 
        5.08942        0.192493       0.0651976 
        5.10513        0.192462       0.0646871 
        5.12084        0.193284       0.0641817 
        5.13656        0.194099       0.0636819 
        5.15225          0.1947       0.0631882 
        5.16796        0.196221        0.062699 
        5.18369        0.195818       0.0622145 
         5.1994        0.197055        0.061736 
        5.21509        0.198022        0.061263 
        5.23079          0.1995       0.0607943 
        5.24649        0.200159       0.0603309 
        5.26217        0.200907       0.0598727 
        5.27788        0.202147       0.0594186 
        5.29359        0.203401       0.0589691 
        5.30933        0.205153       0.0585236 
        5.32504        0.205116       0.0580834 
        5.34073         0.20729       0.0576482 
        5.35646        0.207952       0.0572167 
        5.37218        0.209035       0.0567894 
        5.38789        0.210487       0.0563673 
        5.40357        0.212877       0.0559498 
        5.41929         0.21332       0.0555357 
        5.43502        0.213978       0.0551257 
         5.4507        0.216414       0.0547209 
        5.46639        0.217756         0.05432 
        5.48212        0.219853       0.0539223 
        5.49786         0.22105        0.053528 
        5.51353        0.223845       0.0531396 
        5.52921        0.224485       0.0527547 
        5.54495        0.226002       0.0523724 
        5.56066        0.228918       0.0519944 
        5.57637        0.230087       0.0516202 
        5.59207        0.232484       0.0512499 
        5.60778        0.234253       0.0508832 
        5.62346        0.236563       0.0505205 
        5.63916        0.237417        0.050161 
        5.65487        0.239655       0.0498049 
         5.6706        0.241292       0.0494517 
        5.68633        0.245205       0.0491019 
        5.70203        0.246218       0.0487562 
        5.71773        0.248703       0.0484138 
        5.73344         0.25005       0.0480746 
        5.74916        0.253036       0.0477383 
        5.76486        0.254464       0.0474056 
        5.78054        0.257664       0.0470767 
        5.79626        0.258384       0.0467499 
          5.812        0.262036        0.046426 
         5.8277        0.263399        0.046106 
        5.84339        0.267366        0.045789 
        5.85911        0.268637       0.0454744 
        5.87484        0.270111       0.0451629 
        5.89053        0.274221       0.0448548 
        5.90623        0.276025       0.0445495 
        5.92195        0.278805       0.0442465 
        5.93767        0.281123       0.0439465 
        5.95336        0.283086       0.0436497 
        5.96905        0.287566       0.0433558 
        5.98476        0.288329       0.0430642 
        6.00048        0.292511       0.0427752 
        6.01617        0.293473       0.0424892 
        6.03185        0.295972       0.0422062 
        6.04756        0.298571       0.0419251 
        6.06331        0.300875       0.0416459 
        6.07903        0.303422       0.0413699 
        6.09473        0.307428       0.0410966 
        6.11044        0.310043       0.0408255 
        6.12616        0.312168        0.040557 
        6.14186        0.315797       0.0402911 
        6.15755        0.317652       0.0400276 
        6.17326        0.321393       0.0397662 
        6.18898        0.324835       0.0395071 
        6.20467        0.327393       0.0392507 
        6.22036        0.326823       0.0389966 
         6.2361        0.330247       0.0387441 
         6.2518        0.334208       0.0384942 
        6.26748        0.335866       0.0382471 
        6.28319        0.339126       0.0380015 
        6.29893        0.341929       0.0377578 
        6.31463        0.345717       0.0375167 
        6.33033         0.34785       0.0372777 
        6.34604        0.350651       0.0370407 
        6.36177        0.352414       0.0368055 
        6.37747         0.35575       0.0365727 
