# k  (h/Mpc)    Pcb(k)  (Mpc/h)^3    Pcb_linear(k) (Mpc/h)^3   ShotnoiseSubtracted = true
      0.0200456            8790         8949.07 
      0.0350414         6340.27         6505.67 
      0.0492313         4699.46          4726.9 
      0.0637834         4003.05         3929.43 
      0.0800726         3169.77         3118.69 
       0.096163         2222.97         2262.88 
       0.111083         1765.76         1804.93 
       0.126058         1623.13         1599.54 
       0.142273         1400.24         1355.16 
       0.158546         1157.42         1070.29 
        0.17375          932.36         901.721 
       0.188953         893.373         816.487 
       0.204907         837.302         722.425 
       0.220756         707.282         611.215 
        0.23588         620.656         531.704 
         0.2514         544.434         483.048 
       0.267535         524.231         437.075 
       0.283568         474.921         385.442 
       0.299022         440.318         343.409 
       0.314451         409.098         313.852 
       0.330372         378.073         287.924 
       0.346141         341.103         261.335 
       0.361624         326.855         237.518 
       0.377134         305.367         218.554 
       0.392932         284.933         202.224 
       0.408854         273.131         186.411 
       0.424564         261.119         171.818 
       0.440253         249.023         159.295 
       0.455999         234.315         148.406 
       0.471626         217.203         138.399 
        0.48727         211.029         129.038 
       0.502856          203.16         120.629 
       0.518488         199.507         113.125 
       0.534347         189.029          106.15 
       0.550082         176.221         99.7181 
       0.565732         171.789          93.834 
       0.581496         163.851         88.4448 
       0.597222         159.109         83.5024 
       0.612804         152.457         78.9576 
       0.628434         148.446         74.7216 
       0.644267         143.376         70.7612 
       0.660051         141.189         67.1112 
       0.675724          137.29         63.7408 
       0.691403          133.11          60.599 
       0.707174         127.588         57.6512 
       0.722871           126.2         54.9113 
        0.73838         123.574         52.3788 
       0.754018         118.535         49.9868 
       0.769845         116.026         47.7183 
        0.78569         113.465         45.5886 
       0.801365         110.268         43.6101 
       0.817031         106.383         41.7508 
       0.832809         105.053         39.9887 
       0.848511         101.848         38.3366 
       0.864097         99.2967         36.7897 
       0.879701         97.8781         35.3271 
       0.895507         95.6316         33.9271 
       0.911279         94.1874         32.6062 
        0.92691          92.218         31.3669 
       0.942635          89.738         30.1855 
       0.958396         89.3861         29.0627 
       0.974128         86.9851         27.9993 
       0.989692         84.8892         26.9998 
        1.00528         83.1842         26.0479 
        1.02113         82.1178         25.1271 
        1.03692         79.3995         24.2544 
        1.05264         79.2948         23.4274 
        1.06832         77.1176         22.6403 
        1.08405          76.165         21.8875 
        1.09979         75.6299         21.1686 
        1.11537         72.8861         20.4892 
        1.13105         73.2184         19.8357 
        1.14679         71.7982         19.2083 
        1.16256          70.733          18.607 
        1.17828         68.8535         18.0334 
        1.19395         68.3272          17.486 
         1.2097         66.5834         16.9587 
        1.22537         66.7446         16.4557 
          1.241         65.0232         15.9747 
        1.25666          63.785         15.5119 
        1.27241         63.1754         15.0652 
        1.28819         61.9923         14.6354 
        1.30392         61.1413         14.2237 
        1.31957         60.5306         13.8298 
        1.33529         59.4768         13.4493 
        1.35108          59.208         13.0817 
        1.36674         58.3367         12.7305 
         1.3824         57.0102         12.3926 
        1.39811         56.6747         12.0658 
        1.41389         55.7638         11.7497 
        1.42964         55.0857         11.4454 
        1.44531         54.1597         11.1534 
        1.46101         53.2902          10.871 
        1.47667         53.2031         10.5992 
        1.49229          52.425         10.3375 
        1.50793         51.7189         10.0843 
        1.52367         50.8955         9.83804 
        1.53953         50.4776         9.59835 
        1.55526         49.7877         9.36858 
        1.57092         49.4301          9.1473 
        1.58662         48.7275         8.93266 
        1.60235         48.2027          8.7245 
        1.61809         47.4678         8.52289 
        1.63369         46.7242         8.32946 
        1.64941         46.1968         8.14065 
        1.66519         45.5494         7.95704 
        1.68085         45.2251          7.7804 
        1.69652         44.5525         7.60909 
        1.71228         44.2944         7.44197 
        1.72806         43.7971         7.27975 
        1.74368          43.118           7.124 
        1.75933         42.6943          6.9725 
        1.77505           42.31         6.82471 
        1.79081         41.7137         6.68096 
         1.8065         41.3057         6.54196 
        1.82218         40.8401         6.40705 
        1.83797         40.2782         6.27503 
        1.85367         39.7218         6.14746 
        1.86928         39.4576         6.02421 
        1.88497         39.1062         5.90368 
        1.90073         38.6827           5.786 
        1.91647         38.2327         5.67164 
        1.93218         37.8424         5.56062 
        1.94787         37.4316         5.45274 
        1.96363         37.0607         5.34729 
        1.97935         36.5779         5.24486 
        1.99499         36.1958         5.14569 
        2.01064         35.9218         5.04895 
         2.0264         35.3697         4.95409 
        2.04216         34.9696         4.86172 
        2.05781         34.5588         4.77229 
        2.07353         34.2669         4.68479 
        2.08928         34.1656          4.5993 
        2.10499         33.6775         4.51617 
        2.12065         33.2461         4.43535 
        2.13633         33.1053         4.35644 
        2.15211         32.5309         4.27894 
        2.16785         32.0891         4.20355 
        2.18349         31.9643         4.13044 
        2.19916         31.6836         4.05893 
        2.21489         31.1907         3.98887 
        2.23063         30.9736         3.92042 
         2.2463         30.6272         3.85389 
        2.26194         30.3653         3.78907 
        2.27765         30.0636          3.7254 
        2.29341         29.7771         3.66304 
        2.30914         29.5474         3.60223 
        2.32486         29.0984         3.54284 
        2.34061         28.9558         3.48469 
        2.35635         28.6545          3.4279 
        2.37203         28.4335         3.37257 
        2.38768         28.0387         3.31858 
        2.40339         27.9466         3.26558 
        2.41914         27.6149         3.21361 
        2.43483         27.2447         3.16296 
         2.4505         27.0253         3.11348 
        2.46622         26.7978         3.06489 
        2.48195         26.5268         3.01734 
        2.49759         26.2956         2.97105 
        2.51328         25.9694         2.92561 
        2.52906         25.8524         2.88084 
        2.54479         25.4813         2.83717 
        2.56049         25.2053         2.79449 
        2.57618         24.9426         2.75272 
        2.59189         24.8479         2.71175 
        2.60758         24.6216         2.67168 
        2.62325         24.2621         2.63246 
        2.63898         24.2188          2.5939 
        2.65468         23.8505         2.55619 
        2.67044         23.6814         2.51906 
        2.68618         23.3719         2.48277 
        2.70184         23.2247         2.44733 
        2.71755         23.0687         2.41249 
        2.73329         22.7937         2.37828 
        2.74897         22.5132         2.34485 
        2.76462         22.4362         2.31213 
        2.78034         22.2458          2.2799 
        2.79607         21.9963         2.24825 
        2.81179         21.8146         2.21724 
        2.82749          21.613         2.18685 
        2.84321         21.4342           2.157 
        2.85893         21.1749         2.12771 
        2.87462         20.9842         2.09901 
        2.89033         20.8803         2.07082 
        2.90605         20.7188         2.04313 
        2.92176         20.4401         2.01595 
        2.93747         20.3518         1.98928 
        2.95318         20.0735         1.96309 
        2.96891         19.9468         1.93736 
        2.98456         19.7252          1.9122 
        3.00023         19.5481         1.88745 
        3.01596          19.435         1.86307 
        3.03164         19.2435         1.83918 
        3.04738         19.0368         1.81564 
         3.0631         18.8799         1.79253 
        3.07883         18.7244         1.76981 
        3.09456         18.5599          1.7475 
        3.11026         18.4119          1.7256 
        3.12596         18.2358         1.70408 
        3.14163         18.1236         1.68297 
        3.15734         17.8956         1.66218 
        3.17308         17.7646         1.64168 
        3.18879         17.6017         1.62159 
        3.20447         17.4616         1.60186 
         3.2202         17.2864          1.5824 
         3.2359          17.135          1.5633 
        3.25157         17.0443         1.54456 
        3.26729         16.9344         1.52606 
        3.28304          16.718         1.50784 
        3.29877         16.4993         1.48994 
        3.31446         16.4201         1.47236 
        3.33014         16.2823         1.45509 
        3.34585           16.07         1.43806 
        3.36158         16.0006         1.42129 
        3.37727         15.8285         1.40483 
        3.39294         15.6493         1.38865 
        3.40867         15.5672         1.37266 
        3.42439         15.4074         1.35694 
        3.44008         15.3039         1.34149 
        3.45578         15.1656         1.32627 
        3.47153         15.0651         1.31126 
        3.48724         14.9246          1.2965 
        3.50292         14.7747           1.282 
        3.51859         14.7033         1.26773 
        3.53431         14.5739         1.25364 
        3.55007         14.4423         1.23973 
        3.56577         14.3286         1.22608 
        3.58146         14.2113         1.21264 
        3.59719         14.0447         1.19937 
        3.61292         13.9613         1.18631 
        3.62859         13.8138         1.17349 
        3.64429         13.7111         1.16083 
        3.66003         13.6176         1.14832 
        3.67578         13.5402         1.13601 
        3.69146         13.3917         1.12391 
        3.70712         13.2614         1.11202 
        3.72284         13.1869         1.10025 
        3.73853           13.03         1.08868 
        3.75422         12.9403         1.07727 
        3.76993         12.8667         1.06601 
        3.78564         12.7076         1.05491 
        3.80137         12.6222         1.04396 
        3.81707         12.5233         1.03318 
        3.83279          12.385         1.02255 
        3.84853         12.3348         1.01205 
        3.86424         12.1475         1.00172 
        3.87992         12.1182        0.991546 
        3.89561         12.0208        0.981514 
        3.91134         11.9408          0.9716 
        3.92704         11.7933        0.961835 
        3.94273         11.7147        0.952213 
        3.95845         11.6444        0.942706 
        3.97418         11.5664        0.933326 
        3.98988         11.4346        0.924087 
        4.00554         11.3705        0.914997 
        4.02125         11.2125        0.906004 
        4.03698         11.1843        0.897118 
        4.05268         11.0696        0.888371 
        4.06839         10.9912        0.879734 
         4.0841          10.883        0.871215 
        4.09983         10.8053        0.862796 
        4.11555         10.7136        0.854492 
        4.13124         10.6187         0.84632 
        4.14693         10.5566        0.838248 
        4.16266         10.4725        0.830263 
        4.17839         10.3736        0.822386 
        4.19408         10.3048         0.81463 
        4.20977         10.2039        0.806969 
        4.22551         10.1531        0.799389 
        4.24123         10.0744        0.791915 
        4.25691         9.99167        0.784556 
        4.27259         9.88294        0.777288 
        4.28831         9.82706        0.770098 
        4.30404         9.74127        0.762991 
        4.31974           9.686         0.75599 
        4.33543         9.58108        0.749081 
        4.35116         9.51578        0.742241 
        4.36688         9.43839        0.735489 
        4.38255         9.37469        0.728846 
        4.39825         9.30389        0.722271 
        4.41398         9.22487        0.715764 
         4.4297         9.15638        0.709344 
        4.44541         9.08371        0.703004 
        4.46111         9.02547        0.696746 
        4.47683         8.96721         0.69056 
        4.49251          8.8844        0.684461 
        4.50819         8.80047        0.678438 
         4.5239         8.75788        0.672478 
        4.53962         8.70267        0.666583 
        4.55535         8.60682        0.660755 
        4.57106         8.54159        0.655005 
        4.58678         8.46325        0.649323 
         4.6025         8.39254        0.643706 
        4.61821         8.35356        0.638157 
        4.63391         8.29924         0.63268 
         4.6496         8.23603         0.62727 
        4.66532         8.16111        0.621915 
        4.68103         8.09667        0.616624 
        4.69673         8.04394          0.6114 
        4.71241         7.98205        0.606242 
        4.72811         7.91094        0.601135 
        4.74384         7.87476         0.59608 
        4.75955         7.81088        0.591091 
        4.77525         7.74933        0.586161 
        4.79096         7.70195        0.581282 
        4.80669         7.63568        0.576456 
         4.8224         7.58144         0.57169 
        4.83809         7.50623        0.566984 
        4.85379         7.44924        0.562327 
         4.8695         7.40787        0.557718 
        4.88521         7.36117        0.553164 
        4.90093         7.30294        0.548659 
        4.91663         7.23145        0.544209 
        4.93234         7.19335        0.539803 
        4.94807         7.13115        0.535443 
        4.96377         7.09141        0.531139 
        4.97943         7.04924        0.526892 
        4.99514          6.9857         0.52268 
        5.01086         6.92916        0.518511 
        5.02654         6.88294        0.514397 
        5.04227         6.84049        0.510317 
          5.058         6.80192        0.506279 
        5.07371         6.75472        0.502292 
        5.08942         6.69236        0.498348 
        5.10513         6.64786        0.494445 
        5.12084         6.59262        0.490583 
        5.13656         6.54902        0.486762 
        5.15225         6.50816        0.482989 
        5.16796         6.47312        0.479249 
        5.18369         6.41909        0.475546 
         5.1994         6.36813        0.471888 
        5.21509         6.31902        0.468273 
        5.23079         6.28049         0.46469 
        5.24649         6.25475        0.461148 
        5.26217         6.20194        0.457646 
        5.27788         6.15111        0.454175 
        5.29359         6.11386        0.450739 
        5.30933         6.07552        0.447334 
        5.32504         6.03657        0.443969 
        5.34073         5.98273        0.440643 
        5.35646         5.93993        0.437344 
        5.37218         5.90202        0.434079 
        5.38789         5.87938        0.430852 
        5.40357         5.82394        0.427661 
        5.41929          5.7943        0.424496 
        5.43502         5.74724        0.421362 
         5.4507         5.71368        0.418267 
        5.46639          5.6604        0.415203 
        5.48212         5.61931        0.412163 
        5.49786         5.60598        0.409149 
        5.51353         5.54832        0.406181 
        5.52921         5.52521        0.403238 
        5.54495         5.47719        0.400317 
        5.56066         5.44318        0.397427 
        5.57637         5.40931        0.394566 
        5.59207         5.36711        0.391736 
        5.60778         5.33038        0.388933 
        5.62346         5.30339        0.386161 
        5.63916         5.26342        0.383413 
        5.65487         5.22198        0.380691 
         5.6706         5.20238        0.377992 
        5.68633         5.16242        0.375318 
        5.70203         5.12441        0.372675 
        5.71773         5.10404        0.370058 
        5.73344         5.06067        0.367465 
        5.74916         5.03317        0.364895 
        5.76486         4.99516        0.362352 
        5.78054         4.96336        0.359838 
        5.79626         4.92594         0.35734 
          5.812         4.89812        0.354864 
         5.8277          4.8574        0.352418 
        5.84339         4.83935        0.349995 
        5.85911         4.81383        0.347591 
        5.87484         4.77343        0.345209 
        5.89053         4.74929        0.342855 
        5.90623         4.71857        0.340521 
        5.92195         4.67907        0.338205 
        5.93767         4.64622        0.335912 
        5.95336         4.62978        0.333643 
        5.96905         4.59761        0.331397 
        5.98476         4.56901        0.329168 
        6.00048         4.53105        0.326959 
        6.01617         4.51183        0.324773 
        6.03185         4.47595         0.32261 
        6.04756         4.45117        0.320461 
        6.06331         4.42278        0.318327 
        6.07903         4.39647        0.316217 
        6.09473         4.36195        0.314128 
        6.11044         4.33476        0.312056 
        6.12616         4.32267        0.310003 
        6.14186         4.28854        0.307971 
        6.15755         4.26406        0.305957 
        6.17326         4.24124        0.303959 
        6.18898          4.2102        0.301978 
        6.20467         4.18394        0.300019 
        6.22036         4.16464        0.298077 
         6.2361         4.13222        0.296146 
         6.2518         4.11686        0.294237 
        6.26748          4.0853        0.292348 
        6.28319          4.0613         0.29047 
        6.29893         4.03563        0.288608 
        6.31463         4.01539        0.286764 
        6.33033         3.98104        0.284938 
        6.34604         3.96406        0.283126 
        6.36177         3.93665        0.281328 
        6.37747         3.92259        0.279549 
