# k  (h/Mpc)    Pcb(k)  (Mpc/h)^3    Pcb_linear(k) (Mpc/h)^3   ShotnoiseSubtracted = true
      0.0200456          434.84         440.436 
      0.0350414         323.134         320.182 
      0.0492313         233.561         232.638 
      0.0637834         192.162          193.39 
      0.0800726         152.185         153.489 
       0.096163         112.692          111.37 
       0.111083         90.1952         88.8312 
       0.126058         78.3881         78.7225 
       0.142273         66.2379         66.6953 
       0.158546         52.9041         52.6753 
        0.17375         44.9176         44.3789 
       0.188953         40.3296         40.1841 
       0.204907         35.0453         35.5547 
       0.220756         30.1982         30.0814 
        0.23588         26.2933         26.1682 
         0.2514          23.867         23.7736 
       0.267535         21.6664          21.511 
       0.283568         19.1015         18.9698 
       0.299022         17.0831         16.9011 
       0.314451         15.8156         15.4465 
       0.330372         14.3589         14.1704 
       0.346141         13.0465         12.8618 
       0.361624         11.8418         11.6896 
       0.377134          10.859         10.7563 
       0.392932         10.2883          9.9526 
       0.408854         9.31005         9.17437 
       0.424564          8.7478         8.45615 
       0.440253         8.02409         7.83983 
       0.455999         7.39012         7.30392 
       0.471626          6.9033         6.81142 
        0.48727         6.56218         6.35071 
       0.502856         6.14541         5.93684 
       0.518488         5.66714         5.56755 
       0.534347         5.29322         5.22425 
       0.550082         5.05315         4.90771 
       0.565732         4.81114         4.61811 
       0.581496         4.50282         4.35288 
       0.597222         4.24338         4.10964 
       0.612804         4.00031         3.88596 
       0.628434         3.81035         3.67748 
       0.644267         3.62503         3.48257 
       0.660051         3.43625         3.30293 
       0.675724         3.23864         3.13705 
       0.691403         3.09453         2.98243 
       0.707174         2.94216         2.83735 
       0.722871         2.86171         2.70251 
        0.73838         2.67069         2.57786 
       0.754018         2.55048         2.46014 
       0.769845         2.41357         2.34849 
        0.78569         2.34141         2.24368 
       0.801365         2.24197         2.14631 
       0.817031         2.15583          2.0548 
       0.832809         2.04428         1.96807 
       0.848511         1.97355         1.88677 
       0.864097         1.90267         1.81063 
       0.879701         1.84077         1.73865 
       0.895507         1.74637         1.66975 
       0.911279         1.69215         1.60474 
        0.92691         1.64166         1.54375 
       0.942635         1.55664          1.4856 
       0.958396         1.50642         1.43034 
       0.974128         1.45634         1.37801 
       0.989692         1.40087         1.32882 
        1.00528         1.34897         1.28197 
        1.02113          1.3148         1.23665 
        1.03692          1.2758          1.1937 
        1.05264         1.21755           1.153 
        1.06832         1.18334         1.11426 
        1.08405         1.13742         1.07721 
        1.09979         1.10884         1.04183 
        1.11537         1.06797         1.00839 
        1.13105         1.02694        0.976232 
        1.14679         1.00353        0.945354 
        1.16256        0.972427        0.915757 
        1.17828        0.948497        0.887529 
        1.19395        0.916752         0.86059 
         1.2097        0.887148        0.834636 
        1.22537         0.85734        0.809882 
          1.241        0.836013         0.78621 
        1.25666         0.81837        0.763428 
        1.27241        0.791413        0.741446 
        1.28819        0.764887        0.720294 
        1.30392         0.74659        0.700033 
        1.31957        0.726566        0.680643 
        1.33529        0.703349        0.661919 
        1.35108        0.685372        0.643827 
        1.36674        0.665637        0.626543 
         1.3824        0.654228        0.609911 
        1.39811          0.6328         0.59383 
        1.41389        0.618211        0.578268 
        1.42964        0.601814        0.563293 
        1.44531        0.586076        0.548922 
        1.46101        0.568434        0.535023 
        1.47667        0.557246        0.521648 
        1.49229        0.539869        0.508767 
        1.50793        0.529489        0.496308 
        1.52367        0.513652        0.484187 
        1.53953        0.501285        0.472391 
        1.55526        0.491293        0.461082 
        1.57092         0.48409        0.450192 
        1.58662        0.472229        0.439628 
        1.60235        0.459407        0.429383 
        1.61809        0.447186        0.419461 
        1.63369        0.435255        0.409941 
        1.64941        0.427858        0.400649 
        1.66519        0.419576        0.391612 
        1.68085        0.407442        0.382919 
        1.69652        0.399196        0.374487 
        1.71228        0.389499        0.366262 
        1.72806        0.382297        0.358279 
        1.74368        0.373723        0.350613 
        1.75933         0.36651        0.343157 
        1.77505        0.359645        0.335884 
        1.79081        0.348441        0.328809 
         1.8065        0.344551        0.321968 
        1.82218        0.334644        0.315328 
        1.83797        0.325961        0.308831 
        1.85367        0.322314        0.302552 
        1.86928        0.314639        0.296486 
        1.88497        0.307121        0.290554 
        1.90073        0.302327        0.284763 
        1.91647        0.296303        0.279134 
        1.93218          0.2913         0.27367 
        1.94787        0.284186        0.268361 
        1.96363        0.279013        0.263171 
        1.97935        0.273119         0.25813 
        1.99499         0.26784        0.253249 
        2.01064         0.26321        0.248488 
         2.0264        0.257521         0.24382 
        2.04216        0.251836        0.239273 
        2.05781        0.248054        0.234872 
        2.07353        0.243536        0.230566 
        2.08928        0.239617        0.226358 
        2.10499        0.233871        0.222267 
        2.12065        0.230108        0.218289 
        2.13633        0.226196        0.214406 
        2.15211        0.222007        0.210591 
        2.16785        0.217786        0.206881 
        2.18349        0.214336        0.203283 
        2.19916        0.209464        0.199763 
        2.21489        0.205561        0.196316 
        2.23063        0.202158        0.192947 
         2.2463        0.199137        0.189672 
        2.26194        0.195916        0.186482 
        2.27765        0.191852        0.183349 
        2.29341        0.188648        0.180279 
        2.30914        0.184779        0.177287 
        2.32486        0.181828        0.174364 
        2.34061        0.178719        0.171502 
        2.35635        0.175863        0.168707 
        2.37203        0.174282        0.165984 
        2.38768        0.170317        0.163327 
        2.40339        0.167517        0.160718 
        2.41914         0.16483         0.15816 
        2.43483        0.162042        0.155667 
         2.4505        0.159116        0.153232 
        2.46622        0.156815        0.150841 
        2.48195         0.15404        0.148501 
        2.49759         0.15252        0.146223 
        2.51328        0.148407        0.143986 
        2.52906        0.146685        0.141783 
        2.54479        0.144438        0.139634 
        2.56049        0.141568        0.137533 
        2.57618        0.140479        0.135478 
        2.59189        0.137441        0.133461 
        2.60758        0.136058        0.131489 
        2.62325        0.133576        0.129559 
        2.63898        0.132091        0.127661 
        2.65468        0.129124        0.125805 
        2.67044        0.127504        0.123978 
        2.68618        0.125442        0.122191 
        2.70184         0.12396        0.120447 
        2.71755        0.121608        0.118733 
        2.73329         0.12032        0.117049 
        2.74897          0.1182        0.115404 
        2.76462        0.116471        0.113793 
        2.78034        0.114797        0.112207 
        2.79607        0.113421         0.11065 
        2.81179        0.110934        0.109123 
        2.82749        0.109964        0.107628 
        2.84321        0.108398        0.106158 
        2.85893        0.106408        0.104717 
        2.87462        0.105466        0.103305 
        2.89033         0.10342        0.101917 
        2.90605        0.102425        0.100554 
        2.92176        0.101165       0.0992165 
        2.93747       0.0994003        0.097904 
        2.95318        0.098351       0.0966149 
        2.96891       0.0969805       0.0953485 
        2.98456       0.0958424       0.0941104 
        3.00023       0.0944727       0.0928924 
        3.01596       0.0927718       0.0916923 
        3.03164       0.0915102       0.0905167 
        3.04738       0.0905836       0.0893584 
         3.0631         0.08921       0.0882207 
        3.07883       0.0880759       0.0871028 
        3.09456       0.0870275       0.0860044 
        3.11026       0.0855585       0.0849266 
        3.12596       0.0848067       0.0838675 
        3.14163       0.0836027       0.0828288 
        3.15734        0.082824       0.0818053 
        3.17308       0.0815199       0.0807966 
        3.18879       0.0805368       0.0798077 
        3.20447       0.0793096       0.0788368 
         3.2202       0.0785784       0.0778791 
         3.2359       0.0776106       0.0769389 
        3.25157       0.0766559       0.0760165 
        3.26729       0.0756446       0.0751065 
        3.28304       0.0750106       0.0742095 
        3.29877       0.0737437       0.0733284 
        3.31446       0.0729644       0.0724635 
        3.33014       0.0723425       0.0716133 
        3.34585        0.071112       0.0707754 
        3.36158       0.0703727       0.0699497 
        3.37727       0.0696108       0.0691398 
        3.39294       0.0689774       0.0683434 
        3.40867       0.0680917       0.0675567 
        3.42439       0.0673557       0.0667828 
        3.44008        0.066738       0.0660225 
        3.45578       0.0660844       0.0652735 
        3.47153       0.0653769       0.0645345 
        3.48724       0.0645727       0.0638082 
        3.50292       0.0640022       0.0630948 
        3.51859       0.0631841       0.0623926 
        3.53431       0.0625561       0.0616989 
        3.55007       0.0619297       0.0610141 
        3.56577       0.0613556       0.0603424 
        3.58146        0.060672        0.059681 
        3.59719       0.0599441       0.0590281 
        3.61292       0.0593168       0.0583851 
        3.62859       0.0588122       0.0577541 
        3.64429       0.0581549       0.0571313 
        3.66003       0.0579134       0.0565157 
        3.67578       0.0572602       0.0559094 
        3.69146       0.0567073       0.0553143 
        3.70712       0.0561439       0.0547289 
        3.72284       0.0554776       0.0541499 
        3.73853       0.0552576       0.0535802 
        3.75422       0.0545099       0.0530185 
        3.76993       0.0540685       0.0524644 
        3.78564       0.0537145       0.0519184 
        3.80137       0.0533017       0.0513792 
        3.81707       0.0524595       0.0508489 
        3.83279       0.0521461       0.0503256 
        3.84853        0.051691       0.0498089 
        3.86424       0.0513354       0.0493004 
        3.87992       0.0509053       0.0487997 
        3.89561        0.050253        0.048306 
        3.91134       0.0498849       0.0478181 
        3.92704       0.0493879       0.0473375 
        3.94273       0.0489224       0.0468639 
        3.95845       0.0485194        0.046396 
        3.97418       0.0481045       0.0459344 
        3.98988       0.0474279       0.0454797 
        4.00554       0.0471361       0.0450323 
        4.02125        0.046689       0.0445897 
        4.03698       0.0458932       0.0441524 
        4.05268        0.045555       0.0437219 
        4.06839       0.0448173       0.0432968 
         4.0841       0.0440313       0.0428775 
        4.09983       0.0434465       0.0424632 
        4.11555       0.0428646       0.0420545 
        4.13124        0.042246       0.0416523 
        4.14693       0.0417567       0.0412551 
        4.16266       0.0410395       0.0408621 
        4.17839       0.0406233       0.0404744 
        4.19408       0.0400953       0.0400926 
        4.20977       0.0396369       0.0397157 
        4.22551       0.0391565       0.0393426 
        4.24123       0.0386413       0.0389747 
        4.25691       0.0382738       0.0386125 
        4.27259       0.0378549       0.0382548 
        4.28831        0.037569        0.037901 
        4.30404       0.0370967       0.0375512 
        4.31974       0.0367167       0.0372067 
        4.33543       0.0363715       0.0368666 
        4.35116       0.0361091         0.03653 
        4.36688       0.0357212       0.0361977 
        4.38255       0.0354021       0.0358708 
        4.39825       0.0352435       0.0355472 
        4.41398       0.0348712       0.0352269 
         4.4297       0.0347229       0.0349109 
        4.44541       0.0345262       0.0345989 
        4.46111       0.0341862       0.0342909 
        4.47683       0.0340642       0.0339865 
        4.49251       0.0339375       0.0336863 
        4.50819       0.0336807       0.0333899 
         4.5239        0.033544       0.0330965 
        4.53962       0.0335089       0.0328064 
        4.55535       0.0334192       0.0325196 
        4.57106       0.0332506       0.0322366 
        4.58678       0.0332063       0.0319569 
         4.6025       0.0329908       0.0316805 
        4.61821       0.0330788       0.0314074 
        4.63391       0.0329799       0.0311379 
         4.6496       0.0328318       0.0308716 
        4.66532       0.0329243        0.030608 
        4.68103       0.0330608       0.0303477 
        4.69673       0.0329498       0.0300906 
        4.71241       0.0330033       0.0298367 
        4.72811        0.032948       0.0295853 
        4.74384       0.0330348       0.0293366 
        4.75955       0.0331427        0.029091 
        4.77525       0.0332536       0.0288484 
        4.79096       0.0333609       0.0286083 
        4.80669        0.033469       0.0283708 
         4.8224       0.0335625       0.0281362 
        4.83809       0.0336466       0.0279045 
        4.85379       0.0339236       0.0276754 
         4.8695       0.0340883       0.0274486 
        4.88521       0.0342933       0.0272244 
        4.90093       0.0345176       0.0270027 
        4.91663       0.0348333       0.0267837 
        4.93234       0.0348074       0.0265668 
        4.94807       0.0352424       0.0263522 
        4.96377       0.0354179       0.0261404 
        4.97943        0.035824       0.0259314 
        4.99514       0.0360159       0.0257241 
        5.01086       0.0364065       0.0255189 
        5.02654       0.0366893       0.0253165 
        5.04227       0.0370494       0.0251157 
          5.058       0.0374233       0.0249169 
        5.07371       0.0377299       0.0247207 
        5.08942       0.0382478       0.0245266 
        5.10513       0.0385443       0.0243345 
        5.12084       0.0391302       0.0241444 
        5.13656       0.0396205       0.0239564 
        5.15225       0.0400093       0.0237707 
        5.16796       0.0405928       0.0235866 
        5.18369       0.0410993       0.0234044 
         5.1994       0.0415362       0.0232244 
        5.21509       0.0423092       0.0230464 
        5.23079        0.042628       0.0228701 
        5.24649       0.0433963       0.0226958 
        5.26217        0.043876       0.0225234 
        5.27788       0.0448203       0.0223526 
        5.29359       0.0454047       0.0221835 
        5.30933        0.046103       0.0220159 
        5.32504       0.0467787       0.0218503 
        5.34073       0.0473212       0.0216866 
        5.35646       0.0481116       0.0215243 
        5.37218       0.0490832       0.0213635 
        5.38789       0.0498103       0.0212047 
        5.40357       0.0506749       0.0210477 
        5.41929       0.0517361       0.0208919 
        5.43502       0.0526222       0.0207377 
         5.4507       0.0533875       0.0205854 
        5.46639       0.0540938       0.0204346 
        5.48212       0.0551794       0.0202849 
        5.49786       0.0566004       0.0201366 
        5.51353       0.0576495       0.0199905 
        5.52921       0.0583261       0.0198457 
        5.54495       0.0594631       0.0197019 
        5.56066       0.0607695       0.0195597 
        5.57637       0.0620839       0.0194189 
        5.59207       0.0629071       0.0192796 
        5.60778       0.0640607       0.0191417 
        5.62346       0.0653081       0.0190052 
        5.63916       0.0670114         0.01887 
        5.65487       0.0683072        0.018736 
         5.6706       0.0691626       0.0186032 
        5.68633        0.070655       0.0184716 
        5.70203       0.0721553       0.0183415 
        5.71773       0.0740581       0.0182127 
        5.73344       0.0758956       0.0180851 
        5.74916       0.0774182       0.0179586 
        5.76486        0.079067       0.0178335 
        5.78054       0.0810266       0.0177097 
        5.79626       0.0821374       0.0175868 
          5.812       0.0844465       0.0174649 
         5.8277       0.0857359       0.0173445 
        5.84339       0.0878144       0.0172253 
        5.85911       0.0894575        0.017107 
        5.87484        0.091285       0.0169897 
        5.89053       0.0939383       0.0168739 
        5.90623       0.0959655        0.016759 
        5.92195       0.0979416        0.016645 
        5.93767       0.0999812       0.0165322 
        5.95336        0.101947       0.0164205 
        5.96905        0.105167         0.01631 
        5.98476        0.106727       0.0162003 
        6.00048        0.109251       0.0160915 
        6.01617        0.112251        0.015984 
        6.03185        0.114184       0.0158775 
        6.04756        0.116515       0.0157717 
        6.06331        0.119971       0.0156667 
        6.07903        0.121887       0.0155629 
        6.09473        0.124415       0.0154601 
        6.11044        0.128174       0.0153581 
        6.12616        0.131095       0.0152571 
        6.14186        0.133475        0.015157 
        6.15755        0.136842       0.0150579 
        6.17326        0.140077       0.0149596 
        6.18898        0.144114       0.0148621 
        6.20467        0.146209       0.0147657 
        6.22036        0.150638       0.0146701 
         6.2361        0.152372       0.0145751 
         6.2518        0.157988       0.0144811 
        6.26748        0.160177       0.0143881 
        6.28319         0.16387       0.0142957 
        6.29893        0.168978       0.0142041 
        6.31463        0.172336       0.0141133 
        6.33033        0.175068       0.0140234 
        6.34604        0.180129       0.0139343 
        6.36177        0.184046       0.0138458 
        6.37747        0.187821       0.0137582 
