# k  (h/Mpc)    Pcb(k)  (Mpc/h)^3    Pcb_linear(k) (Mpc/h)^3   ShotnoiseSubtracted = true
      0.0200456         13987.2         14273.3 
      0.0350414         10017.1         10376.2 
      0.0492313         7447.06         7539.17 
      0.0637834         6391.96         6267.24 
      0.0800726         5053.87         4974.15 
       0.096163         3521.58         3609.18 
       0.111083         2808.29         2878.78 
       0.126058         2589.66         2551.18 
       0.142273         2239.24         2161.41 
       0.158546         1898.78         1707.06 
        0.17375         1519.84          1438.2 
       0.188953         1474.26         1302.26 
       0.204907         1385.67         1152.23 
       0.220756         1185.66         974.858 
        0.23588         1048.15         848.042 
         0.2514         912.879         770.437 
       0.267535         898.394         697.113 
       0.283568         814.743          614.76 
       0.299022         763.549          547.72 
       0.314451         722.914         500.579 
       0.330372         666.058         459.225 
       0.346141         612.176         416.816 
       0.361624         588.784         378.829 
       0.377134         546.689         348.583 
       0.392932         523.718         322.537 
       0.408854         504.653         297.316 
       0.424564         475.774         274.041 
       0.440253         464.556         254.068 
       0.455999         438.131           236.7 
       0.471626         413.134         220.739 
        0.48727         399.731         205.809 
       0.502856         387.705         192.397 
       0.518488         384.024         180.429 
       0.534347         359.381         169.304 
       0.550082         341.797         159.045 
       0.565732         339.659          149.66 
       0.581496         320.399         141.065 
       0.597222         314.934         133.182 
       0.612804           305.2         125.933 
       0.628434         293.543         119.177 
       0.644267         285.065         112.861 
       0.660051         279.749         107.039 
       0.675724         275.129         101.663 
       0.691403          267.07         96.6523 
       0.707174         257.162         91.9509 
       0.722871         254.214         87.5808 
        0.73838         249.842         83.5415 
       0.754018         243.319         79.7265 
       0.769845         235.044         76.1083 
        0.78569         234.705         72.7115 
       0.801365         226.577         69.5559 
       0.817031         219.797         66.5905 
       0.832809         217.653         63.7799 
       0.848511         211.878          61.145 
       0.864097         209.205         58.6777 
       0.879701         205.265         56.3449 
       0.895507         200.132          54.112 
       0.911279         194.227         52.0053 
        0.92691         194.288         50.0287 
       0.942635         189.368         48.1444 
       0.958396         188.202         46.3536 
       0.974128         183.814         44.6575 
       0.989692         179.527         43.0634 
        1.00528         177.228         41.5451 
        1.02113         176.004         40.0765 
        1.03692         170.789         38.6846 
        1.05264         167.562         37.3655 
        1.06832         164.689         36.1102 
        1.08405         162.207         34.9095 
        1.09979         161.186         33.7629 
        1.11537         156.528         32.6793 
        1.13105         154.783          31.637 
        1.14679         154.448         30.6364 
        1.16256         151.794         29.6772 
        1.17828         148.617         28.7624 
        1.19395          146.47         27.8894 
         1.2097         145.289         27.0483 
        1.22537         142.825         26.2461 
          1.241         140.701         25.4789 
        1.25666         138.455         24.7406 
        1.27241         136.112         24.0282 
        1.28819         134.639         23.3428 
        1.30392         132.717         22.6862 
        1.31957         131.635         22.0578 
        1.33529         128.227          21.451 
        1.35108         127.402         20.8647 
        1.36674         126.205         20.3046 
         1.3824         123.674         19.7656 
        1.39811         123.094         19.2444 
        1.41389         120.934         18.7401 
        1.42964         118.426         18.2548 
        1.44531         116.323          17.789 
        1.46101         115.293         17.3386 
        1.47667         114.027         16.9052 
        1.49229         112.452         16.4878 
        1.50793         111.495          16.084 
        1.52367         110.094         15.6912 
        1.53953         107.989         15.3089 
        1.55526         107.069         14.9424 
        1.57092         105.865         14.5895 
        1.58662         103.914         14.2471 
        1.60235         103.505         13.9151 
        1.61809          101.45         13.5936 
        1.63369         100.714         13.2851 
        1.64941         99.8528         12.9839 
        1.66519         97.6662         12.6911 
        1.68085         97.1484         12.4094 
        1.69652          94.737         12.1361 
        1.71228         94.9479         11.8696 
        1.72806         93.5368         11.6108 
        1.74368          92.344         11.3624 
        1.75933         90.9889         11.1208 
        1.77505         90.0837         10.8851 
        1.79081         88.6898         10.6558 
         1.8065           87.75         10.4341 
        1.82218         86.1361         10.2189 
        1.83797         85.2364         10.0084 
        1.85367         84.4207         9.80489 
        1.86928         84.0041         9.60832 
        1.88497         82.2543         9.41607 
        1.90073         81.6857         9.22838 
        1.91647         80.6796         9.04598 
        1.93218         79.5342         8.86891 
        1.94787           78.86         8.69684 
        1.96363         77.5166         8.52867 
        1.97935         76.9225         8.36529 
        1.99499         75.8956         8.20712 
        2.01064         75.2013         8.05282 
         2.0264         73.7562         7.90153 
        2.04216         73.0128          7.7542 
        2.05781           72.23         7.61156 
        2.07353         70.9942           7.472 
        2.08928         70.0789         7.33565 
        2.10499         69.6116         7.20306 
        2.12065         69.1486         7.07416 
        2.13633         68.2411          6.9483 
        2.15211         67.4639          6.8247 
        2.16785         66.7424         6.70445 
        2.18349         66.0278         6.58785 
        2.19916         65.1314         6.47379 
        2.21489         64.4949         6.36205 
        2.23063         64.0272         6.25288 
         2.2463         63.0544         6.14676 
        2.26194         62.4285         6.04337 
        2.27765          61.874         5.94183 
        2.29341         61.1015         5.84237 
        2.30914         60.1605         5.74538 
        2.32486         59.3614         5.65066 
        2.34061         58.8687         5.55791 
        2.35635         58.3498         5.46733 
        2.37203         57.4231         5.37909 
        2.38768         56.8808         5.29297 
        2.40339         56.1657         5.20843 
        2.41914         55.8264         5.12555 
        2.43483         55.4744         5.04476 
         2.4505         54.8173         4.96584 
        2.46622         54.1682         4.88835 
        2.48195         53.5253         4.81251 
        2.49759         52.6631         4.73868 
        2.51328         52.2407         4.66621 
        2.52906         51.8269         4.59479 
        2.54479         51.2037         4.52514 
        2.56049         50.5489         4.45707 
        2.57618         50.1677         4.39046 
        2.59189         49.6053         4.32511 
        2.60758         49.2485         4.26119 
        2.62325         48.5739         4.19864 
        2.63898         48.1499         4.13714 
        2.65468         47.5965         4.07699 
        2.67044         46.8264         4.01778 
        2.68618         46.6065         3.95989 
        2.70184         45.9242         3.90336 
        2.71755         45.7949          3.8478 
        2.73329         44.9751         3.79324 
        2.74897          44.608         3.73991 
        2.76462         44.1128         3.68773 
        2.78034         43.8371         3.63633 
        2.79607         43.2358         3.58585 
        2.81179         42.8459         3.53639 
        2.82749         42.1769         3.48792 
        2.84321         41.9228          3.4403 
        2.85893         41.4716         3.39359 
        2.87462         40.9346         3.34782 
        2.89033         40.5873         3.30286 
        2.90605         40.2174         3.25868 
        2.92176         39.8273         3.21534 
        2.93747         39.4243          3.1728 
        2.95318         39.0098         3.13103 
        2.96891         38.4042         3.08998 
        2.98456         38.2524         3.04986 
        3.00023         37.8194         3.01039 
        3.01596         37.4267          2.9715 
        3.03164          37.006          2.9334 
        3.04738         36.7984         2.89586 
         3.0631         36.2375         2.85899 
        3.07883         35.9451         2.82276 
        3.09456         35.6051         2.78717 
        3.11026         35.2114         2.75224 
        3.12596         34.9145         2.71792 
        3.14163         34.5215         2.68426 
        3.15734         34.0948         2.65109 
        3.17308         33.8998          2.6184 
        3.18879         33.6231         2.58635 
        3.20447         33.1634         2.55489 
         3.2202         32.7937         2.52385 
         3.2359         32.5852         2.49338 
        3.25157         32.2601         2.46349 
        3.26729         31.9982           2.434 
        3.28304         31.6257         2.40493 
        3.29877         31.2826         2.37637 
        3.31446         31.0643         2.34834 
        3.33014         30.7277         2.32079 
        3.34585         30.4912         2.29364 
        3.36158         30.1409         2.26688 
        3.37727         29.8269         2.24063 
        3.39294         29.5532         2.21482 
        3.40867         29.2806         2.18933 
        3.42439          29.024         2.16425 
        3.44008         28.8089         2.13961 
        3.45578         28.3597         2.11534 
        3.47153         28.1542         2.09139 
        3.48724         27.8809         2.06785 
        3.50292         27.6114         2.04473 
        3.51859          27.373         2.02197 
        3.53431         27.2159         1.99949 
        3.55007         26.8945          1.9773 
        3.56577         26.6305         1.95553 
        3.58146         26.4575          1.9341 
        3.59719         26.1241         1.91294 
        3.61292         25.9093          1.8921 
        3.62859         25.6826         1.87165 
        3.64429         25.4048         1.85147 
        3.66003         25.1697         1.83152 
        3.67578         25.0337         1.81187 
        3.69146         24.7505         1.79259 
        3.70712         24.4943         1.77362 
        3.72284         24.3549         1.75485 
        3.73853         24.1234         1.73639 
        3.75422           23.86         1.71818 
        3.76993         23.6863         1.70023 
        3.78564         23.3667         1.68253 
        3.80137         23.2309         1.66506 
        3.81707          23.048         1.64787 
        3.83279         22.7269         1.63092 
        3.84853         22.5046         1.61417 
        3.86424         22.3503         1.59769 
        3.87992         22.1766         1.58147 
        3.89561         21.9861         1.56547 
        3.91134         21.8173         1.54965 
        3.92704          21.606         1.53408 
        3.94273         21.3813         1.51873 
        3.95845         21.2141         1.50357 
        3.97418         21.0589         1.48861 
        3.98988         20.8438         1.47387 
        4.00554         20.7041         1.45937 
        4.02125         20.5062         1.44503 
        4.03698         20.2325         1.43086 
        4.05268         20.1066         1.41691 
        4.06839         19.9069         1.40313 
         4.0841         19.8279         1.38954 
        4.09983         19.6082         1.37612 
        4.11555         19.4422         1.36287 
        4.13124         19.2154         1.34984 
        4.14693         19.0295         1.33696 
        4.16266         18.8934         1.32423 
        4.17839         18.7272         1.31166 
        4.19408         18.5438         1.29929 
        4.20977         18.4565         1.28708 
        4.22551         18.2888         1.27499 
        4.24123         18.1048         1.26306 
        4.25691          18.007         1.25133 
        4.27259         17.8076         1.23974 
        4.28831          17.655         1.22827 
        4.30404         17.5048         1.21693 
        4.31974         17.3286         1.20577 
        4.33543         17.2164         1.19475 
        4.35116         17.0837         1.18384 
        4.36688         16.9009         1.17307 
        4.38255         16.7901         1.16247 
        4.39825         16.6838         1.15199 
        4.41398         16.5052         1.14161 
         4.4297         16.3767         1.13137 
        4.44541         16.2684         1.12126 
        4.46111         16.1149         1.11128 
        4.47683         15.9668         1.10141 
        4.49251         15.8922         1.09168 
        4.50819         15.7077         1.08207 
         4.5239          15.619         1.07257 
        4.53962          15.453         1.06317 
        4.55535          15.356         1.05387 
        4.57106         15.2197          1.0447 
        4.58678         15.1384         1.03564 
         4.6025         14.9649         1.02668 
        4.61821         14.8487         1.01783 
        4.63391         14.7571         1.00909 
         4.6496         14.5939         1.00046 
        4.66532         14.4608        0.991923 
        4.68103         14.3648        0.983485 
        4.69673         14.3114        0.975153 
        4.71241         14.1663        0.966926 
        4.72811           14.04         0.95878 
        4.74384         13.9327        0.950718 
        4.75955         13.8207         0.94276 
        4.77525         13.7339        0.934898 
        4.79096         13.6284        0.927116 
        4.80669         13.5154        0.919419 
         4.8224         13.3868        0.911818 
        4.83809         13.3036         0.90431 
        4.85379         13.1806        0.896883 
         4.8695         13.1216        0.889533 
        4.88521         12.9797        0.882268 
        4.90093         12.8764        0.875084 
        4.91663         12.8213        0.867985 
        4.93234         12.6679        0.860958 
        4.94807         12.6017        0.854004 
        4.96377         12.4915         0.84714 
        4.97943         12.4089        0.840366 
        4.99514         12.2929        0.833648 
        5.01086          12.221        0.826998 
        5.02654         12.1114        0.820438 
        5.04227         12.0395         0.81393 
          5.058         11.9577        0.807489 
        5.07371         11.8634        0.801131 
        5.08942         11.7504         0.79484 
        5.10513         11.6655        0.788616 
        5.12084         11.5954        0.782455 
        5.13656         11.5016        0.776361 
        5.15225         11.4112        0.770343 
        5.16796         11.3468        0.764379 
        5.18369         11.2324        0.758472 
         5.1994         11.1756        0.752638 
        5.21509         11.0784        0.746871 
        5.23079         11.0122        0.741158 
        5.24649         10.9487        0.735509 
        5.26217         10.8176        0.729922 
        5.27788         10.7501        0.724386 
        5.29359         10.6888        0.718906 
        5.30933         10.6164        0.713475 
        5.32504          10.538        0.708109 
        5.34073         10.4422        0.702804 
        5.35646         10.3801        0.697542 
        5.37218         10.3006        0.692334 
        5.38789         10.2217        0.687187 
        5.40357         10.1516        0.682098 
        5.41929         10.0636        0.677049 
        5.43502         10.0302        0.672051 
         5.4507         9.92835        0.667115 
        5.46639         9.85714        0.662229 
        5.48212         9.79268        0.657379 
        5.49786         9.72243        0.652572 
        5.51353         9.64332        0.647838 
        5.52921         9.58122        0.643145 
        5.54495         9.50329        0.638485 
        5.56066         9.42913        0.633876 
        5.57637         9.36934        0.629314 
        5.59207          9.3105          0.6248 
        5.60778         9.23278        0.620329 
        5.62346          9.1676        0.615907 
        5.63916         9.11482        0.611525 
        5.65487         9.04452        0.607183 
         5.6706          8.9951        0.602878 
        5.68633         8.91644        0.598613 
        5.70203         8.87333        0.594398 
        5.71773         8.79675        0.590225 
        5.73344         8.74115        0.586089 
        5.74916         8.65752        0.581989 
        5.76486          8.6458        0.577934 
        5.78054         8.55341        0.573923 
        5.79626         8.48562         0.56994 
          5.812         8.44735         0.56599 
         5.8277         8.38218        0.562089 
        5.84339         8.33137        0.558225 
        5.85911         8.26523         0.55439 
        5.87484         8.21604        0.550591 
        5.89053         8.15725        0.546836 
        5.90623         8.09535        0.543114 
        5.92195         8.05494         0.53942 
        5.93767         8.00288        0.535762 
        5.95336         7.94017        0.532144 
        5.96905         7.87069        0.528561 
        5.98476         7.84303        0.525006 
        6.00048         7.78857        0.521483 
        6.01617         7.73543        0.517996 
        6.03185         7.67462        0.514546 
        6.04756         7.62385        0.511119 
        6.06331         7.58681        0.507715 
        6.07903         7.54429         0.50435 
        6.09473         7.46651        0.501018 
        6.11044         7.43193        0.497714 
        6.12616          7.3846         0.49444 
        6.14186         7.33688        0.491198 
        6.15755         7.27558        0.487986 
        6.17326         7.23394        0.484799 
        6.18898         7.19598         0.48164 
        6.20467         7.14178        0.478515 
        6.22036         7.09338        0.475417 
         6.2361         7.05713        0.472339 
         6.2518         6.99774        0.469293 
        6.26748         6.94752         0.46628 
        6.28319         6.90794        0.463285 
        6.29893         6.87666        0.460315 
        6.31463         6.83279        0.457375 
        6.33033           6.782        0.454462 
        6.34604         6.74023        0.451572 
        6.36177         6.68865        0.448704 
        6.37747         6.66423        0.445867 
