# k  (h/Mpc)    Pcb(k)  (Mpc/h)^3    Pcb_linear(k) (Mpc/h)^3   ShotnoiseSubtracted = true
      0.0200456         22734.6         23284.8 
      0.0350414         16124.1         16927.3 
      0.0492313           12022           12299 
      0.0637834         10420.9         10224.1 
      0.0800726         8220.05          8114.6 
       0.096163         5695.16         5887.85 
       0.111083         4585.59          4696.3 
       0.126058         4220.64         4161.88 
       0.142273         3656.22         3526.02 
       0.158546         3214.83         2784.82 
        0.17375         2574.47         2346.21 
       0.188953         2520.09         2124.44 
       0.204907         2368.39          1879.7 
       0.220756          2056.5         1590.34 
        0.23588         1842.21         1383.45 
         0.2514         1605.88         1256.85 
       0.267535         1608.75         1137.24 
       0.283568         1459.59         1002.89 
       0.299022         1383.06         893.524 
       0.314451         1319.09          816.62 
       0.330372         1209.93         749.157 
       0.346141         1165.13         679.974 
       0.361624         1120.43         618.003 
       0.377134         1044.91         568.661 
       0.392932         1002.56         526.171 
       0.408854          986.28         485.028 
       0.424564         911.435         447.057 
       0.440253         895.444         414.474 
       0.455999         867.596         386.141 
       0.471626         836.736         360.104 
        0.48727         802.864         335.747 
       0.502856         780.044         313.867 
       0.518488           773.8         294.344 
       0.534347         726.334         276.194 
       0.550082         710.103         259.459 
       0.565732         705.959         244.149 
       0.581496         668.408         230.127 
       0.597222         655.213         217.267 
       0.612804         644.629         205.442 
       0.628434         627.038          194.42 
       0.644267         611.289         184.115 
       0.660051         594.406         174.618 
       0.675724         588.436         165.849 
       0.691403         569.479         157.674 
       0.707174         551.399         150.004 
       0.722871          544.72         142.875 
        0.73838         534.651         136.286 
       0.754018         524.135         130.062 
       0.769845         515.318         124.159 
        0.78569         505.696         118.618 
       0.801365         493.343          113.47 
       0.817031         480.868         108.633 
       0.832809         476.882         104.048 
       0.848511          466.71          99.749 
       0.864097         452.674          95.724 
       0.879701         446.948         91.9184 
       0.895507         444.944         88.2757 
       0.911279         432.705         84.8389 
        0.92691         426.826         81.6144 
       0.942635         416.224         78.5404 
       0.958396         406.044          75.619 
       0.974128         400.686         72.8521 
       0.989692         398.501         70.2516 
        1.00528         387.014         67.7747 
        1.02113         385.512         65.3789 
        1.03692         374.476         63.1082 
        1.05264         372.163         60.9563 
        1.06832         362.091         58.9085 
        1.08405         357.845         56.9497 
        1.09979         352.255         55.0791 
        1.11537         345.599         53.3115 
        1.13105         340.361         51.6111 
        1.14679         331.727         49.9787 
        1.16256         325.523         48.4139 
        1.17828         325.291         46.9216 
        1.19395         317.285         45.4974 
         1.2097         312.222         44.1253 
        1.22537         306.148         42.8166 
          1.241         303.233         41.5651 
        1.25666         298.465         40.3607 
        1.27241         294.139         39.1985 
        1.28819         289.506         38.0803 
        1.30392         283.272         37.0091 
        1.31957         282.388          35.984 
        1.33529         277.305         34.9941 
        1.35108         271.484         34.0376 
        1.36674         267.249         33.1239 
         1.3824         265.868         32.2446 
        1.39811         261.252         31.3944 
        1.41389         258.379         30.5717 
        1.42964         255.449           29.78 
        1.44531          251.58         29.0202 
        1.46101           247.1         28.2854 
        1.47667         244.367         27.5783 
        1.49229          241.71         26.8973 
        1.50793         235.799         26.2387 
        1.52367         234.604         25.5978 
        1.53953         230.963         24.9742 
        1.55526         226.645         24.3763 
        1.57092         224.961         23.8006 
        1.58662         222.456         23.2421 
        1.60235         218.424         22.7005 
        1.61809         216.246         22.1759 
        1.63369         213.272         21.6726 
        1.64941         209.194         21.1814 
        1.66519         207.702         20.7036 
        1.68085         204.769          20.244 
        1.69652         201.807         19.7983 
        1.71228         197.212         19.3634 
        1.72806         195.593         18.9414 
        1.74368         192.735         18.5361 
        1.75933         189.717         18.1419 
        1.77505         188.603         17.7574 
        1.79081         186.522         17.3833 
         1.8065         182.965         17.0217 
        1.82218         181.242         16.6707 
        1.83797         179.731         16.3272 
        1.85367         176.686         15.9952 
        1.86928         173.767         15.6745 
        1.88497         171.762         15.3609 
        1.90073         169.898         15.0547 
        1.91647         168.441         14.7572 
        1.93218         166.191         14.4683 
        1.94787         162.537         14.1876 
        1.96363         160.523         13.9133 
        1.97935         159.807         13.6467 
        1.99499         157.184         13.3887 
        2.01064         155.422          13.137 
         2.0264         153.871         12.8902 
        2.04216         151.802         12.6498 
        2.05781         149.991         12.4171 
        2.07353         148.435         12.1895 
        2.08928         145.928          11.967 
        2.10499         144.638         11.7507 
        2.12065         142.156         11.5404 
        2.13633         140.844         11.3351 
        2.15211         138.502         11.1335 
        2.16785         137.303         10.9373 
        2.18349         136.058         10.7471 
        2.19916         134.066          10.561 
        2.21489         132.922         10.3787 
        2.23063         130.556         10.2006 
         2.2463         129.205         10.0275 
        2.26194         127.221         9.85887 
        2.27765         126.148         9.69322 
        2.29341         124.688         9.53095 
        2.30914         123.517         9.37274 
        2.32486         121.574         9.21821 
        2.34061         120.289         9.06691 
        2.35635         118.909         8.91914 
        2.37203         117.667         8.77518 
        2.38768         115.965          8.6347 
        2.40339         114.877         8.49679 
        2.41914           113.3         8.36157 
        2.43483         112.173         8.22977 
         2.4505         111.015         8.10104 
        2.46622         109.826         7.97462 
        2.48195         108.197         7.85089 
        2.49759         106.886         7.73045 
        2.51328          106.31         7.61223 
        2.52906         104.707         7.49573 
        2.54479         103.735          7.3821 
        2.56049         102.466         7.27105 
        2.57618         101.379         7.16238 
        2.59189         100.351         7.05577 
        2.60758         99.1706          6.9515 
        2.62325         97.7867         6.84947 
        2.63898         96.6188         6.74912 
        2.65468          95.627           6.651 
        2.67044         94.9309         6.55442 
        2.68618         93.7242         6.45997 
        2.70184         93.1474         6.36776 
        2.71755         91.5533         6.27712 
        2.73329         90.8296         6.18811 
        2.74897         89.9237         6.10112 
        2.76462         88.6539         6.01599 
        2.78034         88.0067         5.93213 
        2.79607         86.5331         5.84979 
        2.81179         85.7774          5.7691 
        2.82749         84.9153         5.69003 
        2.84321         84.1173         5.61234 
        2.85893         83.2444         5.53614 
        2.87462          82.255         5.46148 
        2.89033         81.2319         5.38813 
        2.90605         80.3781         5.31606 
        2.92176         79.4458         5.24535 
        2.93747         78.9779         5.17596 
        2.95318         77.8066         5.10781 
        2.96891         77.3394         5.04085 
        2.98456         76.5437          4.9754 
        3.00023         75.5966         4.91101 
        3.01596         74.7161         4.84756 
        3.03164         74.0009         4.78541 
        3.04738         73.0894         4.72417 
         3.0631         72.3453         4.66402 
        3.07883         71.9139         4.60492 
        3.09456         71.2781         4.54685 
        3.11026         70.3034         4.48987 
        3.12596         69.4991         4.43388 
        3.14163         69.0362         4.37897 
        3.15734         68.0166         4.32486 
        3.17308         67.3421         4.27153 
        3.18879         66.8767         4.21925 
        3.20447         66.0348         4.16792 
         3.2202         65.5875         4.11729 
         3.2359         64.7186         4.06758 
        3.25157         64.1234         4.01882 
        3.26729         63.6145          3.9707 
        3.28304         63.1439         3.92328 
        3.29877         62.4122          3.8767 
        3.31446         61.4325         3.83097 
        3.33014         61.2262         3.78603 
        3.34585         60.3099         3.74173 
        3.36158         59.9274         3.69808 
        3.37727         59.4338         3.65526 
        3.39294          58.581         3.61316 
        3.40867         58.1352         3.57156 
        3.42439         57.6678         3.53065 
        3.44008         57.0072         3.49046 
        3.45578         56.3918         3.45086 
        3.47153         55.8929         3.41179 
        3.48724         55.4025         3.37339 
        3.50292         55.0374         3.33567 
        3.51859         54.3545         3.29855 
        3.53431         54.0274         3.26188 
        3.55007         53.3504         3.22567 
        3.56577         53.0155         3.19016 
        3.58146         52.4017          3.1552 
        3.59719         51.8216         3.12068 
        3.61292         51.3807         3.08668 
        3.62859         50.8757         3.05333 
        3.64429         50.3578          3.0204 
        3.66003          50.056         2.98785 
        3.67578         49.4953          2.9558 
        3.69146         49.0652         2.92434 
        3.70712         48.4678         2.89339 
        3.72284         48.0854         2.86278 
        3.73853         47.6379         2.83266 
        3.75422         47.0809         2.80296 
        3.76993         46.6657         2.77367 
        3.78564         46.2634          2.7448 
        3.80137         45.8723          2.7163 
        3.81707         45.3962         2.68826 
        3.83279         45.0001          2.6606 
        3.84853         44.7445         2.63328 
        3.86424         44.1798          2.6064 
        3.87992         43.8683         2.57993 
        3.89561          43.502         2.55382 
        3.91134         43.0054         2.52803 
        3.92704         42.6317         2.50262 
        3.94273         42.2768         2.47759 
        3.95845         42.0623         2.45285 
        3.97418         41.6367         2.42844 
        3.98988         41.2697          2.4044 
        4.00554         40.8555         2.38075 
        4.02125         40.6057         2.35735 
        4.03698         40.1379         2.33423 
        4.05268         39.8937         2.31147 
        4.06839         39.5071           2.289 
         4.0841         39.1049         2.26684 
        4.09983         38.8128         2.24493 
        4.11555         38.5111         2.22333 
        4.13124         38.2068         2.20206 
        4.14693         37.8476         2.18106 
        4.16266         37.5437         2.16028 
        4.17839         37.1061         2.13979 
        4.19408         36.8175          2.1196 
        4.20977         36.5141         2.09967 
        4.22551         36.1784         2.07995 
        4.24123         35.9352          2.0605 
        4.25691         35.6259         2.04136 
        4.27259          35.287         2.02244 
        4.28831         34.9748         2.00374 
        4.30404           34.74         1.98525 
        4.31974         34.4073         1.96703 
        4.33543         34.0416         1.94905 
        4.35116          33.876         1.93125 
        4.36688         33.5825         1.91369 
        4.38255          33.271          1.8964 
        4.39825         33.0343          1.8793 
        4.41398         32.8198         1.86236 
         4.4297          32.422         1.84566 
        4.44541         32.2363         1.82916 
        4.46111         31.8839         1.81288 
        4.47683         31.6627         1.79678 
        4.49251         31.3474         1.78092 
        4.50819         31.1775         1.76524 
         4.5239         30.9408         1.74974 
        4.53962         30.6632          1.7344 
        4.55535         30.4627         1.71923 
        4.57106         30.1526         1.70427 
        4.58678         29.9876         1.68949 
         4.6025         29.6067         1.67487 
        4.61821         29.4679         1.66044 
        4.63391         29.2044         1.64619 
         4.6496         28.9411         1.63211 
        4.66532         28.7272         1.61818 
        4.68103          28.501         1.60441 
        4.69673         28.2746         1.59082 
        4.71241         28.1392          1.5774 
        4.72811          27.803         1.56411 
        4.74384         27.6695         1.55096 
        4.75955         27.3941         1.53797 
        4.77525         27.1628         1.52515 
        4.79096         27.0125         1.51245 
        4.80669         26.7275          1.4999 
         4.8224         26.5743          1.4875 
        4.83809         26.3882         1.47525 
        4.85379         26.1137         1.46313 
         4.8695         25.9189         1.45114 
        4.88521         25.6971         1.43929 
        4.90093         25.4898         1.42757 
        4.91663         25.2743         1.41599 
        4.93234          25.116         1.40453 
        4.94807         24.9502         1.39318 
        4.96377         24.7365         1.38198 
        4.97943         24.4988         1.37093 
        4.99514         24.3787         1.35997 
        5.01086         24.2107         1.34913 
        5.02654         23.9777         1.33842 
        5.04227         23.8376         1.32781 
          5.058         23.6725          1.3173 
        5.07371         23.4779         1.30693 
        5.08942          23.219         1.29666 
        5.10513         23.1326         1.28651 
        5.12084         22.9568         1.27646 
        5.13656         22.7777         1.26652 
        5.15225          22.582          1.2567 
        5.16796         22.4257         1.24697 
        5.18369         22.2163         1.23733 
         5.1994         22.0925         1.22782 
        5.21509          21.905         1.21841 
        5.23079         21.7708         1.20909 
        5.24649         21.6194         1.19987 
        5.26217         21.4728         1.19076 
        5.27788         21.3043         1.18173 
        5.29359         21.1361         1.17279 
        5.30933         20.9003         1.16393 
        5.32504         20.8053         1.15517 
        5.34073         20.6632         1.14652 
        5.35646         20.5026         1.13794 
        5.37218          20.339         1.12944 
        5.38789         20.2129         1.12104 
        5.40357         20.0725         1.11274 
        5.41929         19.8812         1.10451 
        5.43502         19.7825         1.09635 
         5.4507         19.6106          1.0883 
        5.46639         19.4735         1.08033 
        5.48212         19.3671         1.07242 
        5.49786         19.1653         1.06458 
        5.51353         19.0435         1.05685 
        5.52921         18.9302          1.0492 
        5.54495         18.7872         1.04159 
        5.56066         18.6561         1.03408 
        5.57637          18.501         1.02663 
        5.59207         18.3577         1.01927 
        5.60778         18.2066         1.01197 
        5.62346         18.1218         1.00476 
        5.63916         18.0171        0.997612 
        5.65487         17.8765        0.990529 
         5.6706          17.743        0.983506 
        5.68633         17.6238        0.976549 
        5.70203         17.4658        0.969673 
        5.71773         17.3875        0.962864 
        5.73344         17.2335        0.956117 
        5.74916         17.1414        0.949429 
        5.76486         17.0367        0.942813 
        5.78054         16.8991        0.936271 
        5.79626         16.7614        0.929772 
          5.812         16.6861        0.923329 
         5.8277         16.5306        0.916965 
        5.84339         16.4142        0.910662 
        5.85911         16.3257        0.904405 
        5.87484         16.1836        0.898208 
        5.89053          16.082        0.892082 
        5.90623         15.9948         0.88601 
        5.92195         15.8702        0.879983 
        5.93767         15.7433        0.874017 
        5.95336         15.6402        0.868115 
        5.96905         15.5468         0.86227 
        5.98476         15.4373         0.85647 
        6.00048          15.311        0.850722 
        6.01617         15.2396        0.845034 
        6.03185         15.1009        0.839406 
        6.04756          14.993        0.833814 
        6.06331         14.9144        0.828262 
        6.07903         14.8142        0.822773 
        6.09473         14.6999        0.817337 
        6.11044         14.6013        0.811946 
        6.12616         14.5057        0.806605 
        6.14186         14.3708        0.801317 
        6.15755         14.2915        0.796076 
        6.17326         14.2278        0.790878 
        6.18898         14.1343        0.785725 
        6.20467         14.0367        0.780626 
        6.22036         13.9328        0.775573 
         6.2361         13.8405        0.770551 
         6.2518         13.7429        0.765581 
        6.26748         13.6546        0.760667 
        6.28319         13.5645        0.755782 
        6.29893         13.4621        0.750935 
        6.31463         13.3856        0.746139 
        6.33033          13.308        0.741387 
        6.34604         13.2218        0.736672 
        6.36177         13.1089        0.731994 
        6.37747         13.0464        0.727366 
