# k  (h/Mpc)    Pcb(k)  (Mpc/h)^3    Pcb_linear(k) (Mpc/h)^3   ShotnoiseSubtracted = true
      0.0200456         231.531         234.525 
      0.0350414         162.635         162.364 
      0.0492313         116.599         116.082 
      0.0637834         96.3302         96.0591 
      0.0800726          74.461         74.2044 
       0.096163         52.8804         52.7174 
       0.111083         42.4431          42.491 
       0.126058         37.7299         37.7497 
       0.142273          31.218         31.0991 
       0.158546         24.4496         24.2544 
        0.17375         20.7425         20.7798 
       0.188953         18.8401          18.848 
       0.204907          16.533         16.3081 
       0.220756         13.7733         13.6585 
        0.23588         12.1079         12.0312 
         0.2514         10.9728         10.9727 
       0.267535          9.8027         9.77882 
       0.283568          8.5992         8.54799 
       0.299022         7.73121         7.66894 
       0.314451         7.00539          7.0347 
       0.330372         6.40818          6.3981 
       0.346141         5.78293          5.7663 
       0.361624         5.28418         5.25367 
       0.377134         4.89116         4.84638 
       0.392932         4.42244         4.46599 
       0.408854         4.12973         4.09639 
       0.424564         3.78345         3.77487 
       0.440253         3.51484         3.50375 
       0.455999         3.28494          3.2582 
       0.471626         3.06362         3.02888 
        0.48727         2.83609         2.82067 
       0.502856         2.64218         2.63713 
       0.518488         2.50359         2.47048 
       0.534347         2.36051          2.3137 
       0.550082         2.17844         2.17057 
       0.565732         2.02395         2.04152 
       0.581496         1.93887         1.92272 
       0.597222         1.83398         1.81304 
       0.612804         1.72188         1.71239 
       0.628434         1.64344         1.61925 
       0.644267         1.54685         1.53233 
       0.660051         1.45981         1.45206 
       0.675724          1.3902         1.37796 
       0.691403         1.32681         1.30895 
       0.707174         1.25484         1.24426 
       0.722871           1.189         1.18419 
        0.73838         1.14203         1.12871 
       0.754018         1.09585         1.07636 
       0.769845         1.04081         1.02675 
        0.78569        0.992834        0.980227 
       0.801365        0.946005        0.937043 
       0.817031        0.908145        0.896498 
       0.832809        0.868536          0.8581 
       0.848511        0.828653        0.822129 
       0.864097        0.790899        0.788471 
       0.879701         0.75873         0.75667 
       0.895507         0.73372        0.726252 
       0.911279         0.70656        0.697572 
        0.92691        0.676769         0.67068 
       0.942635        0.651098         0.64506 
       0.958396        0.624033        0.620727 
       0.974128        0.601025        0.597694 
       0.989692        0.581561        0.576058 
        1.00528        0.560767        0.555462 
        1.02113        0.535788        0.535552 
        1.03692        0.520733        0.516693 
        1.05264        0.502292        0.498829 
        1.06832        0.486021        0.481839 
        1.08405        0.465565        0.465595 
        1.09979        0.450405        0.450092 
        1.11537        0.439426        0.435449 
        1.13105         0.42448        0.421371 
        1.14679        0.412878        0.407861 
        1.16256        0.395084        0.394918 
        1.17828        0.383114         0.38258 
        1.19395         0.37057        0.370811 
         1.2097        0.357677        0.359478 
        1.22537        0.350365        0.348673 
          1.241        0.338991        0.338346 
        1.25666        0.331368        0.328411 
        1.27241        0.318803        0.318829 
        1.28819         0.30921        0.309613 
        1.30392        0.300953        0.300789 
        1.31957        0.292853        0.292348 
        1.33529        0.283571          0.2842 
        1.35108        0.275326         0.27633 
        1.36674        0.265705        0.268815 
         1.3824           0.262        0.261586 
        1.39811        0.253326          0.2546 
        1.41389        0.246993        0.247841 
        1.42964        0.241276         0.24134 
        1.44531        0.232744        0.235103 
        1.46101          0.2279        0.229073 
        1.47667        0.220066        0.223273 
        1.49229        0.216237         0.21769 
        1.50793        0.209469        0.212291 
        1.52367        0.205015         0.20704 
        1.53953        0.199944        0.201931 
        1.55526        0.195055        0.197036 
        1.57092         0.18887        0.192323 
        1.58662        0.185512        0.187753 
        1.60235        0.181573        0.183323 
        1.61809        0.175132        0.179033 
        1.63369        0.173151        0.174919 
        1.64941        0.168581        0.170904 
        1.66519        0.163939        0.167001 
        1.68085        0.159724        0.163248 
        1.69652        0.155975        0.159609 
        1.71228        0.153362        0.156059 
        1.72806        0.148581        0.152615 
        1.74368        0.146474         0.14931 
        1.75933        0.142861        0.146095 
        1.77505        0.139358        0.142961 
        1.79081        0.136969        0.139912 
         1.8065         0.13276        0.136965 
        1.82218        0.130589        0.134106 
        1.83797        0.127464        0.131309 
        1.85367        0.125107        0.128607 
        1.86928        0.122603        0.125997 
        1.88497        0.120123        0.123445 
        1.90073        0.117129        0.120955 
        1.91647        0.114739        0.118535 
        1.93218        0.112128        0.116186 
        1.94787        0.109811        0.113905 
        1.96363        0.107772        0.111675 
        1.97935        0.105145         0.10951 
        1.99499        0.103444        0.107415 
        2.01064         0.10153        0.105371 
         2.0264       0.0991724        0.103367 
        2.04216       0.0976205        0.101417 
        2.05781       0.0955648       0.0995288 
        2.07353         0.09303       0.0976821 
        2.08928       0.0914768       0.0958781 
        2.10499       0.0895493       0.0941245 
        2.12065       0.0883999       0.0924199 
        2.13633       0.0862343       0.0907561 
        2.15211       0.0852227       0.0891224 
        2.16785       0.0832299       0.0875334 
        2.18349       0.0811501        0.085993 
        2.19916        0.080529       0.0844864 
        2.21489       0.0788484       0.0830109 
        2.23063       0.0774365       0.0815696 
         2.2463       0.0757352       0.0801689 
        2.26194       0.0742752       0.0788045 
        2.27765       0.0729227       0.0774649 
        2.29341       0.0719186       0.0761528 
        2.30914       0.0703432       0.0748738 
        2.32486       0.0690767       0.0736249 
        2.34061         0.06797       0.0724023 
        2.35635       0.0666718       0.0712085 
        2.37203       0.0655559       0.0700457 
        2.38768       0.0643322       0.0689112 
        2.40339       0.0632742       0.0677977 
        2.41914       0.0623732       0.0667062 
        2.43483        0.061097       0.0656425 
         2.4505       0.0598283       0.0646038 
        2.46622       0.0589718       0.0635839 
        2.48195       0.0578306       0.0625859 
        2.49759       0.0572678       0.0616146 
        2.51328       0.0563216       0.0606614 
        2.52906       0.0552215       0.0597223 
        2.54479       0.0542291       0.0588065 
        2.56049       0.0533608       0.0579117 
        2.57618       0.0525502       0.0570362 
        2.59189       0.0517237       0.0561774 
        2.60758       0.0511109       0.0553377 
        2.62325       0.0500893       0.0545161 
        2.63898       0.0493019       0.0537083 
        2.65468       0.0482628       0.0529185 
        2.67044       0.0478866       0.0521412 
        2.68618       0.0470023       0.0513812 
        2.70184       0.0461984       0.0506394 
        2.71755       0.0452714       0.0499104 
        2.73329        0.044822       0.0491946 
        2.74897       0.0442338       0.0484951 
        2.76462       0.0434064       0.0478107 
        2.78034       0.0428585       0.0471367 
        2.79607       0.0420529        0.046475 
        2.81179       0.0415854       0.0458266 
        2.82749       0.0408224       0.0451914 
        2.84321       0.0402391       0.0445674 
        2.85893       0.0396837       0.0439554 
        2.87462       0.0392501       0.0433559 
        2.89033       0.0385491        0.042767 
        2.90605       0.0378432       0.0421885 
        2.92176       0.0374805        0.041621 
        2.93747        0.036902       0.0410642 
        2.95318       0.0362821       0.0405174 
        2.96891       0.0358582       0.0399803 
        2.98456       0.0354381       0.0394553 
        3.00023       0.0347624        0.038939 
        3.01596       0.0342953       0.0384302 
        3.03164       0.0340096        0.037932 
        3.04738       0.0334147       0.0374411 
         3.0631       0.0328602       0.0369591 
        3.07883       0.0324578       0.0364855 
        3.09456       0.0321219       0.0360202 
        3.11026        0.031601       0.0355638 
        3.12596       0.0312931       0.0351153 
        3.14163       0.0308183       0.0346756 
        3.15734       0.0304435       0.0342423 
        3.17308       0.0300232       0.0338154 
        3.18879       0.0295691       0.0333969 
        3.20447         0.02934       0.0329861 
         3.2202       0.0289119       0.0325809 
         3.2359       0.0285822       0.0321832 
        3.25157       0.0281465        0.031793 
        3.26729       0.0277822       0.0314082 
        3.28304       0.0275108       0.0310289 
        3.29877       0.0271687       0.0306564 
        3.31446       0.0267725       0.0302908 
        3.33014       0.0264922       0.0299315 
        3.34585       0.0261697       0.0295774 
        3.36158       0.0257896       0.0292285 
        3.37727       0.0255543       0.0288864 
        3.39294       0.0252889         0.02855 
        3.40867       0.0249433       0.0282177 
        3.42439       0.0246646       0.0278909 
        3.44008       0.0243922       0.0275699 
        3.45578       0.0242006       0.0272537 
        3.47153       0.0238278       0.0269417 
        3.48724       0.0237174       0.0266352 
        3.50292        0.023301       0.0263341 
        3.51859       0.0230169       0.0260378 
        3.53431       0.0228952       0.0257451 
        3.55007       0.0225968       0.0254562 
        3.56577       0.0224148       0.0251729 
        3.58146       0.0220634        0.024894 
        3.59719       0.0219194       0.0246186 
        3.61292       0.0216201       0.0243476 
        3.62859       0.0214009       0.0240816 
        3.64429       0.0212461        0.023819 
        3.66003       0.0209822       0.0235596 
        3.67578       0.0208136       0.0233041 
        3.69146        0.020621       0.0230533 
        3.70712       0.0204537       0.0228067 
        3.72284        0.020217       0.0225628 
        3.73853       0.0199828       0.0223228 
        3.75422       0.0199019       0.0220862 
        3.76993       0.0196237       0.0218529 
        3.78564       0.0194819        0.021623 
        3.80137       0.0192669        0.021396 
        3.81707       0.0190474       0.0211728 
        3.83279       0.0189315       0.0209525 
        3.84853       0.0187695        0.020735 
        3.86424       0.0185781       0.0205211 
        3.87992       0.0184217       0.0203104 
        3.89561       0.0182838       0.0201027 
        3.91134       0.0181151       0.0198975 
        3.92704       0.0179141       0.0196953 
        3.94273        0.017758       0.0194962 
        3.95845       0.0175916       0.0192994 
        3.97418       0.0174903       0.0191053 
        3.98988       0.0172743       0.0189142 
        4.00554       0.0170919       0.0187261 
        4.02125       0.0168478       0.0185401 
        4.03698       0.0166526       0.0183563 
        4.05268       0.0164212       0.0181754 
        4.06839       0.0161861       0.0179968 
         4.0841       0.0159372       0.0178206 
        4.09983       0.0156905       0.0176466 
        4.11555       0.0155205       0.0174749 
        4.13124       0.0153181        0.017306 
        4.14693       0.0150372       0.0171392 
        4.16266       0.0148434       0.0169741 
        4.17839        0.014699       0.0168114 
        4.19408       0.0145294       0.0166511 
        4.20977       0.0143391       0.0164929 
        4.22551       0.0141305       0.0163363 
        4.24123       0.0139656       0.0161819 
        4.25691       0.0138191       0.0160299 
        4.27259        0.013673       0.0158799 
        4.28831       0.0135527       0.0157314 
        4.30404        0.013404       0.0155847 
        4.31974       0.0132699       0.0154401 
        4.33543       0.0131539       0.0152975 
        4.35116        0.013039       0.0151564 
        4.36688        0.012928        0.015017 
        4.38255       0.0128169       0.0148799 
        4.39825       0.0127476       0.0147443 
        4.41398       0.0126782         0.01461 
         4.4297       0.0125948       0.0144776 
        4.44541       0.0125089       0.0143468 
        4.46111       0.0124139       0.0142178 
        4.47683       0.0123874       0.0140902 
        4.49251       0.0122886       0.0139644 
        4.50819       0.0122481       0.0138402 
         4.5239       0.0121811       0.0137174 
        4.53962       0.0121863       0.0135958 
        4.55535       0.0121404       0.0134757 
        4.57106       0.0121664       0.0133572 
        4.58678       0.0120789       0.0132401 
         4.6025       0.0121093       0.0131244 
        4.61821       0.0120953         0.01301 
        4.63391        0.012073       0.0128972 
         4.6496       0.0120758       0.0127857 
        4.66532       0.0120831       0.0126754 
        4.68103       0.0121137       0.0125665 
        4.69673       0.0121176       0.0124589 
        4.71241       0.0121946       0.0123527 
        4.72811       0.0121694       0.0122475 
        4.74384       0.0122124       0.0121434 
        4.75955       0.0123043       0.0120407 
        4.77525       0.0123375       0.0119393 
        4.79096       0.0124129       0.0118388 
        4.80669        0.012434       0.0117395 
         4.8224       0.0125587       0.0116414 
        4.83809       0.0125914       0.0115446 
        4.85379       0.0127142       0.0114488 
         4.8695       0.0127657        0.011354 
        4.88521       0.0128737       0.0112603 
        4.90093       0.0129949       0.0111676 
        4.91663       0.0131575       0.0110761 
        4.93234          0.0132       0.0109855 
        4.94807       0.0132718       0.0108958 
        4.96377       0.0134512       0.0108073 
        4.97943       0.0135963         0.01072 
        4.99514       0.0137333       0.0106334 
        5.01086       0.0138302       0.0105477 
        5.02654       0.0140489       0.0104631 
        5.04227       0.0142111       0.0103793 
          5.058       0.0143636       0.0102963 
        5.07371       0.0144928       0.0102143 
        5.08942       0.0148001       0.0101333 
        5.10513       0.0149414       0.0100531 
        5.12084        0.015086      0.00997377 
        5.13656       0.0154039      0.00989529 
        5.15225        0.015571      0.00981778 
        5.16796       0.0158721      0.00974097 
        5.18369       0.0159769      0.00966492 
         5.1994       0.0162863      0.00958981 
        5.21509       0.0165016      0.00951556 
        5.23079       0.0167331      0.00944201 
        5.24649       0.0170365       0.0093693 
        5.26217       0.0173477      0.00929739 
        5.27788       0.0175817      0.00922614 
        5.29359        0.017916      0.00915562 
        5.30933       0.0181489      0.00908573 
        5.32504       0.0184625      0.00901669 
        5.34073       0.0189253      0.00894844 
        5.35646       0.0191898      0.00888075 
        5.37218       0.0195308      0.00881375 
        5.38789       0.0199775      0.00874755 
        5.40357       0.0203203       0.0086821 
        5.41929       0.0205936      0.00861717 
        5.43502       0.0211015       0.0085529 
         5.4507       0.0214322      0.00848943 
        5.46639        0.021894       0.0084266 
        5.48212       0.0221904      0.00836426 
        5.49786       0.0226883      0.00830247 
        5.51353       0.0233087      0.00824161 
        5.52921       0.0237212      0.00818129 
        5.54495       0.0242975       0.0081214 
        5.56066       0.0247659      0.00806217 
        5.57637       0.0252282      0.00800354 
        5.59207       0.0257448      0.00794554 
        5.60778       0.0263249       0.0078881 
        5.62346       0.0268815       0.0078313 
        5.63916       0.0274414        0.007775 
        5.65487       0.0280598      0.00771922 
         5.6706       0.0285361      0.00766393 
        5.68633       0.0294035      0.00760916 
        5.70203       0.0300616      0.00755503 
        5.71773       0.0306633      0.00750143 
        5.73344       0.0313004      0.00744833 
        5.74916       0.0321848      0.00739569 
        5.76486       0.0328596      0.00734363 
        5.78054       0.0335542      0.00729215 
        5.79626       0.0343716      0.00724101 
          5.812       0.0351813      0.00719031 
         5.8277       0.0361895      0.00714025 
        5.84339       0.0366959      0.00709066 
        5.85911       0.0376936      0.00704145 
        5.87484       0.0386864       0.0069927 
        5.89053       0.0396819      0.00694452 
        5.90623        0.040595      0.00689677 
        5.92195       0.0416818      0.00684938 
        5.93767       0.0427569      0.00680246 
        5.95336       0.0436492      0.00675605 
        5.96905       0.0448699       0.0067101 
        5.98476       0.0456061      0.00666451 
        6.00048       0.0468583      0.00661932 
        6.01617       0.0479992      0.00657461 
        6.03185        0.049186      0.00653037 
        6.04756       0.0506647      0.00648643 
        6.06331       0.0521124       0.0064428 
        6.07903       0.0532413      0.00639966 
        6.09473       0.0546446      0.00635695 
        6.11044       0.0564291      0.00631459 
        6.12616       0.0577917      0.00627263 
        6.14186        0.059206      0.00623108 
        6.15755       0.0607673      0.00618992 
        6.17326       0.0619583      0.00614909 
        6.18898       0.0639843      0.00610861 
        6.20467       0.0658005      0.00606857 
        6.22036       0.0674802      0.00602888 
         6.2361       0.0689269      0.00598945 
         6.2518       0.0716043      0.00595043 
        6.26748       0.0726266      0.00591184 
        6.28319       0.0754299      0.00587349 
        6.29893       0.0774975      0.00583544 
        6.31463       0.0792641      0.00579779 
        6.33033       0.0815813      0.00576049 
        6.34604       0.0835148      0.00572349 
        6.36177       0.0859688      0.00568677 
        6.37747       0.0884568      0.00565045 
