# k  (h/Mpc)    Pcb(k)  (Mpc/h)^3    Pcb_linear(k) (Mpc/h)^3   ShotnoiseSubtracted = true
      0.0200456         10453.9           10639 
      0.0350414         7175.91         7365.47 
      0.0492313         5235.41         5265.93 
      0.0637834         4447.26         4357.63 
      0.0800726         3439.91         3366.21 
       0.096163         2360.66         2391.47 
       0.111083         1892.56         1927.56 
       0.126058         1742.72         1712.48 
       0.142273         1476.12         1410.78 
       0.158546         1214.79         1100.27 
        0.17375         984.158         942.656 
       0.188953         946.847         855.022 
       0.204907         876.505         739.799 
       0.220756         737.918         619.603 
        0.23588         650.782         545.784 
         0.2514         569.711         497.765 
       0.267535         547.369         443.606 
       0.283568         494.061         387.771 
       0.299022         459.539         347.894 
       0.314451         428.535         319.122 
       0.330372         394.549         290.244 
       0.346141         355.042         261.583 
       0.361624         341.386         238.327 
       0.377134         317.277         219.851 
       0.392932         297.353         202.595 
       0.408854          284.71         185.829 
       0.424564         271.019         171.243 
       0.440253         259.886         158.944 
       0.455999         243.866         147.805 
       0.471626         226.815         137.402 
        0.48727         219.335         127.957 
       0.502856         211.479         119.631 
       0.518488         208.043         112.071 
       0.534347         196.327         104.959 
       0.550082         183.371         98.4659 
       0.565732         179.087         92.6117 
       0.581496         170.251         87.2224 
       0.597222         165.451         82.2466 
       0.612804         158.994         77.6808 
       0.628434         153.953         73.4558 
       0.644267         148.722         69.5126 
       0.660051         146.693         65.8712 
       0.675724         142.697         62.5099 
       0.691403         138.241         59.3793 
       0.707174         132.415         56.4448 
       0.722871         131.032         53.7195 
        0.73838         128.105         51.2028 
       0.754018         123.441          48.828 
       0.769845         120.305         46.5776 
        0.78569         117.855          44.467 
       0.801365         114.377          42.508 
       0.817031         110.378         40.6687 
       0.832809         108.916         38.9268 
       0.848511         105.662         37.2951 
       0.864097         103.352         35.7682 
       0.879701         101.364         34.3256 
       0.895507         98.9852         32.9457 
       0.911279         97.1891         31.6446 
        0.92691         95.7244         30.4247 
       0.942635         92.9551         29.2625 
       0.958396         92.6557         28.1586 
       0.974128         90.0629         27.1138 
       0.989692         87.8626         26.1323 
        1.00528         85.9744          25.198 
        1.02113           85.19         24.2948 
        1.03692          82.039         23.4392 
        1.05264         81.9283         22.6289 
        1.06832         79.6388         21.8581 
        1.08405         78.5252         21.1213 
        1.09979          78.132          20.418 
        1.11537         75.3708         19.7537 
        1.13105         75.4475         19.1151 
        1.14679         74.1287         18.5022 
        1.16256          73.001         17.9151 
        1.17828         71.2046         17.3554 
        1.19395         70.2648         16.8215 
         1.2097         68.5775         16.3074 
        1.22537         68.7779         15.8172 
          1.241         67.0786         15.3487 
        1.25666         65.6631          14.898 
        1.27241         64.8697         14.4634 
        1.28819          63.762         14.0453 
        1.30392         62.9725          13.645 
        1.31957         62.2159         13.2621 
        1.33529         60.9726         12.8924 
        1.35108         60.6674         12.5355 
        1.36674         59.9214         12.1945 
         1.3824         58.6195         11.8666 
        1.39811         58.0411         11.5497 
        1.41389         57.1839         11.2431 
        1.42964         56.5155         10.9481 
        1.44531          55.416         10.6652 
        1.46101         54.5863         10.3917 
        1.47667         54.5653         10.1286 
        1.49229         53.5713         9.87527 
        1.50793         53.0929         9.63035 
        1.52367         52.0746         9.39215 
        1.53953         51.5131         9.16042 
        1.55526         50.9815         8.93835 
        1.57092         50.6356         8.72455 
        1.58662         49.7429         8.51724 
        1.60235         49.2378         8.31627 
        1.61809         48.5992         8.12167 
        1.63369         47.7762         7.93502 
        1.64941         47.3655         7.75291 
        1.66519         46.4773         7.57585 
        1.68085         46.2115         7.40558 
        1.69652         45.4239         7.24048 
        1.71228         45.1404         7.07948 
        1.72806         44.7129         6.92325 
        1.74368         43.9869         6.77329 
        1.75933         43.5973         6.62747 
        1.77505         43.0905         6.48526 
        1.79081         42.5746         6.34697 
         1.8065         42.2015          6.2133 
        1.82218         41.6205         6.08359 
        1.83797         41.0261          5.9567 
        1.85367         40.5637         5.83412 
        1.86928         40.0861         5.71572 
        1.88497         39.8978         5.59996 
        1.90073         39.3284         5.48698 
        1.91647         38.8953         5.37721 
        1.93218         38.5304         5.27067 
        1.94787         38.0972         5.16718 
        1.96363         37.6803         5.06605 
        1.97935         37.1782         4.96783 
        1.99499         36.8331         4.87276 
        2.01064         36.5329         4.78005 
         2.0264         35.8538         4.68916 
        2.04216         35.6302         4.60067 
        2.05781         35.1344         4.51502 
        2.07353         34.8176         4.43125 
        2.08928         34.6233         4.34942 
        2.10499         34.0967         4.26986 
        2.12065         33.6878         4.19254 
        2.13633         33.5661         4.11706 
        2.15211          33.119         4.04295 
        2.16785         32.5187         3.97086 
        2.18349         32.3343         3.90099 
        2.19916         32.1021         3.83264 
        2.21489          31.664         3.76571 
        2.23063         31.3251         3.70032 
         2.2463         30.9121         3.63678 
        2.26194         30.6194         3.57489 
        2.27765         30.3357         3.51412 
        2.29341         30.0501          3.4546 
        2.30914         29.7747         3.39658 
        2.32486         29.3704         3.33992 
        2.34061         29.1665         3.28446 
        2.35635          28.904          3.2303 
        2.37203         28.6437         3.17755 
        2.38768         28.2596         3.12609 
        2.40339         28.1143         3.07558 
        2.41914         27.8287         3.02606 
        2.43483         27.3924         2.97781 
         2.4505         27.2196         2.93069 
        2.46622         26.9617         2.88442 
        2.48195         26.7275         2.83915 
        2.49759         26.4424         2.79509 
        2.51328         26.0765         2.75184 
        2.52906         25.9814         2.70924 
        2.54479         25.5992          2.6677 
        2.56049         25.3704         2.62711 
        2.57618         25.0911         2.58739 
        2.59189         24.9967         2.54843 
        2.60758         24.7198         2.51034 
        2.62325         24.3639         2.47307 
        2.63898         24.2755         2.43642 
        2.65468         23.9344         2.40059 
        2.67044         23.7651         2.36533 
        2.68618         23.4761         2.33086 
        2.70184          23.244         2.29721 
        2.71755         23.1236         2.26414 
        2.73329         22.8503         2.23166 
        2.74897          22.584         2.19993 
        2.76462         22.3999         2.16889 
        2.78034         22.2953         2.13831 
        2.79607         22.0723         2.10829 
        2.81179         21.7937         2.07888 
        2.82749         21.6503         2.05006 
        2.84321         21.3735         2.02176 
        2.85893         21.1156         1.99399 
        2.87462         20.9886          1.9668 
        2.89033          20.861         1.94008 
        2.90605         20.6504         1.91384 
        2.92176         20.4887         1.88809 
        2.93747         20.3078         1.86284 
        2.95318         20.0289         1.83803 
        2.96891         19.9135         1.81367 
        2.98456         19.6924         1.78985 
        3.00023         19.4761         1.76643 
        3.01596         19.3249         1.74335 
        3.03164         19.1436         1.72075 
        3.04738         18.9803         1.69848 
         3.0631         18.8365         1.67661 
        3.07883         18.6786         1.65513 
        3.09456         18.4471         1.63402 
        3.11026         18.2933         1.61332 
        3.12596         18.1513         1.59297 
        3.14163         18.0163         1.57302 
        3.15734         17.8416         1.55337 
        3.17308         17.6688           1.534 
        3.18879         17.5162         1.51502 
        3.20447         17.3383         1.49638 
         3.2202         17.2128           1.478 
         3.2359         16.9968         1.45996 
        3.25157         16.9514         1.44226 
        3.26729         16.8001          1.4248 
        3.28304         16.6352          1.4076 
        3.29877          16.376          1.3907 
        3.31446          16.292         1.37411 
        3.33014         16.1406         1.35781 
        3.34585         15.9685         1.34175 
        3.36158         15.8693         1.32592 
        3.37727         15.7085          1.3104 
        3.39294         15.5488         1.29514 
        3.40867         15.4246         1.28007 
        3.42439         15.3128         1.26524 
        3.44008          15.163         1.25068 
        3.45578         15.0064         1.23634 
        3.47153         14.9066         1.22218 
        3.48724         14.7348         1.20828 
        3.50292         14.6714         1.19462 
        3.51859         14.5072         1.18118 
        3.53431         14.4058          1.1679 
        3.55007         14.2784          1.1548 
        3.56577         14.1453         1.14194 
        3.58146         14.0482         1.12929 
        3.59719         13.8817          1.1168 
        3.61292         13.7758          1.1045 
        3.62859          13.648         1.09244 
        3.64429          13.546         1.08053 
        3.66003         13.4327         1.06876 
        3.67578         13.3362         1.05717 
        3.69146         13.2443         1.04579 
        3.70712         13.0691          1.0346 
        3.72284         13.0154         1.02354 
        3.73853         12.8841         1.01265 
        3.75422         12.7155         1.00192 
        3.76993         12.6581        0.991335 
        3.78564         12.5174        0.980906 
        3.80137         12.4424        0.970609 
        3.81707          12.337        0.960482 
        3.83279          12.216        0.950491 
        3.84853         12.1224        0.940625 
        3.86424         11.9895        0.930918 
        3.87992         11.8927        0.921362 
        3.89561         11.8035         0.91194 
        3.91134         11.7093        0.902629 
        3.92704         11.6211        0.893459 
        3.94273         11.5155        0.884425 
        3.95845         11.4179        0.875499 
        3.97418         11.3626        0.866694 
        3.98988         11.2218        0.858022 
        4.00554         11.1675        0.849491 
        4.02125         11.0624        0.841052 
        4.03698          10.953        0.832714 
        4.05268         10.8857        0.824508 
        4.06839         10.7889        0.816406 
         4.0841         10.6686        0.808415 
        4.09983         10.5795        0.800519 
        4.11555         10.5218        0.792732 
        4.13124         10.4282        0.785069 
        4.14693         10.3695        0.777501 
        4.16266         10.2481        0.770015 
        4.17839         10.1849        0.762632 
        4.19408         10.1014        0.755362 
        4.20977         10.0167        0.748183 
        4.22551         9.92147         0.74108 
        4.24123         9.86218        0.734076 
        4.25691         9.78162        0.727182 
        4.27259         9.69955        0.720374 
        4.28831         9.61064        0.713639 
        4.30404         9.53332        0.706983 
        4.31974          9.4724        0.700427 
        4.33543          9.3984        0.693957 
        4.35116         9.31228        0.687553 
        4.36688         9.24352        0.681232 
        4.38255         9.16863        0.675014 
        4.39825         9.11309         0.66886 
        4.41398         9.01778         0.66277 
         4.4297         8.93177        0.656762 
        4.44541         8.87252        0.650829 
        4.46111         8.81955        0.644974 
        4.47683         8.75356        0.639187 
        4.49251         8.69872        0.633482 
        4.50819         8.59705        0.627848 
         4.5239         8.53692        0.622275 
        4.53962         8.49553        0.616761 
        4.55535         8.41173        0.611312 
        4.57106         8.34162        0.605937 
        4.58678         8.26976        0.600624 
         4.6025         8.20552        0.595374 
        4.61821         8.13201        0.590187 
        4.63391         8.08284        0.585069 
         4.6496         8.03647        0.580013 
        4.66532         7.96408        0.575009 
        4.68103         7.90753        0.570066 
        4.69673         7.83538        0.565185 
        4.71241         7.77696        0.560367 
        4.72811         7.69592        0.555596 
        4.74384         7.67332        0.550875 
        4.75955         7.60609        0.546216 
        4.77525         7.56443        0.541613 
        4.79096         7.50372        0.537057 
        4.80669         7.42984        0.532551 
         4.8224         7.36728        0.528102 
        4.83809         7.32988        0.523708 
        4.85379         7.26093        0.519362 
         4.8695         7.20962        0.515061 
        4.88521         7.17304         0.51081 
        4.90093         7.09399        0.506607 
        4.91663         7.04358        0.502455 
        4.93234         6.99752        0.498344 
        4.94807         6.93793        0.494277 
        4.96377         6.88688        0.490262 
        4.97943         6.86782        0.486301 
        4.99514         6.78693        0.482373 
        5.01086         6.73053        0.478485 
        5.02654         6.68305         0.47465 
        5.04227         6.65345        0.470845 
          5.058         6.59621         0.46708 
        5.07371         6.55268        0.463364 
        5.08942         6.49852        0.459687 
        5.10513          6.4519         0.45605 
        5.12084            6.41         0.45245 
        5.13656         6.36157         0.44889 
        5.15225         6.30626        0.445374 
        5.16796         6.27738        0.441889 
        5.18369         6.22164        0.438439 
         5.1994         6.16767        0.435032 
        5.21509         6.14186        0.431664 
        5.23079         6.08447        0.428328 
        5.24649         6.05037        0.425029 
        5.26217           6.007        0.421767 
        5.27788         5.95552        0.418535 
        5.29359         5.93285        0.415336 
        5.30933         5.88773        0.412165 
        5.32504         5.84428        0.409033 
        5.34073         5.80358        0.405937 
        5.35646         5.75503        0.402866 
        5.37218          5.7312        0.399827 
        5.38789         5.68515        0.396824 
        5.40357         5.63324        0.393855 
        5.41929         5.60054        0.390909 
        5.43502         5.56829        0.387994 
         5.4507         5.53293        0.385115 
        5.46639         5.48365        0.382264 
        5.48212         5.44954        0.379436 
        5.49786         5.41749        0.376633 
        5.51353         5.36444        0.373872 
        5.52921         5.34929        0.371136 
        5.54495         5.30776        0.368419 
        5.56066         5.27496        0.365732 
        5.57637         5.22969        0.363073 
        5.59207         5.20034        0.360442 
        5.60778         5.16131        0.357836 
        5.62346         5.12318        0.355259 
        5.63916         5.09334        0.352705 
        5.65487         5.05541        0.350175 
         5.6706         5.03635        0.347667 
        5.68633         4.99184        0.345182 
        5.70203         4.96267        0.342726 
        5.71773         4.93189        0.340295 
        5.73344         4.89559        0.337886 
        5.74916         4.85407        0.335498 
        5.76486         4.83967        0.333136 
        5.78054         4.80247        0.330801 
        5.79626         4.76404        0.328481 
          5.812         4.74225        0.326181 
         5.8277          4.7051         0.32391 
        5.84339         4.67563        0.321661 
        5.85911         4.64106        0.319428 
        5.87484         4.62621        0.317217 
        5.89053         4.58872        0.315031 
        5.90623         4.54857        0.312865 
        5.92195         4.52862        0.310715 
        5.93767         4.48694        0.308587 
        5.95336         4.46391        0.306482 
        5.96905         4.44409        0.304397 
        5.98476         4.40935        0.302329 
        6.00048         4.39117        0.300279 
        6.01617         4.35401        0.298251 
        6.03185         4.32253        0.296244 
        6.04756         4.30597         0.29425 
        6.06331          4.2674        0.292271 
        6.07903         4.24604        0.290314 
        6.09473         4.22391        0.288377 
        6.11044           4.182        0.286455 
        6.12616         4.16686        0.284551 
        6.14186         4.13698        0.282667 
        6.15755          4.1089        0.280799 
        6.17326         4.09341        0.278947 
        6.18898         4.06673        0.277111 
        6.20467         4.03502        0.275294 
        6.22036         4.01302        0.273494 
         6.2361         3.99191        0.271705 
         6.2518         3.96043        0.269935 
        6.26748         3.93694        0.268185 
        6.28319         3.91597        0.266445 
        6.29893         3.88785        0.264719 
        6.31463          3.8659        0.263011 
        6.33033         3.84391        0.261319 
        6.34604         3.82431         0.25964 
        6.36177         3.79659        0.257975 
        6.37747         3.78115        0.256327 
