# k  (h/Mpc)    Pcb(k)  (Mpc/h)^3    Pcb_linear(k) (Mpc/h)^3   ShotnoiseSubtracted = true
      0.0200456         16851.3         17193.1 
      0.0350414         11477.2         11902.9 
      0.0492313         8402.95         8509.98 
      0.0637834          7201.3         7042.12 
      0.0800726         5565.68         5439.94 
       0.096163         3798.73         3864.72 
       0.111083         3059.92         3115.02 
       0.126058         2822.63         2767.44 
       0.142273         2402.83         2279.88 
       0.158546         2037.15         1778.09 
        0.17375         1637.72         1523.37 
       0.188953         1593.68         1381.75 
       0.204907         1482.87         1195.55 
       0.220756         1267.46         1001.31 
        0.23588         1126.53         882.012 
         0.2514         978.988          804.41 
       0.267535          963.06         716.888 
       0.283568         870.931         626.655 
       0.299022         818.792         562.212 
       0.314451         776.547         515.716 
       0.330372          713.51         469.046 
       0.346141         659.069         422.729 
       0.361624          634.56         385.148 
       0.377134         587.534         355.289 
       0.392932         563.094         327.403 
       0.408854          544.74         300.307 
       0.424564         509.264         276.737 
       0.440253          499.66         256.861 
       0.455999          471.37         238.859 
       0.471626         448.397         222.048 
        0.48727         430.905         206.784 
       0.502856         418.306         193.329 
       0.518488         413.932         181.112 
       0.534347         386.425         169.618 
       0.550082         369.542         159.125 
       0.565732          367.99         149.665 
       0.581496         345.544         140.955 
       0.597222         340.199         132.914 
       0.612804         330.682         125.536 
       0.628434         318.015         118.708 
       0.644267         309.336         112.335 
       0.660051         301.772         106.451 
       0.675724          297.26         101.019 
       0.691403         287.959         95.9596 
       0.707174         277.964         91.2173 
       0.722871         274.103         86.8132 
        0.73838         270.024          82.746 
       0.754018         262.832         78.9081 
       0.769845         254.381         75.2715 
        0.78569         253.865         71.8607 
       0.801365         244.731         68.6949 
       0.817031         237.062         65.7224 
       0.832809         235.588         62.9075 
       0.848511         228.707         60.2704 
       0.864097         225.485          57.803 
       0.879701         221.857         55.4717 
       0.895507         216.776         53.2417 
       0.911279         209.652         51.1391 
        0.92691         209.899         49.1677 
       0.942635         203.988         47.2895 
       0.958396           201.9         45.5056 
       0.974128         197.687         43.8171 
       0.989692         193.546         42.2309 
        1.00528          191.25         40.7211 
        1.02113          189.16         39.2615 
        1.03692         184.789         37.8789 
        1.05264         181.131         36.5693 
        1.06832         177.785         35.3237 
        1.08405         175.033         34.1329 
        1.09979         172.776         32.9964 
        1.11537         169.526         31.9229 
        1.13105         165.974         30.8908 
        1.14679         166.065         29.9004 
        1.16256         163.267         28.9516 
        1.17828         160.075          28.047 
        1.19395         157.385         27.1842 
         1.2097         156.971         26.3534 
        1.22537         153.432         25.5613 
          1.241         151.837         24.8042 
        1.25666         149.232         24.0759 
        1.27241         146.489         23.3734 
        1.28819         145.018         22.6978 
        1.30392         141.956         22.0509 
        1.31957         141.805         21.4321 
        1.33529         137.849         20.8348 
        1.35108           136.9         20.2578 
        1.36674         135.505         19.7069 
         1.3824         133.573          19.177 
        1.39811         132.649         18.6647 
        1.41389         130.125         18.1693 
        1.42964         127.623         17.6927 
        1.44531         125.741         17.2354 
        1.46101         124.077         16.7934 
        1.47667         122.477         16.3682 
        1.49229         120.917         15.9589 
        1.50793         119.788         15.5631 
        1.52367         118.495         15.1781 
        1.53953         116.072         14.8036 
        1.55526         114.983         14.4448 
        1.57092         113.622         14.0993 
        1.58662         111.927         13.7642 
        1.60235         110.942         13.4395 
        1.61809         108.975          13.125 
        1.63369         107.738         12.8233 
        1.64941         106.794          12.529 
        1.66519         104.992         12.2429 
        1.68085         104.424         11.9677 
        1.69652          101.92         11.7009 
        1.71228         101.686         11.4408 
        1.72806         100.477         11.1883 
        1.74368         99.2861         10.9459 
        1.75933         97.9035         10.7103 
        1.77505         96.8023         10.4805 
        1.79081         95.5276          10.257 
         1.8065         94.3075          10.041 
        1.82218         92.7315         9.83136 
        1.83797         91.3654         9.62629 
        1.85367         90.8119          9.4282 
        1.86928         89.5866         9.23686 
        1.88497         88.1953         9.04979 
        1.90073         87.5655          8.8672 
        1.91647         86.5098         8.68981 
        1.93218         85.4825         8.51764 
        1.94787         84.5618         8.35039 
        1.96363         83.3197         8.18695 
        1.97935          82.132         8.02823 
        1.99499         81.6227          7.8746 
        2.01064         80.6169         7.72476 
         2.0264          79.332         7.57788 
        2.04216         78.6175         7.43489 
        2.05781          77.447         7.29648 
        2.07353         76.2463          7.1611 
        2.08928         75.3279         7.02885 
        2.10499          74.303         6.90029 
        2.12065         74.0278         6.77533 
        2.13633         73.1847         6.65335 
        2.15211         72.3993         6.53358 
        2.16785         71.2252         6.41709 
        2.18349         70.4322         6.30417 
        2.19916         69.6501         6.19372 
        2.21489         68.8723         6.08555 
        2.23063         68.1391         5.97988 
         2.2463         67.1404          5.8772 
        2.26194         67.0109         5.77718 
        2.27765         66.0343         5.67897 
        2.29341         65.0887         5.58278 
        2.30914         64.3302         5.48902 
        2.32486         63.6239         5.39746 
        2.34061         62.8852         5.30783 
        2.35635          62.105         5.22031 
        2.37203         61.2226         5.13507 
        2.38768         60.5521          5.0519 
        2.40339         60.0576         4.97027 
        2.41914         59.4306         4.89025 
        2.43483         59.1345         4.81227 
         2.4505          58.369         4.73612 
        2.46622         57.5221         4.66135 
        2.48195         56.9816         4.58819 
        2.49759         56.1272         4.51698 
        2.51328         55.5903          4.4471 
        2.52906         55.1332         4.37826 
        2.54479         54.5076         4.31112 
        2.56049         53.7007         4.24552 
        2.57618         53.3292         4.18134 
        2.59189          52.512         4.11838 
        2.60758         52.2788         4.05682 
        2.62325         51.5065         3.99659 
        2.63898         51.1228         3.93737 
        2.65468         50.6652         3.87947 
        2.67044         49.8284         3.82248 
        2.68618         49.4328         3.76677 
        2.70184         48.8674         3.71239 
        2.71755         48.5158         3.65894 
        2.73329         47.8155         3.60647 
        2.74897         47.4149         3.55519 
        2.76462         46.8174         3.50502 
        2.78034         46.4524          3.4556 
        2.79607         45.8956         3.40709 
        2.81179         45.3707         3.35956 
        2.82749         44.7581         3.31299 
        2.84321         44.4471         3.26725 
        2.85893         43.8823         3.22238 
        2.87462         43.4024         3.17843 
        2.89033         42.9384         3.13526 
        2.90605          42.505         3.09285 
        2.92176         42.1116         3.05124 
        2.93747         41.6966         3.01042 
        2.95318          41.198         2.97034 
        2.96891         40.6761         2.93097 
        2.98456         40.4513         2.89248 
        3.00023         39.9066         2.85462 
        3.01596         39.6475         2.81733 
        3.03164         39.1412          2.7808 
        3.04738          38.921         2.74482 
         3.0631         38.4372         2.70948 
        3.07883         37.9927         2.67476 
        3.09456         37.5712         2.64065 
        3.11026         37.2163         2.60719 
        3.12596         36.9377         2.57431 
        3.14163         36.4408         2.54207 
        3.15734         35.9358         2.51031 
        3.17308         35.8762         2.47901 
        3.18879         35.6351         2.44833 
        3.20447         35.0538         2.41822 
         3.2202         34.6755         2.38851 
         3.2359         34.3589         2.35936 
        3.25157         34.1157         2.33076 
        3.26729         33.6138         2.30254 
        3.28304         33.3016         2.27474 
        3.29877          33.063         2.24743 
        3.31446         32.7943         2.22063 
        3.33014         32.4004         2.19429 
        3.34585         32.1566         2.16833 
        3.36158         31.8326         2.14275 
        3.37727         31.4421         2.11767 
        3.39294         31.2156           2.093 
        3.40867         30.8868         2.06865 
        3.42439         30.6196         2.04469 
        3.44008         30.4363         2.02115 
        3.45578         29.9176         1.99797 
        3.47153         29.6961          1.9751 
        3.48724         29.4435         1.95263 
        3.50292         29.1403         1.93056 
        3.51859          28.878         1.90884 
        3.53431         28.7134         1.88738 
        3.55007         28.3608          1.8662 
        3.56577         28.1496         1.84543 
        3.58146         27.8775         1.82498 
        3.59719         27.5672          1.8048 
        3.61292         27.3702         1.78493 
        3.62859          27.049         1.76542 
        3.64429         26.7877         1.74618 
        3.66003         26.4518         1.72716 
        3.67578         26.2896         1.70843 
        3.69146         26.0958         1.69004 
        3.70712         25.8483         1.67196 
        3.72284         25.7191         1.65408 
        3.73853         25.3693         1.63649 
        3.75422         25.1517         1.61915 
        3.76993         24.9644         1.60204 
        3.78564         24.7015         1.58519 
        3.80137         24.5224         1.56855 
        3.81707         24.3102         1.55218 
        3.83279         24.0794         1.53603 
        3.84853         23.7633         1.52009 
        3.86424         23.5867          1.5044 
        3.87992         23.3803         1.48896 
        3.89561          23.168         1.47373 
        3.91134         22.9814         1.45869 
        3.92704         22.7877         1.44387 
        3.94273         22.5613         1.42927 
        3.95845         22.2725         1.41485 
        3.97418          22.221         1.40062 
        3.98988          21.941          1.3866 
        4.00554         21.7356         1.37282 
        4.02125         21.6296         1.35918 
        4.03698         21.3864          1.3457 
        4.05268         21.1701         1.33244 
        4.06839         21.0042         1.31935 
         4.0841         20.8727         1.30643 
        4.09983         20.6964         1.29367 
        4.11555          20.525         1.28109 
        4.13124         20.2241         1.26871 
        4.14693         20.0787         1.25648 
        4.16266           19.88         1.24438 
        4.17839         19.7345         1.23245 
        4.19408         19.5572          1.2207 
        4.20977         19.4419          1.2091 
        4.22551         19.2388         1.19762 
        4.24123         19.0997          1.1863 
        4.25691         18.8889         1.17516 
        4.27259         18.7564         1.16416 
        4.28831         18.5864         1.15327 
        4.30404         18.4033         1.14252 
        4.31974          18.298         1.13192 
        4.33543         18.1316         1.12146 
        4.35116         17.9923         1.11112 
        4.36688         17.8096          1.1009 
        4.38255          17.686         1.09085 
        4.39825         17.5813         1.08091 
        4.41398         17.4019         1.07107 
         4.4297         17.2363         1.06136 
        4.44541         17.1125         1.05177 
        4.46111         16.9835         1.04231 
        4.47683         16.8259         1.03295 
        4.49251         16.7219         1.02374 
        4.50819         16.5551         1.01463 
         4.5239         16.4273         1.00562 
        4.53962         16.2668        0.996714 
        4.55535         16.1308        0.987908 
        4.57106         16.0515         0.97922 
        4.58678         15.9008        0.970635 
         4.6025         15.7679         0.96215 
        4.61821         15.6261        0.953768 
        4.63391         15.5075        0.945497 
         4.6496         15.3652        0.937326 
        4.66532          15.245        0.929239 
        4.68103         15.1472        0.921251 
        4.69673         15.0224        0.913364 
        4.71241         14.9179        0.905577 
        4.72811         14.7587        0.897868 
        4.74384         14.6556        0.890238 
        4.75955         14.5577        0.882709 
        4.77525          14.492         0.87527 
        4.79096         14.3185        0.867907 
        4.80669         14.2104        0.860626 
         4.8224         14.0929        0.853436 
        4.83809         13.9895        0.846336 
        4.85379         13.8564        0.839311 
         4.8695         13.7689        0.832361 
        4.88521         13.6836        0.825492 
        4.90093         13.5424        0.818699 
        4.91663          13.447        0.811989 
        4.93234         13.3706        0.805346 
        4.94807         13.2528        0.798773 
        4.96377         13.1374        0.792286 
        4.97943         13.0449        0.785883 
        4.99514         12.9276        0.779535 
        5.01086         12.8674        0.773253 
        5.02654         12.7282        0.767055 
        5.04227         12.6823        0.760906 
          5.058         12.5289        0.754822 
        5.07371         12.4721        0.748816 
        5.08942         12.3509        0.742875 
        5.10513          12.266        0.736997 
        5.12084         12.1834        0.731179 
        5.13656         12.0706        0.725426 
        5.15225         11.9985        0.719744 
        5.16796         11.9146        0.714113 
        5.18369           11.82        0.708537 
         5.1994         11.7372        0.703031 
        5.21509         11.6452        0.697588 
        5.23079         11.5452        0.692196 
        5.24649         11.4646        0.686865 
        5.26217         11.3777        0.681594 
        5.27788         11.2829        0.676371 
        5.29359         11.2241        0.671201 
        5.30933         11.1466        0.666077 
        5.32504         11.0768        0.661016 
        5.34073         10.9522        0.656012 
        5.35646         10.8922         0.65105 
        5.37218         10.7915        0.646138 
        5.38789         10.7207        0.641285 
        5.40357         10.6594        0.636487 
        5.41929         10.5683        0.631727 
        5.43502         10.5005        0.627015 
         5.4507         10.4243        0.622362 
        5.46639         10.3654        0.617756 
        5.48212         10.2924        0.613186 
        5.49786         10.2154        0.608656 
        5.51353         10.1313        0.604194 
        5.52921         10.0667        0.599772 
        5.54495         9.98102        0.595382 
        5.56066         9.89996         0.59104 
        5.57637         9.84473        0.586741 
        5.59207         9.75873         0.58249 
        5.60778         9.69617        0.578278 
        5.62346         9.64515        0.574114 
        5.63916         9.56205        0.569987 
        5.65487         9.50087        0.565898 
         5.6706         9.42137        0.561845 
        5.68633         9.36023        0.557829 
        5.70203         9.29679        0.553861 
        5.71773          9.2514        0.549932 
        5.73344         9.17037        0.546039 
        5.74916         9.11426         0.54218 
        5.76486          9.0352        0.538363 
        5.78054         8.98297        0.534589 
        5.79626         8.91294         0.53084 
          5.812         8.86595        0.527124 
         5.8277         8.79007        0.523453 
        5.84339         8.75016        0.519818 
        5.85911         8.66939         0.51621 
        5.87484         8.61327        0.512637 
        5.89053         8.54922        0.509104 
        5.90623         8.48652        0.505604 
        5.92195         8.44424        0.502129 
        5.93767         8.38043         0.49869 
        5.95336         8.32782        0.495288 
        5.96905         8.26742        0.491919 
        5.98476         8.21916        0.488577 
        6.00048         8.17773        0.485264 
        6.01617         8.10702        0.481986 
        6.03185         8.05022        0.478743 
        6.04756         8.00042        0.475522 
        6.06331         7.95103        0.472323 
        6.07903         7.90589         0.46916 
        6.09473         7.84214        0.466029 
        6.11044          7.7918        0.462924 
        6.12616         7.73813        0.459848 
        6.14186         7.68239        0.456802 
        6.15755         7.61695        0.453784 
        6.17326         7.57637        0.450791 
        6.18898           7.531        0.447824 
        6.20467         7.48214        0.444888 
        6.22036         7.43592        0.441979 
         6.2361         7.38203        0.439088 
         6.2518         7.32321        0.436227 
        6.26748         7.29125        0.433398 
        6.28319         7.23952        0.430587 
        6.29893         7.18841        0.427797 
        6.31463         7.14276        0.425037 
        6.33033         7.09775        0.422303 
        6.34604         7.04944         0.41959 
        6.36177         7.01661        0.416899 
        6.37747         6.95669        0.414236 
