# k  (h/Mpc)    Pcb(k)  (Mpc/h)^3    Pcb_linear(k) (Mpc/h)^3   ShotnoiseSubtracted = true
      0.0200456         20503.9         20948.9 
      0.0350414         13911.4         14503.1 
      0.0492313         10199.6           10369 
      0.0637834         8778.09         8580.47 
      0.0800726         6781.26          6628.3 
       0.096163         4620.34         4708.98 
       0.111083         3734.64          3795.5 
       0.126058         3442.12         3371.99 
       0.142273         2936.33         2777.92 
       0.158546         2527.11         2166.52 
        0.17375         2029.52         1856.15 
       0.188953         1981.81          1683.6 
       0.204907         1846.78         1456.72 
       0.220756         1588.58         1220.04 
        0.23588            1419         1074.69 
         0.2514         1232.73         980.134 
       0.267535         1222.57         873.492 
       0.283568         1106.27         763.548 
       0.299022         1044.64         685.027 
       0.314451         993.757         628.374 
       0.330372         912.006          571.51 
       0.346141         858.814         515.074 
       0.361624         826.291         469.283 
       0.377134         767.121         432.902 
       0.392932         735.667         398.924 
       0.408854         718.514          365.91 
       0.424564         665.782          337.19 
       0.440253         655.589         312.972 
       0.455999         624.431         291.038 
       0.471626         600.463         270.554 
        0.48727         574.955         251.956 
       0.502856         559.212         235.562 
       0.518488         552.827         220.676 
       0.534347          516.77         206.671 
       0.550082         499.996         193.886 
       0.565732         499.086         182.359 
       0.581496         468.793         171.747 
       0.597222         461.454         161.949 
       0.612804          450.92         152.959 
       0.628434         436.433          144.64 
       0.644267         425.299         136.875 
       0.660051         412.109         129.705 
       0.675724         407.869         123.086 
       0.691403         394.314         116.922 
       0.707174         381.224         111.144 
       0.722871         376.733         105.778 
        0.73838         371.057         100.822 
       0.754018         361.127         96.1456 
       0.769845         353.103         91.7146 
        0.78569         349.283         87.5587 
       0.801365         339.276         83.7013 
       0.817031         328.495         80.0795 
       0.832809         326.908         76.6497 
       0.848511         318.496         73.4365 
       0.864097         311.433         70.4301 
       0.879701         307.116         67.5895 
       0.895507         302.762         64.8723 
       0.911279         293.146         62.3105 
        0.92691         291.156         59.9084 
       0.942635         283.715         57.6199 
       0.958396         278.335         55.4463 
       0.974128         273.509         53.3889 
       0.989692         270.319         51.4563 
        1.00528         264.955         49.6166 
        1.02113         262.596         47.8381 
        1.03692         256.347         46.1535 
        1.05264         253.765         44.5578 
        1.06832         247.628         43.0402 
        1.08405         243.994         41.5892 
        1.09979         239.197         40.2044 
        1.11537         236.391         38.8964 
        1.13105         230.674         37.6389 
        1.14679          228.23         36.4322 
        1.16256         225.009          35.276 
        1.17828         222.225         34.1739 
        1.19395         217.229         33.1227 
         1.2097         216.752         32.1103 
        1.22537          212.17         31.1452 
          1.241         210.716         30.2227 
        1.25666         206.749         29.3353 
        1.27241         203.662         28.4794 
        1.28819         201.248         27.6562 
        1.30392         196.431         26.8679 
        1.31957         196.958         26.1139 
        1.33529         192.534         25.3861 
        1.35108         188.172         24.6832 
        1.36674         187.366         24.0119 
         1.3824         186.156         23.3662 
        1.39811         183.564         22.7421 
        1.41389          180.04         22.1384 
        1.42964         178.131         21.5576 
        1.44531         175.802         21.0005 
        1.46101          173.19          20.462 
        1.47667         170.363         19.9439 
        1.49229         169.161         19.4451 
        1.50793          165.68         18.9628 
        1.52367         164.723         18.4938 
        1.53953         162.099         18.0375 
        1.55526         158.982         17.6002 
        1.57092         157.836         17.1793 
        1.58662         156.206          16.771 
        1.60235         153.409         16.3753 
        1.61809         152.691         15.9921 
        1.63369         149.427         15.6246 
        1.64941         146.738          15.266 
        1.66519         145.849         14.9174 
        1.68085         144.411         14.5821 
        1.69652          142.58          14.257 
        1.71228         139.866           13.94 
        1.72806         138.468         13.6324 
        1.74368         137.447         13.3371 
        1.75933         135.019           13.05 
        1.77505         133.791         12.7699 
        1.79081          132.69         12.4976 
         1.8065         131.061         12.2344 
        1.82218         128.658          11.979 
        1.83797         127.524         11.7292 
        1.85367         126.147         11.4878 
        1.86928         123.855         11.2547 
        1.88497         122.274         11.0267 
        1.90073         120.865         10.8042 
        1.91647         119.538         10.5881 
        1.93218         118.243         10.3783 
        1.94787         116.435         10.1745 
        1.96363         115.211          9.9754 
        1.97935         113.474         9.78199 
        1.99499         112.149         9.59481 
        2.01064         110.828         9.41224 
         2.0264         109.485         9.23327 
        2.04216         108.302         9.05904 
        2.05781         107.434          8.8904 
        2.07353          106.44         8.72544 
        2.08928         104.029          8.5643 
        2.10499         102.981         8.40766 
        2.12065          101.81          8.2554 
        2.13633         101.082         8.10677 
        2.15211         99.3444         7.96084 
        2.16785         98.0335         7.81891 
        2.18349         97.2725         7.68131 
        2.19916         96.1124         7.54674 
        2.21489         94.9918         7.41494 
        2.23063         93.6681         7.28619 
         2.2463          92.618         7.16108 
        2.26194         91.6492          7.0392 
        2.27765         90.4497         6.91954 
        2.29341         89.7651         6.80234 
        2.30914         88.5763         6.68809 
        2.32486         87.8611         6.57653 
        2.34061          86.707         6.46732 
        2.35635          85.131         6.36069 
        2.37203         84.2054         6.25682 
        2.38768         83.4945         6.15549 
        2.40339         82.5427         6.05602 
        2.41914         81.3918         5.95852 
        2.43483         80.7243         5.86351 
         2.4505         79.6818         5.77072 
        2.46622         78.5712         5.67962 
        2.48195         77.9065         5.59048 
        2.49759         76.8734         5.50372 
        2.51328         76.4585         5.41857 
        2.52906         75.2771         5.33469 
        2.54479         74.5467         5.25288 
        2.56049         73.7099         5.17295 
        2.57618         73.1099         5.09475 
        2.59189           72.05         5.01804 
        2.60758         71.1873         4.94303 
        2.62325         70.4078         4.86964 
        2.63898         69.5666         4.79749 
        2.65468         68.9007         4.72694 
        2.67044         68.1471          4.6575 
        2.68618         67.5673         4.58962 
        2.70184         67.0929         4.52336 
        2.71755         66.0642         4.45824 
        2.73329         65.4644          4.3943 
        2.74897         64.8252         4.33182 
        2.76462         64.0626         4.27069 
        2.78034         63.3676         4.21048 
        2.79607         62.5378         4.15137 
        2.81179         62.0086         4.09346 
        2.82749         61.1863         4.03671 
        2.84321         60.8062         3.98098 
        2.85893         59.9368         3.92631 
        2.87462         59.3335         3.87276 
        2.89033         58.7191         3.82016 
        2.90605         57.9895         3.76848 
        2.92176         57.5608         3.71779 
        2.93747         57.1827         3.66805 
        2.95318         56.3947         3.61921 
        2.96891         55.7355         3.57124 
        2.98456         55.1542         3.52434 
        3.00023         54.3578         3.47822 
        3.01596         53.8623         3.43277 
        3.03164         53.3591         3.38827 
        3.04738         52.8316         3.34442 
         3.0631         52.2141         3.30136 
        3.07883         51.7964         3.25906 
        3.09456         51.1964          3.2175 
        3.11026          50.643         3.17673 
        3.12596          50.035         3.13667 
        3.14163         49.7109         3.09739 
        3.15734         49.2045         3.05869 
        3.17308         48.7358         3.02055 
        3.18879         48.3582         2.98317 
        3.20447         47.4739         2.94648 
         3.2202         47.2927         2.91028 
         3.2359         46.8271         2.87476 
        3.25157         46.3475         2.83991 
        3.26729         45.8583         2.80553 
        3.28304          45.467         2.77166 
        3.29877         45.0015         2.73838 
        3.31446         44.2669         2.70572 
        3.33014         44.0633         2.67363 
        3.34585          43.808           2.642 
        3.36158         43.3751         2.61084 
        3.37727          42.859         2.58027 
        3.39294         42.4711         2.55022 
        3.40867         41.9934         2.52054 
        3.42439         41.5411         2.49135 
        3.44008         41.1017         2.46268 
        3.45578         40.7404         2.43443 
        3.47153         40.4377         2.40656 
        3.48724         40.0125         2.37918 
        3.50292         39.6747         2.35229 
        3.51859         39.2133         2.32582 
        3.53431          38.829         2.29968 
        3.55007         38.4163         2.27388 
        3.56577         38.0824         2.24857 
        3.58146         37.8261         2.22365 
        3.59719         37.3619         2.19906 
        3.61292         37.0686         2.17484 
        3.62859         36.7055         2.15108 
        3.64429         36.4311         2.12763 
        3.66003         36.0369         2.10446 
        3.67578         35.5691         2.08163 
        3.69146         35.4216         2.05923 
        3.70712         35.0523         2.03721 
        3.72284         34.7075         2.01542 
        3.73853         34.4174         1.99398 
        3.75422         34.0446         1.97285 
        3.76993         33.7884         1.95201 
        3.78564         33.4888         1.93147 
        3.80137          33.102          1.9112 
        3.81707         32.8427         1.89126 
        3.83279         32.5656         1.87158 
        3.84853         32.3156         1.85216 
        3.86424         31.9893         1.83304 
        3.87992         31.7395         1.81423 
        3.89561         31.4794         1.79567 
        3.91134         31.1109         1.77734 
        3.92704         30.9083         1.75928 
        3.94273         30.4909         1.74149 
        3.95845         30.3298         1.72392 
        3.97418         30.0547         1.70658 
        3.98988         29.7807          1.6895 
        4.00554         29.4643         1.67271 
        4.02125         29.2857         1.65609 
        4.03698         29.0706         1.63967 
        4.05268         28.8281         1.62351 
        4.06839         28.5873         1.60756 
         4.0841         28.2863         1.59182 
        4.09983          27.974         1.57628 
        4.11555         27.7483         1.56094 
        4.13124         27.5377         1.54586 
        4.14693         27.3637         1.53095 
        4.16266         27.0677         1.51621 
        4.17839          26.779         1.50167 
        4.19408         26.4869         1.48736 
        4.20977         26.3058         1.47322 
        4.22551         26.1584         1.45924 
        4.24123         25.9313         1.44545 
        4.25691         25.7062         1.43187 
        4.27259         25.5888         1.41847 
        4.28831          25.235          1.4052 
        4.30404         25.0652          1.3921 
        4.31974         24.8689         1.37919 
        4.33543         24.6036         1.36645 
        4.35116         24.4813         1.35384 
        4.36688         24.2668         1.34139 
        4.38255         24.0403         1.32915 
        4.39825         23.8515         1.31703 
        4.41398         23.6034         1.30504 
         4.4297         23.3655         1.29321 
        4.44541         23.2423         1.28153 
        4.46111         23.0631            1.27 
        4.47683         22.8479          1.2586 
        4.49251         22.7187         1.24737 
        4.50819         22.4464         1.23628 
         4.5239          22.328          1.2253 
        4.53962         22.1279         1.21445 
        4.55535         22.0179         1.20372 
        4.57106         21.7493         1.19313 
        4.58678         21.5961         1.18267 
         4.6025         21.3943         1.17233 
        4.61821         21.2897         1.16212 
        4.63391         21.0687         1.15204 
         4.6496         20.8874         1.14209 
        4.66532         20.7627         1.13223 
        4.68103         20.5483          1.1225 
        4.69673         20.3761         1.11289 
        4.71241         20.2057          1.1034 
        4.72811         20.0427         1.09401 
        4.74384         19.9039         1.08471 
        4.75955         19.7757         1.07554 
        4.77525          19.556         1.06647 
        4.79096          19.482          1.0575 
        4.80669          19.261         1.04863 
         4.8224         19.1186         1.03987 
        4.83809         18.9613         1.03122 
        4.85379         18.8008         1.02266 
         4.8695         18.6874         1.01419 
        4.88521         18.5532         1.00582 
        4.90093         18.3756        0.997544 
        4.91663         18.2449        0.989368 
        4.93234         18.1122        0.981274 
        4.94807         17.9617        0.973265 
        4.96377          17.805        0.965361 
        4.97943         17.7256         0.95756 
        4.99514         17.5142        0.949825 
        5.01086         17.4029         0.94217 
        5.02654         17.2841        0.934618 
        5.04227         17.1755        0.927126 
          5.058         17.0578        0.919713 
        5.07371         16.8567        0.912395 
        5.08942         16.7619        0.905156 
        5.10513         16.6418        0.897994 
        5.12084         16.5035        0.890906 
        5.13656         16.3841        0.883895 
        5.15225         16.2706        0.876972 
        5.16796         16.1282        0.870111 
        5.18369         16.0231        0.863317 
         5.1994         15.9026        0.856608 
        5.21509         15.7762        0.849976 
        5.23079          15.665        0.843407 
        5.24649         15.5569        0.836911 
        5.26217          15.436        0.830488 
        5.27788         15.3269        0.824124 
        5.29359         15.2025        0.817825 
        5.30933           15.07        0.811582 
        5.32504         14.9644        0.805415 
        5.34073         14.8578        0.799318 
        5.35646         14.7651        0.793272 
        5.37218         14.6502        0.787287 
        5.38789         14.5351        0.781374 
        5.40357         14.4313        0.775527 
        5.41929         14.3226        0.769728 
        5.43502         14.1641        0.763987 
         5.4507         14.0927        0.758318 
        5.46639         13.9979        0.752705 
        5.48212          13.902        0.747136 
        5.49786         13.8366        0.741617 
        5.51353         13.6958         0.73618 
        5.52921          13.627        0.730793 
        5.54495         13.5066        0.725443 
        5.56066         13.3969        0.720152 
        5.57637         13.3047        0.714915 
        5.59207         13.2149        0.709735 
        5.60778         13.1288        0.704603 
        5.62346         13.0464        0.699529 
        5.63916         12.9427        0.694501 
        5.65487         12.8489        0.689519 
         5.6706         12.7401         0.68458 
        5.68633         12.6625        0.679687 
        5.70203         12.6038        0.674852 
        5.71773         12.4796        0.670065 
        5.73344         12.3975        0.665321 
        5.74916         12.3286        0.660619 
        5.76486         12.2113        0.655969 
        5.78054         12.1417         0.65137 
        5.79626          12.041        0.646802 
          5.812         11.9888        0.642274 
         5.8277         11.8969        0.637802 
        5.84339          11.791        0.633372 
        5.85911         11.7227        0.628976 
        5.87484         11.6419        0.624622 
        5.89053         11.5517        0.620318 
        5.90623         11.4777        0.616053 
        5.92195          11.403         0.61182 
        5.93767         11.3356        0.607629 
        5.95336         11.2568        0.603484 
        5.96905         11.1738        0.599379 
        5.98476         11.0982        0.595306 
        6.00048         11.0126         0.59127 
        6.01617         10.9524        0.587276 
        6.03185          10.885        0.583325 
        6.04756         10.7787        0.579399 
        6.06331         10.7243        0.575502 
        6.07903         10.6482        0.571648 
        6.09473         10.5693        0.567834 
        6.11044          10.493         0.56405 
        6.12616         10.4333        0.560302 
        6.14186         10.3652        0.556591 
        6.15755         10.2862        0.552913 
        6.17326          10.224        0.549267 
        6.18898         10.1648        0.545651 
        6.20467         10.0943        0.542074 
        6.22036         10.0026        0.538529 
         6.2361         9.94231        0.535007 
         6.2518         9.88259        0.531521 
        6.26748         9.82536        0.528074 
        6.28319         9.75235        0.524648 
        6.29893         9.69764         0.52125 
        6.31463         9.62509        0.517887 
        6.33033         9.56915        0.514555 
        6.34604         9.49292         0.51125 
        6.36177         9.44691         0.50797 
        6.37747         9.38887        0.504725 
