# k  (h/Mpc)    Pcb(k)  (Mpc/h)^3    Pcb_linear(k) (Mpc/h)^3   ShotnoiseSubtracted = true
      0.0200456         14059.6         14267.8 
      0.0350414           10186         9877.72 
      0.0492313         6992.83         7062.06 
      0.0637834         5624.67         5843.95 
      0.0800726         4324.82         4514.37 
       0.096163         3354.99         3207.17 
       0.111083          2743.1         2585.02 
       0.126058         2284.74         2296.58 
       0.142273         1938.71         1891.97 
       0.158546         1577.77         1475.56 
        0.17375         1394.15         1264.18 
       0.188953         1297.89         1146.66 
       0.204907          1097.4         992.133 
       0.220756         980.367          830.94 
        0.23588         874.568         731.943 
         0.2514         782.596         667.545 
       0.267535         755.892         594.914 
       0.283568         659.623         520.034 
       0.299022         629.123         466.555 
       0.314451         639.401          427.97 
       0.330372         548.001         389.241 
       0.346141          506.26         350.804 
       0.361624         483.434         319.617 
       0.377134         454.047         294.839 
       0.392932         438.041         271.697 
       0.408854         416.916         249.212 
       0.424564         403.253         229.652 
       0.440253         365.258         213.158 
       0.455999         349.186         198.219 
       0.471626         351.532         184.268 
        0.48727         332.113         171.601 
       0.502856         306.249         160.435 
       0.518488         306.414         150.297 
       0.534347         285.409         140.758 
       0.550082         275.662         132.051 
       0.565732         274.183           124.2 
       0.581496         261.119         116.973 
       0.597222         253.664           110.3 
       0.612804         246.457         104.176 
       0.628434         237.489         98.5104 
       0.644267         227.091         93.2223 
       0.660051         223.554         88.3389 
       0.675724         220.111         83.8311 
       0.691403         214.612         79.6327 
       0.707174         206.602         75.6972 
       0.722871         203.248         72.0425 
        0.73838         201.328         68.6673 
       0.754018         191.373         65.4824 
       0.769845         191.262         62.4646 
        0.78569          185.83         59.6341 
       0.801365         180.332         57.0069 
       0.817031         177.139         54.5402 
       0.832809         173.689         52.2042 
       0.848511         169.316         50.0158 
       0.864097         165.289         47.9682 
       0.879701         164.308         46.0335 
       0.895507         160.496         44.1829 
       0.911279          155.81         42.4381 
        0.92691         153.271         40.8022 
       0.942635         151.378         39.2435 
       0.958396         148.438         37.7631 
       0.974128         145.683         36.3619 
       0.989692         141.116         35.0456 
        1.00528         140.403         33.7927 
        1.02113         137.178         32.5814 
        1.03692         135.176          31.434 
        1.05264         133.257         30.3472 
        1.06832         131.445         29.3136 
        1.08405         128.578         28.3254 
        1.09979         127.686         27.3822 
        1.11537         124.966         26.4914 
        1.13105         123.313         25.6349 
        1.14679         121.512          24.813 
        1.16256         119.172         24.0256 
        1.17828         117.959          23.275 
        1.19395         115.317          22.559 
         1.2097         114.194         21.8695 
        1.22537         112.633         21.2122 
          1.241         110.805         20.5839 
        1.25666         108.535         19.9795 
        1.27241         106.377         19.3966 
        1.28819         105.837         18.8359 
        1.30392         104.132         18.2991 
        1.31957         102.226         17.7856 
        1.33529          101.04         17.2899 
        1.35108         100.053         16.8111 
        1.36674         98.2154         16.3539 
         1.3824         97.7547         15.9141 
        1.39811         95.4962         15.4891 
        1.41389         94.5396         15.0779 
        1.42964         92.6037         14.6824 
        1.44531         91.9218         14.3029 
        1.46101          90.428         13.9361 
        1.47667         89.9958         13.5833 
        1.49229         88.9592         13.2436 
        1.50793         87.2168         12.9151 
        1.52367         86.3131         12.5957 
        1.53953         85.4526         12.2849 
        1.55526         84.0661         11.9871 
        1.57092         83.5797         11.7004 
        1.58662          82.406         11.4223 
        1.60235         81.1414         11.1528 
        1.61809         80.2971         10.8918 
        1.63369         79.0062         10.6415 
        1.64941         78.9729         10.3973 
        1.66519         77.4023         10.1599 
        1.68085         76.1845         9.93151 
        1.69652         75.1093          9.7101 
        1.71228         74.2415         9.49419 
        1.72806         73.8953         9.28466 
        1.74368         72.5475         9.08356 
        1.75933         71.9625           8.888 
        1.77505          71.295         8.69729 
        1.79081         69.9745         8.51183 
         1.8065           69.55         8.33256 
        1.82218         68.3927         8.15862 
        1.83797         67.9581         7.98844 
        1.85367         66.7837         7.82405 
        1.86928          66.169         7.66527 
        1.88497         65.5243         7.51003 
        1.90073         64.7696         7.35851 
        1.91647         63.8674          7.2113 
        1.93218          63.126         7.06842 
        1.94787         62.3263         6.92962 
        1.96363         61.6179           6.794 
        1.97935         61.0832         6.66228 
        1.99499         60.3549         6.53479 
        2.01064         59.6314         6.41045 
         2.0264          58.963         6.28855 
        2.04216         58.1887         6.16989 
        2.05781          57.564         6.05503 
        2.07353         56.9704         5.94268 
        2.08928         56.2677         5.83293 
        2.10499         55.6555         5.72625 
        2.12065         55.1629         5.62255 
        2.13633         54.6425         5.52132 
        2.15211         53.8658         5.42193 
        2.16785         53.0222         5.32526 
        2.18349         52.5677         5.23155 
        2.19916         52.0144          5.1399 
        2.21489         51.4799         5.05013 
        2.23063         50.8527         4.96245 
         2.2463         50.3845         4.87723 
        2.26194          50.089         4.79423 
        2.27765         49.2719         4.71273 
        2.29341         48.7044         4.63291 
        2.30914         48.0431          4.5551 
        2.32486         47.5668         4.47911 
        2.34061         47.2552         4.40473 
        2.35635         46.5287         4.33211 
        2.37203         45.9762         4.26137 
        2.38768          45.731         4.19235 
        2.40339         45.2139         4.12461 
        2.41914         44.6479          4.0582 
        2.43483         44.1185         3.99349 
         2.4505         43.8589          3.9303 
        2.46622         43.3237         3.86825 
        2.48195         42.7404         3.80754 
        2.49759         42.2631         3.74845 
        2.51328         41.9538         3.69046 
        2.52906         41.4574         3.63332 
        2.54479         41.1521         3.57761 
        2.56049         40.3146         3.52317 
        2.57618          40.131         3.46991 
        2.59189         39.7999         3.41767 
        2.60758         39.0974         3.36658 
        2.62325          39.006         3.31659 
        2.63898         38.5687         3.26745 
        2.65468         38.1393          3.2194 
        2.67044         37.8854         3.17211 
        2.68618         37.4578         3.12588 
        2.70184         36.8341         3.08075 
        2.71755         36.5948          3.0364 
        2.73329         36.1146         2.99285 
        2.74897         35.9179         2.95029 
        2.76462         35.3913         2.90866 
        2.78034         35.1104         2.86765 
        2.79607         34.6646          2.8274 
        2.81179         34.3397         2.78795 
        2.82749         33.9949         2.74931 
        2.84321         33.6076         2.71135 
        2.85893         33.2328         2.67411 
        2.87462         32.8963         2.63764 
        2.89033         32.6946         2.60182 
        2.90605          32.259         2.56662 
        2.92176         32.0877          2.5321 
        2.93747         31.8158         2.49822 
        2.95318         31.4354         2.46496 
        2.96891         31.0259         2.43228 
        2.98456          30.871         2.40034 
        3.00023         30.5296         2.36893 
        3.01596         30.1881         2.33798 
        3.03164         29.8361         2.30767 
        3.04738         29.6103          2.2778 
         3.0631         29.4444         2.24848 
        3.07883         28.9778         2.21967 
        3.09456         28.6439         2.19136 
        3.11026         28.3856         2.16359 
        3.12596         28.1169         2.13631 
        3.14163         27.8643         2.10956 
        3.15734         27.6087          2.0832 
        3.17308         27.2964         2.05722 
        3.18879         27.0227         2.03176 
        3.20447         26.7864         2.00677 
         3.2202         26.5364         1.98212 
         3.2359         26.2232         1.95793 
        3.25157         26.0849         1.93419 
        3.26729         25.8119         1.91078 
        3.28304         25.4152         1.88771 
        3.29877         25.1933         1.86504 
        3.31446         24.9864          1.8428 
        3.33014         24.7741         1.82094 
        3.34585         24.5348          1.7994 
        3.36158         24.3556         1.77818 
        3.37727         24.0513         1.75736 
        3.39294         23.8369         1.73689 
        3.40867         23.6131         1.71668 
        3.42439         23.4393          1.6968 
        3.44008         23.1845         1.67727 
        3.45578         23.0486         1.65803 
        3.47153         22.7244         1.63905 
        3.48724         22.5617          1.6204 
        3.50292         22.3412         1.60209 
        3.51859         22.1306         1.58406 
        3.53431         21.9166         1.56626 
        3.55007         21.7114         1.54868 
        3.56577         21.5166         1.53144 
        3.58146         21.3598         1.51447 
        3.59719         21.0985         1.49772 
        3.61292         20.9616         1.48123 
        3.62859         20.7301         1.46505 
        3.64429         20.4982         1.44908 
        3.66003         20.4017         1.43329 
        3.67578         20.1776         1.41775 
        3.69146         20.0069         1.40249 
        3.70712         19.8443         1.38749 
        3.72284         19.6637         1.37265 
        3.73853         19.5299         1.35805 
        3.75422         19.2564         1.34366 
        3.76993         19.1073         1.32946 
        3.78564         18.9402         1.31548 
        3.80137         18.7763         1.30167 
        3.81707         18.6055         1.28809 
        3.83279         18.4516         1.27469 
        3.84853          18.233         1.26146 
        3.86424         18.0914         1.24844 
        3.87992         17.9317         1.23562 
        3.89561         17.8278         1.22299 
        3.91134          17.587          1.2105 
        3.92704         17.4972          1.1982 
        3.94273         17.2971         1.18609 
        3.95845         17.1837         1.17412 
        3.97418         17.0016         1.16231 
        3.98988         16.8482         1.15068 
        4.00554         16.7483         1.13924 
        4.02125         16.5336         1.12792 
        4.03698         16.3861         1.11674 
        4.05268         16.2645         1.10573 
        4.06839         16.1605         1.09487 
         4.0841         15.9723         1.08415 
        4.09983         15.8562         1.07356 
        4.11555         15.6824         1.06312 
        4.13124         15.6221         1.05284 
        4.14693         15.4862         1.04269 
        4.16266         15.3623         1.03266 
        4.17839         15.1935         1.02275 
        4.19408         15.0684           1.013 
        4.20977         14.9488         1.00338 
        4.22551         14.8205        0.993851 
        4.24123         14.6515        0.984458 
        4.25691         14.5078        0.975213 
        4.27259         14.4528        0.966082 
        4.28831          14.372         0.95705 
        4.30404          14.198        0.948124 
        4.31974         14.0925        0.939331 
        4.33543          13.981        0.930655 
        4.35116         13.8342        0.922067 
        4.36688         13.7269         0.91359 
        4.38255         13.6344        0.905251 
        4.39825         13.4732        0.896998 
        4.41398          13.407         0.88883 
         4.4297         13.2651        0.880773 
        4.44541         13.1419        0.872817 
        4.46111         13.0648        0.864965 
        4.47683         12.9629        0.857204 
        4.49251         12.8486        0.849553 
        4.50819         12.7333        0.841998 
         4.5239         12.6371        0.834523 
        4.53962         12.5507        0.827129 
        4.55535         12.4389        0.819821 
        4.57106         12.3599        0.812612 
        4.58678           12.23        0.805488 
         4.6025         12.1578        0.798447 
        4.61821           12.05        0.791491 
        4.63391         11.9494        0.784627 
         4.6496         11.8564        0.777846 
        4.66532         11.7765        0.771135 
        4.68103         11.6453        0.764506 
        4.69673         11.5564        0.757961 
        4.71241         11.4649        0.751499 
        4.72811         11.4003        0.745101 
        4.74384         11.2988         0.73877 
        4.75955         11.2244        0.732521 
        4.77525         11.1232        0.726348 
        4.79096         11.0533        0.720239 
        4.80669         10.9837        0.714196 
         4.8224         10.8839        0.708229 
        4.83809         10.8006        0.702337 
        4.85379         10.6926        0.696508 
         4.8695         10.6142         0.69074 
        4.88521         10.5375         0.68504 
        4.90093         10.4807        0.679403 
        4.91663         10.3725        0.673834 
        4.93234         10.3078        0.668322 
        4.94807         10.2237        0.662867 
        4.96377         10.1234        0.657483 
        4.97943         10.0737         0.65217 
        4.99514         9.96101        0.646903 
        5.01086         9.90377        0.641689 
        5.02654         9.83285        0.636545 
        5.04227         9.73661        0.631443 
          5.058         9.67987        0.626394 
        5.07371         9.60922         0.62141 
        5.08942         9.55351        0.616479 
        5.10513         9.46976        0.611602 
        5.12084         9.41755        0.606774 
        5.13656         9.32321        0.601999 
        5.15225         9.24293        0.597284 
        5.16796         9.19824        0.592611 
        5.18369           9.115        0.587984 
         5.1994         9.03854        0.583415 
        5.21509         8.97332        0.578898 
        5.23079         8.89793        0.574423 
        5.24649          8.8376            0.57 
        5.26217         8.76561        0.565625 
        5.27788         8.72291         0.56129 
        5.29359          8.6568           0.557 
        5.30933          8.5968        0.552748 
        5.32504         8.53736        0.548548 
        5.34073         8.46843        0.544396 
        5.35646         8.40281        0.540278 
        5.37218         8.34066        0.536202 
        5.38789         8.28686        0.532174 
        5.40357         8.22861        0.528193 
        5.41929         8.17581        0.524243 
        5.43502          8.1119        0.520333 
         5.4507         8.04706        0.516471 
        5.46639         7.98914        0.512649 
        5.48212          7.9412        0.508856 
        5.49786         7.88303        0.505097 
        5.51353         7.82826        0.501394 
        5.52921         7.79094        0.497725 
        5.54495          7.7298        0.494081 
        5.56066          7.6408        0.490478 
        5.57637         7.61041        0.486911 
        5.59207         7.55138        0.483383 
        5.60778         7.50591        0.479888 
        5.62346         7.45195        0.476432 
        5.63916         7.40564        0.473007 
        5.65487         7.35941        0.469614 
         5.6706         7.29213         0.46625 
        5.68633         7.24276        0.462918 
        5.70203         7.19059        0.459625 
        5.71773         7.13462        0.456364 
        5.73344         7.10249        0.453134 
        5.74916         7.05219        0.449931 
        5.76486         7.01411        0.446764 
        5.78054         6.95682        0.443632 
        5.79626         6.89591        0.440521 
          5.812         6.87298        0.437437 
         5.8277         6.82061        0.434391 
        5.84339         6.76003        0.431374 
        5.85911         6.70311         0.42838 
        5.87484         6.67595        0.425415 
        5.89053         6.64274        0.422484 
        5.90623         6.58685        0.419578 
        5.92195          6.5447        0.416695 
        5.93767         6.49857        0.413841 
        5.95336         6.46342        0.411018 
        5.96905         6.40907        0.408222 
        5.98476         6.37106        0.405448 
        6.00048         6.33041        0.402699 
        6.01617         6.28422         0.39998 
        6.03185         6.24049        0.397288 
        6.04756         6.20417        0.394615 
        6.06331         6.17004         0.39196 
        6.07903         6.10897        0.389336 
        6.09473         6.08119        0.386737 
        6.11044         6.05475        0.384161 
        6.12616         5.99417        0.381608 
        6.14186         5.95805         0.37908 
        6.15755         5.92104        0.376576 
        6.17326         5.89406        0.374092 
        6.18898         5.85077        0.371629 
        6.20467         5.80669        0.369193 
        6.22036         5.77373        0.366779 
         6.2361         5.72946         0.36438 
         6.2518         5.69874        0.362006 
        6.26748         5.66827        0.359658 
        6.28319         5.62551        0.357325 
        6.29893         5.58578         0.35501 
        6.31463         5.55902         0.35272 
        6.33033         5.52629        0.350451 
        6.34604         5.48644        0.348199 
        6.36177         5.44726        0.345966 
        6.37747         5.42004        0.343756 
