# k  (h/Mpc)    Pcb(k)  (Mpc/h)^3    Pcb_linear(k) (Mpc/h)^3   ShotnoiseSubtracted = true
      0.0200456         20113.7         20441.3 
      0.0350414         14640.9         14151.7 
      0.0492313         9954.78         10117.7 
      0.0637834         7991.99         8372.56 
      0.0800726         6136.26         6467.69 
       0.096163         4833.65         4594.87 
       0.111083         3954.79         3703.53 
       0.126058         3276.75         3290.29 
       0.142273         2812.25         2710.61 
       0.158546         2289.87         2114.02 
        0.17375          2044.9         1811.18 
       0.188953         1928.27          1642.8 
       0.204907         1641.08         1421.42 
       0.220756         1475.56         1190.48 
        0.23588         1318.22         1048.65 
         0.2514         1186.48         956.385 
       0.267535         1145.32         852.326 
       0.283568         1011.59         745.047 
       0.299022         964.265         668.428 
       0.314451         999.868         613.148 
       0.330372         869.504         557.662 
       0.346141         799.286         502.594 
       0.361624         766.256         457.912 
       0.377134         731.036         422.413 
       0.392932         698.378         389.258 
       0.408854         668.169         357.043 
       0.424564         651.379         329.019 
       0.440253         598.347         305.389 
       0.455999         571.937         283.986 
       0.471626         582.599         263.998 
        0.48727         548.366         245.851 
       0.502856         519.568         229.854 
       0.518488         509.193         215.329 
       0.534347         484.107         201.663 
       0.550082          462.32         189.188 
       0.565732         457.132          177.94 
       0.581496         445.783         167.585 
       0.597222         434.365         158.025 
       0.612804          423.73         149.253 
       0.628434         406.767         141.135 
       0.644267         393.268         133.559 
       0.660051         388.448         126.562 
       0.675724         380.022         120.104 
       0.691403         371.871         114.089 
       0.707174         358.257         108.451 
       0.722871         353.165         103.214 
        0.73838         347.049         98.3789 
       0.754018         335.702          93.816 
       0.769845         333.987         89.4923 
        0.78569         325.998         85.4371 
       0.801365         315.232         81.6731 
       0.817031          313.51         78.1391 
       0.832809         307.408         74.7924 
       0.848511          301.28         71.6571 
       0.864097         293.004         68.7235 
       0.879701         291.895         65.9517 
       0.895507         282.655         63.3004 
       0.911279         277.027         60.8007 
        0.92691          274.58         58.4568 
       0.942635         271.642         56.2238 
       0.958396         263.525         54.1028 
       0.974128         261.241         52.0953 
       0.989692         251.719         50.2095 
        1.00528         251.234         48.4144 
        1.02113         247.996          46.679 
        1.03692         242.759         45.0352 
        1.05264         238.465         43.4782 
        1.06832          236.67         41.9973 
        1.08405         231.846         40.5815 
        1.09979         228.915         39.2302 
        1.11537         224.563         37.9539 
        1.13105         220.774         36.7269 
        1.14679         218.896         35.5494 
        1.16256         216.128         34.4213 
        1.17828         213.309         33.3459 
        1.19395         207.669         32.3201 
         1.2097         207.443         31.3323 
        1.22537          205.06         30.3905 
          1.241         199.015         29.4904 
        1.25666         198.205         28.6245 
        1.27241         194.792         27.7893 
        1.28819         192.125          26.986 
        1.30392         190.278         26.2169 
        1.31957         185.418         25.4812 
        1.33529         182.663          24.771 
        1.35108         182.079         24.0851 
        1.36674         177.334         23.4301 
         1.3824         176.485            22.8 
        1.39811         174.869          22.191 
        1.41389         170.507         21.6019 
        1.42964         168.346         21.0353 
        1.44531         167.333         20.4917 
        1.46101         164.095         19.9661 
        1.47667         162.923         19.4606 
        1.49229         160.638         18.9739 
        1.50793         157.673         18.5033 
        1.52367         156.243         18.0457 
        1.53953         152.976         17.6004 
        1.55526          152.27         17.1738 
        1.57092         151.192          16.763 
        1.58662         147.271         16.3647 
        1.60235          146.21         15.9785 
        1.61809         143.929         15.6046 
        1.63369         141.568          15.246 
        1.64941         140.506         14.8961 
        1.66519         138.772         14.5559 
        1.68085         136.395         14.2288 
        1.69652         135.067         13.9116 
        1.71228         133.116         13.6022 
        1.72806         132.315          13.302 
        1.74368         130.495         13.0139 
        1.75933         129.317         12.7337 
        1.77505         127.511         12.4605 
        1.79081         125.128         12.1948 
         1.8065         123.368          11.938 
        1.82218         121.807         11.6888 
        1.83797         121.121         11.4449 
        1.85367          119.82         11.2094 
        1.86928         118.576         10.9819 
        1.88497         116.691         10.7595 
        1.90073         115.864         10.5424 
        1.91647         113.873         10.3315 
        1.93218         112.812         10.1268 
        1.94787          110.86         9.92799 
        1.96363         110.263         9.73368 
        1.97935         109.036         9.54497 
        1.99499         108.017         9.36232 
        2.01064         105.744         9.18417 
         2.0264         104.931         9.00954 
        2.04216          103.36         8.83953 
        2.05781          102.39         8.67497 
        2.07353         101.293         8.51401 
        2.08928         99.8798         8.35678 
        2.10499         99.0797         8.20393 
        2.12065         97.8561         8.05536 
        2.13633         96.9916         7.91034 
        2.15211         95.4899         7.76795 
        2.16785         94.2597         7.62945 
        2.18349         92.8846         7.49519 
        2.19916         92.0963         7.36388 
        2.21489         91.3872         7.23527 
        2.23063         89.6814         7.10964 
         2.2463          88.999         6.98756 
        2.26194         88.2686         6.86864 
        2.27765         86.7442         6.75187 
        2.29341         85.9565         6.63752 
        2.30914         84.8548         6.52604 
        2.32486         83.5702         6.41718 
        2.34061         82.9223         6.31061 
        2.35635         81.9913         6.20656 
        2.37203         80.8076         6.10521 
        2.38768         79.9572         6.00633 
        2.40339         79.3863         5.90928 
        2.41914          78.124         5.81414 
        2.43483            77.5         5.72143 
         2.4505         76.4215         5.63089 
        2.46622         75.6918           5.542 
        2.48195         74.9475         5.45502 
        2.49759         73.9071         5.37036 
        2.51328         72.9234         5.28728 
        2.52906         71.9313         5.20542 
        2.54479         71.4458          5.1256 
        2.56049         70.4439         5.04761 
        2.57618         69.6957          4.9713 
        2.59189          69.107         4.89645 
        2.60758         67.9116         4.82326 
        2.62325         67.4874         4.75165 
        2.63898         66.8806         4.68124 
        2.65468         66.1123          4.6124 
        2.67044         65.3966         4.54465 
        2.68618         64.8607         4.47841 
        2.70184         63.8999         4.41376 
        2.71755          63.288         4.35021 
        2.73329         62.3801         4.28782 
        2.74897         61.9033         4.22686 
        2.76462          61.303         4.16721 
        2.78034         60.6532         4.10846 
        2.79607         60.1328         4.05078 
        2.81179         59.4996         3.99427 
        2.82749         58.8428          3.9389 
        2.84321         58.2933         3.88452 
        2.85893         57.6155         3.83117 
        2.87462          57.015         3.77892 
        2.89033         56.3624         3.72759 
        2.90605         55.7218         3.67717 
        2.92176         55.2609         3.62771 
        2.93747         54.7182         3.57917 
        2.95318         54.1155         3.53152 
        2.96891          53.417          3.4847 
        2.98456         52.8874         3.43894 
        3.00023         52.3111         3.39394 
        3.01596         51.7325         3.34959 
        3.03164         51.2542         3.30617 
        3.04738         50.7885         3.26338 
         3.0631          50.044         3.22137 
        3.07883         49.5227         3.18009 
        3.09456         49.0997         3.13954 
        3.11026         48.6914         3.09976 
        3.12596         48.1607         3.06067 
        3.14163         47.5682         3.02234 
        3.15734         47.1192         2.98457 
        3.17308         46.6453         2.94736 
        3.18879           46.32         2.91089 
        3.20447          45.945         2.87508 
         3.2202         45.2284         2.83976 
         3.2359         44.8514          2.8051 
        3.25157         44.5401          2.7711 
        3.26729         43.9838         2.73755 
        3.28304         43.6098          2.7045 
        3.29877         43.0361         2.67203 
        3.31446          42.701         2.64016 
        3.33014         42.2933         2.60884 
        3.34585         41.8156         2.57798 
        3.36158         41.3887         2.54757 
        3.37727         41.0137         2.51775 
        3.39294          40.708         2.48843 
        3.40867         40.2681         2.45947 
        3.42439          39.904         2.43098 
        3.44008         39.3982           2.403 
        3.45578          39.121         2.37544 
        3.47153         38.6386         2.34825 
        3.48724         38.2442         2.32153 
        3.50292          37.992         2.29529 
        3.51859         37.6368         2.26947 
        3.53431          37.318         2.24396 
        3.55007         36.8296         2.21878 
        3.56577         36.7032         2.19408 
        3.58146         36.1918         2.16977 
        3.59719         35.8853         2.14577 
        3.61292         35.6051         2.12214 
        3.62859         35.2482         2.09896 
        3.64429         34.9312         2.07608 
        3.66003          34.631         2.05346 
        3.67578         34.2653         2.03119 
        3.69146         33.9772         2.00934 
        3.70712         33.5439         1.98784 
        3.72284         33.2955         1.96658 
        3.73853         33.1022         1.94567 
        3.75422         32.7063         1.92505 
        3.76993         32.4125         1.90471 
        3.78564         32.1879         1.88467 
        3.80137         31.8491         1.86489 
        3.81707           31.59         1.84543 
        3.83279         31.2808         1.82623 
        3.84853         30.9085         1.80728 
        3.86424           30.67         1.78863 
        3.87992         30.4964         1.77027 
        3.89561         30.1771         1.75216 
        3.91134         29.8244         1.73427 
        3.92704          29.545         1.71665 
        3.94273          29.311          1.6993 
        3.95845         29.1468         1.68215 
        3.97418          28.725         1.66523 
        3.98988         28.5025         1.64857 
        4.00554         28.2916         1.63218 
        4.02125         28.0722         1.61596 
        4.03698         27.7525         1.59994 
        4.05268         27.5424         1.58417 
        4.06839         27.2893         1.56861 
         4.0841         27.0835         1.55325 
        4.09983         26.8049         1.53808 
        4.11555         26.4784         1.52312 
        4.13124         26.3741          1.5084 
        4.14693          26.138         1.49386 
        4.16266         25.8404         1.47947 
        4.17839         25.7218         1.46529 
        4.19408         25.4438         1.45132 
        4.20977         25.2414         1.43753 
        4.22551         25.0449         1.42388 
        4.24123         24.8043         1.41042 
        4.25691          24.559         1.39718 
        4.27259         24.4441          1.3841 
        4.28831         24.1932         1.37115 
        4.30404         24.0272         1.35837 
        4.31974         23.7324         1.34577 
        4.33543          23.573         1.33334 
        4.35116         23.3774         1.32103 
        4.36688         23.2131         1.30889 
        4.38255         22.9929         1.29694 
        4.39825         22.7786         1.28512 
        4.41398         22.5856         1.27342 
         4.4297         22.3799         1.26187 
        4.44541         22.2632         1.25048 
        4.46111          21.967         1.23923 
        4.47683         21.8371         1.22811 
        4.49251         21.6674         1.21715 
        4.50819         21.4881         1.20632 
         4.5239          21.336         1.19561 
        4.53962         21.1497         1.18502 
        4.55535         20.9405         1.17455 
        4.57106         20.8419         1.16422 
        4.58678         20.5873         1.15401 
         4.6025         20.4019         1.14393 
        4.61821         20.2876         1.13396 
        4.63391         20.0889         1.12413 
         4.6496         19.9372         1.11441 
        4.66532          19.787          1.1048 
        4.68103          19.584          1.0953 
        4.69673         19.5076         1.08592 
        4.71241          19.366         1.07666 
        4.72811         19.1282          1.0675 
        4.74384         18.9998         1.05843 
        4.75955         18.9131         1.04948 
        4.77525         18.7323         1.04063 
        4.79096         18.5828         1.03188 
        4.80669         18.3856         1.02322 
         4.8224         18.2443         1.01467 
        4.83809         18.1295         1.00623 
        4.85379         17.9731        0.997879 
         4.8695         17.8545        0.989616 
        4.88521         17.6846        0.981449 
        4.90093           17.57        0.973373 
        4.91663         17.4255        0.965395 
        4.93234         17.2824        0.957497 
        4.94807         17.1701        0.949682 
        4.96377         17.0481        0.941969 
        4.97943         16.9071        0.934357 
        4.99514         16.7756         0.92681 
        5.01086          16.633         0.91934 
        5.02654         16.5163        0.911971 
        5.04227         16.3836        0.904661 
          5.058          16.248        0.897428 
        5.07371         16.1775        0.890287 
        5.08942         16.0545        0.883223 
        5.10513         15.9072        0.876235 
        5.12084         15.8247        0.869318 
        5.13656         15.6303        0.862478 
        5.15225         15.5295        0.855722 
        5.16796         15.4306        0.849028 
        5.18369         15.3099        0.842399 
         5.1994         15.2011        0.835852 
        5.21509         15.0893        0.829381 
        5.23079         14.9688         0.82297 
        5.24649         14.8664        0.816632 
        5.26217         14.7311        0.810365 
        5.27788         14.6528        0.804155 
        5.29359         14.5169        0.798008 
        5.30933         14.4391        0.791917 
        5.32504         14.3254        0.785899 
        5.34073         14.2437         0.77995 
        5.35646           14.13         0.77405 
        5.37218         13.9993        0.768211 
        5.38789         13.9071         0.76244 
        5.40357         13.7967        0.756736 
        5.41929         13.7191        0.751077 
        5.43502          13.585        0.745475 
         5.4507         13.5112        0.739943 
        5.46639         13.4029        0.734467 
        5.48212         13.3013        0.729033 
        5.49786         13.2166        0.723647 
        5.51353         13.1219        0.718342 
        5.52921         13.0305        0.713085 
        5.54495         12.9303        0.707865 
        5.56066         12.8281        0.702703 
        5.57637         12.7362        0.697592 
        5.59207         12.6756        0.692537 
        5.60778         12.5471         0.68753 
        5.62346         12.4832        0.682579 
        5.63916         12.4001        0.677672 
        5.65487         12.2844        0.672811 
         5.6706         12.2229        0.667992 
        5.68633         12.1491        0.663218 
        5.70203         12.0402          0.6585 
        5.71773         11.9717        0.653828 
        5.73344         11.8806          0.6492 
        5.74916         11.7984        0.644612 
        5.76486         11.7281        0.640074 
        5.78054         11.6416        0.635587 
        5.79626         11.5526         0.63113 
          5.812         11.4749        0.626711 
         5.8277          11.375        0.622347 
        5.84339         11.3204        0.618025 
        5.85911         11.2273        0.613736 
        5.87484         11.1424        0.609487 
        5.89053         11.0667        0.605288 
        5.90623         10.9923        0.601125 
        5.92195         10.9108        0.596995 
        5.93767         10.8311        0.592905 
        5.95336          10.783        0.588861 
        5.96905         10.7021        0.584855 
        5.98476         10.6403        0.580881 
        6.00048         10.5546        0.576943 
        6.01617         10.4887        0.573046 
        6.03185         10.4131         0.56919 
        6.04756         10.3427         0.56536 
        6.06331          10.266        0.561557 
        6.07903          10.193        0.557797 
        6.09473         10.1315        0.554075 
        6.11044          10.065        0.550383 
        6.12616         9.98855        0.546725 
        6.14186         9.92113        0.543104 
        6.15755         9.87442        0.539516 
        6.17326         9.78417        0.535957 
        6.18898         9.75962        0.532429 
        6.20467         9.67752        0.528939 
        6.22036         9.60131         0.52548 
         6.2361         9.54619        0.522043 
         6.2518         9.48244        0.518642 
        6.26748         9.39869        0.515279 
        6.28319         9.36634        0.511936 
        6.29893         9.29714        0.508619 
        6.31463         9.21713        0.505338 
        6.33033         9.17946        0.502087 
        6.34604         9.12631        0.498862 
        6.36177         9.04635        0.495662 
        6.37747         8.99295        0.492496 
