# k  (h/Mpc)    Pcb(k)  (Mpc/h)^3    Pcb_linear(k) (Mpc/h)^3   ShotnoiseSubtracted = true
      0.0200456          2760.3         2794.67 
      0.0350414         1971.04         1934.78 
      0.0492313            1386         1383.26 
      0.0637834         1125.93         1144.67 
      0.0800726         868.664         884.242 
       0.096163         643.836         628.196 
       0.111083         522.244         506.335 
       0.126058         446.973         449.837 
       0.142273         369.727         370.586 
       0.158546         295.401         289.022 
        0.17375          256.36         247.619 
       0.188953         231.531         224.599 
       0.204907         194.367         194.332 
       0.220756         169.496         162.758 
        0.23588          149.53         143.368 
         0.2514         135.448         130.754 
       0.267535         124.269         116.527 
       0.283568         108.235          101.86 
       0.299022         99.4013         91.3854 
       0.314451         93.9682         83.8276 
       0.330372         83.2737         76.2417 
       0.346141         75.8207          68.713 
       0.361624         69.7605         62.6043 
       0.377134         63.8111         57.7509 
       0.392932         61.4938         53.2181 
       0.408854         56.1533         48.8138 
       0.424564         53.4385         44.9825 
       0.440253         48.7145         41.7518 
       0.455999         44.4404         38.8256 
       0.471626          42.086          36.093 
        0.48727         40.7496         33.6119 
       0.502856         37.9376         31.4249 
       0.518488         35.5152          29.439 
       0.534347         33.3702         27.5707 
       0.550082         32.0438         25.8652 
       0.565732         30.7627         24.3274 
       0.581496         28.7976         22.9117 
       0.597222         27.2505         21.6047 
       0.612804          25.911         20.4053 
       0.628434         25.3782         19.2955 
       0.644267         23.9656         18.2597 
       0.660051         22.7452         17.3032 
       0.675724         21.6669         16.4202 
       0.691403         21.1852         15.5979 
       0.707174         20.2646          14.827 
       0.722871         19.5812         14.1111 
        0.73838         18.5329           13.45 
       0.754018         17.5455         12.8262 
       0.769845          17.094         12.2351 
        0.78569         16.5444         11.6807 
       0.801365         15.8963         11.1661 
       0.817031         15.2823         10.6829 
       0.832809         14.7964         10.2254 
       0.848511         14.3202         9.79673 
       0.864097         13.8258         9.39566 
       0.879701         13.5747         9.01671 
       0.895507         13.0468         8.65423 
       0.911279         12.5013         8.31247 
        0.92691         12.2294         7.99203 
       0.942635         11.8966         7.68673 
       0.958396         11.4811         7.39676 
       0.974128         11.1923          7.1223 
       0.989692         10.6605         6.86448 
        1.00528         10.5828         6.61906 
        1.02113         10.2077          6.3818 
        1.03692         9.97219         6.15706 
        1.05264         9.71722         5.94419 
        1.06832         9.49267         5.74173 
        1.08405         9.22945         5.54817 
        1.09979         8.98539         5.36343 
        1.11537         8.74614         5.18894 
        1.13105         8.57723         5.02118 
        1.14679         8.37985          4.8602 
        1.16256         8.17368         4.70596 
        1.17828         7.99561         4.55894 
        1.19395         7.82069          4.4187 
         1.2097         7.56757         4.28364 
        1.22537         7.42513         4.15489 
          1.241         7.22177         4.03183 
        1.25666         7.18698         3.91344 
        1.27241         7.02199         3.79926 
        1.28819         6.73188         3.68945 
        1.30392         6.68417         3.58429 
        1.31957         6.51254          3.4837 
        1.33529         6.41395         3.38661 
        1.35108          6.2708         3.29284 
        1.36674         6.11032         3.20328 
         1.3824         6.03511         3.11714 
        1.39811         5.91775         3.03388 
        1.41389         5.77164         2.95335 
        1.42964         5.68683         2.87587 
        1.44531         5.57427         2.80156 
        1.46101         5.51365         2.72971 
        1.47667         5.38579         2.66059 
        1.49229         5.23209         2.59405 
        1.50793         5.16946         2.52972 
        1.52367         5.06417         2.46715 
        1.53953         4.98133         2.40627 
        1.55526         4.92959         2.34794 
        1.57092         4.82353         2.29178 
        1.58662         4.74287         2.23732 
        1.60235         4.68003         2.18453 
        1.61809         4.60004         2.13341 
        1.63369         4.50632         2.08439 
        1.64941         4.42726         2.03655 
        1.66519         4.37776         1.99004 
        1.68085          4.2951         1.94531 
        1.69652         4.24222         1.90194 
        1.71228         4.19441         1.85965 
        1.72806         4.11132         1.81861 
        1.74368         4.06007         1.77922 
        1.75933         3.99404         1.74092 
        1.77505         3.91375         1.70356 
        1.79081         3.87729         1.66723 
         1.8065         3.83509         1.63212 
        1.82218         3.76917         1.59805 
        1.83797         3.69387         1.56472 
        1.85367         3.64606         1.53252 
        1.86928         3.61577         1.50142 
        1.88497         3.54159         1.47101 
        1.90073         3.50499         1.44133 
        1.91647          3.4451          1.4125 
        1.93218         3.40449         1.38451 
        1.94787         3.36486         1.35732 
        1.96363         3.32415         1.33076 
        1.97935         3.28152         1.30496 
        1.99499         3.24002         1.27999 
        2.01064         3.19903         1.25563 
         2.0264         3.15537         1.23176 
        2.04216         3.11102         1.20851 
        2.05781         3.07513         1.18601 
        2.07353         3.04807         1.16401 
        2.08928         2.99344         1.14251 
        2.10499          2.9539         1.12162 
        2.12065         2.95472          1.1013 
        2.13633         2.90679         1.08148 
        2.15211         2.85128         1.06201 
        2.16785         2.82254         1.04307 
        2.18349         2.79861         1.02472 
        2.19916         2.76771         1.00677 
        2.21489         2.73933        0.989183 
        2.23063         2.69614        0.972007 
         2.2463         2.66153        0.955316 
        2.26194         2.63118        0.939058 
        2.27765         2.58284        0.923095 
        2.29341          2.5642         0.90746 
        2.30914         2.53667        0.892219 
        2.32486         2.52421        0.877336 
        2.34061         2.49344        0.862767 
        2.35635         2.46498        0.848541 
        2.37203         2.45209        0.834685 
        2.38768         2.42661        0.821167 
        2.40339         2.38112        0.807898 
        2.41914         2.36138        0.794891 
        2.43483         2.33423        0.782216 
         2.4505         2.31373        0.769838 
        2.46622         2.28908        0.757685 
        2.48195         2.27392        0.745792 
        2.49759         2.24238        0.734218 
        2.51328         2.22592         0.72286 
        2.52906         2.19994        0.711669 
        2.54479         2.17849        0.700756 
        2.56049         2.15715        0.690093 
        2.57618         2.13653         0.67966 
        2.59189         2.12907        0.669427 
        2.60758         2.10651         0.65942 
        2.62325          2.0663         0.64963 
        2.63898         2.04857        0.640004 
        2.65468         2.03001        0.630593 
        2.67044         2.02539         0.62133 
        2.68618         2.00503        0.612274 
        2.70184         1.98462        0.603435 
        2.71755          1.9597        0.594747 
        2.73329         1.94123        0.586217 
        2.74897         1.92626        0.577882 
        2.76462         1.90717        0.569727 
        2.78034         1.89773        0.561695 
        2.79607         1.87647        0.553809 
        2.81179          1.8603        0.546084 
        2.82749         1.84014        0.538514 
        2.84321         1.82725        0.531079 
        2.85893         1.80648        0.523786 
        2.87462         1.80008        0.516642 
        2.89033         1.78544        0.509624 
        2.90605          1.7702        0.502731 
        2.92176          1.7499        0.495968 
        2.93747         1.73753        0.489333 
        2.95318         1.72325        0.482818 
        2.96891         1.71491        0.476417 
        2.98456         1.69839        0.470161 
        3.00023         1.68515        0.464008 
        3.01596         1.66437        0.457946 
        3.03164         1.65375        0.452009 
        3.04738         1.64565        0.446159 
         3.0631         1.63126        0.440415 
        3.07883         1.61891        0.434772 
        3.09456         1.60145        0.429228 
        3.11026         1.59242        0.423789 
        3.12596         1.57732        0.418444 
        3.14163         1.57183        0.413204 
        3.15734         1.55422        0.408041 
        3.17308         1.54618        0.402954 
        3.18879         1.53658        0.397967 
        3.20447         1.51726        0.393072 
         3.2202         1.51668        0.388243 
         3.2359         1.50188        0.383504 
        3.25157         1.48737        0.378855 
        3.26729         1.47664        0.374269 
        3.28304         1.46691         0.36975 
        3.29877         1.45202        0.365311 
        3.31446          1.4461        0.360955 
        3.33014         1.43549        0.356673 
        3.34585         1.42289        0.352453 
        3.36158         1.41291        0.348296 
        3.37727         1.40895        0.344219 
        3.39294         1.39594         0.34021 
        3.40867         1.39029        0.336251 
        3.42439         1.37713        0.332356 
        3.44008         1.36733        0.328531 
        3.45578         1.35691        0.324763 
        3.47153         1.35033        0.321045 
        3.48724         1.33975        0.317392 
        3.50292         1.32601        0.313805 
        3.51859         1.32508        0.310274 
        3.53431         1.31181        0.306787 
        3.55007          1.3078        0.303344 
        3.56577         1.29718        0.299968 
        3.58146         1.28993        0.296644 
        3.59719         1.28076        0.293363 
        3.61292         1.27364        0.290133 
        3.62859         1.26434        0.286963 
        3.64429         1.25766        0.283834 
        3.66003          1.2482        0.280743 
        3.67578         1.23993        0.277698 
        3.69146         1.23131         0.27471 
        3.70712         1.22392        0.271771 
        3.72284         1.21659        0.268865 
        3.73853         1.20849        0.266005 
        3.75422         1.20196        0.263186 
        3.76993         1.19363        0.260406 
        3.78564         1.18457        0.257666 
        3.80137          1.1783        0.254961 
        3.81707         1.16895        0.252301 
        3.83279         1.16896        0.249677 
        3.84853         1.15907        0.247085 
        3.86424         1.14968        0.244535 
        3.87992         1.14431        0.242025 
        3.89561         1.13469         0.23955 
        3.91134         1.13015        0.237104 
        3.92704         1.12355        0.234695 
        3.94273         1.11862        0.232322 
        3.95845         1.10704        0.229978 
        3.97418         1.10257        0.227665 
        3.98988         1.09815        0.225387 
        4.00554         1.08907        0.223146 
        4.02125         1.08287        0.220929 
        4.03698         1.07461        0.218739 
        4.05268         1.06754        0.216583 
        4.06839         1.05828        0.214455 
         4.0841          1.0524        0.212356 
        4.09983         1.04509        0.210282 
        4.11555         1.03847        0.208236 
        4.13124         1.03028        0.206223 
        4.14693          1.0243        0.204235 
        4.16266         1.01895        0.202269 
        4.17839         1.01133        0.200329 
        4.19408         1.00499         0.19842 
        4.20977        0.999791        0.196534 
        4.22551        0.993147        0.194668 
        4.24123        0.985477        0.192828 
        4.25691        0.979032        0.191017 
        4.27259        0.972284        0.189229 
        4.28831        0.970857         0.18746 
        4.30404         0.96155        0.185712 
        4.31974        0.954984        0.183989 
        4.33543        0.949792         0.18229 
        4.35116        0.944438        0.180608 
        4.36688        0.938971        0.178947 
        4.38255        0.934612        0.177314 
        4.39825         0.93014        0.175697 
        4.41398        0.924202        0.174098 
         4.4297        0.920412        0.172519 
        4.44541        0.913845        0.170961 
        4.46111        0.907828        0.169423 
        4.47683        0.905506        0.167903 
        4.49251        0.899915        0.166404 
        4.50819        0.895851        0.164924 
         4.5239        0.890628         0.16346 
        4.53962        0.885331        0.162012 
        4.55535        0.882956        0.160581 
        4.57106        0.876579        0.159169 
        4.58678        0.876286        0.157773 
         4.6025        0.870751        0.156394 
        4.61821        0.868339        0.155031 
        4.63391        0.864358        0.153687 
         4.6496        0.856318        0.152359 
        4.66532        0.856629        0.151044 
        4.68103        0.851104        0.149746 
        4.69673        0.848727        0.148464 
        4.71241        0.843386        0.147198 
        4.72811        0.842411        0.145945 
        4.74384        0.839895        0.144705 
        4.75955        0.836147        0.143481 
        4.77525        0.830786        0.142272 
        4.79096        0.827727        0.141075 
        4.80669        0.826052        0.139891 
         4.8224        0.822352        0.138723 
        4.83809        0.821045        0.137569 
        4.85379        0.817694        0.136427 
         4.8695        0.812805        0.135297 
        4.88521        0.811184        0.134181 
        4.90093        0.809517        0.133076 
        4.91663        0.805729        0.131986 
        4.93234        0.802619        0.130906 
        4.94807        0.799302        0.129838 
        4.96377         0.79882        0.128783 
        4.97943        0.797337        0.127742 
        4.99514        0.796155        0.126711 
        5.01086        0.790911        0.125689 
        5.02654        0.788391        0.124682 
        5.04227        0.785644        0.123682 
          5.058        0.785085        0.122693 
        5.07371        0.781751        0.121717 
        5.08942        0.780548        0.120751 
        5.10513        0.780768        0.119796 
        5.12084        0.776508         0.11885 
        5.13656         0.77379        0.117915 
        5.15225         0.77033        0.116992 
        5.16796        0.768939        0.116076 
        5.18369         0.76914         0.11517 
         5.1994        0.767299        0.114275 
        5.21509        0.764237         0.11339 
        5.23079        0.763778        0.112514 
        5.24649        0.762239        0.111647 
        5.26217        0.760628        0.110791 
        5.27788        0.757134        0.109941 
        5.29359        0.757647        0.109101 
        5.30933        0.756775        0.108268 
        5.32504        0.754028        0.107446 
        5.34073        0.753894        0.106632 
        5.35646        0.750857        0.105826 
        5.37218        0.749447        0.105027 
        5.38789        0.750003        0.104238 
        5.40357        0.748005        0.103458 
        5.41929        0.748137        0.102685 
        5.43502        0.744708        0.101919 
         5.4507         0.74213        0.101163 
        5.46639        0.743477        0.100414 
        5.48212        0.739905        0.099671 
        5.49786        0.740712       0.0989347 
        5.51353        0.742021       0.0982094 
        5.52921        0.737956       0.0974907 
        5.54495        0.736626        0.096777 
        5.56066        0.737545       0.0960712 
        5.57637        0.738109       0.0953726 
        5.59207        0.735553       0.0946815 
        5.60778        0.735403       0.0939969 
        5.62346        0.734535       0.0933201 
        5.63916         0.73392       0.0926492 
        5.65487        0.731093       0.0919846 
         5.6706        0.730492       0.0913257 
        5.68633        0.729042        0.090673 
        5.70203        0.728794        0.090028 
        5.71773        0.728493       0.0893893 
        5.73344        0.726488       0.0887565 
        5.74916        0.726681       0.0881292 
        5.76486        0.725325       0.0875088 
        5.78054         0.72542       0.0868954 
        5.79626        0.725042        0.086286 
          5.812        0.723448       0.0856819 
         5.8277        0.722833       0.0850853 
        5.84339        0.724345       0.0844944 
        5.85911        0.721224        0.083908 
        5.87484        0.722368       0.0833272 
        5.89053         0.71897        0.082753 
        5.90623        0.719955       0.0821839 
        5.92195        0.718613       0.0816192 
        5.93767        0.718678       0.0810601 
        5.95336        0.717987       0.0805072 
        5.96905        0.717771       0.0799596 
        5.98476        0.715109       0.0794162 
        6.00048        0.717451       0.0788778 
        6.01617        0.715255        0.078345 
        6.03185        0.713659       0.0778179 
        6.04756        0.715858       0.0772942 
        6.06331         0.71426       0.0767743 
        6.07903        0.714103       0.0762602 
        6.09473        0.713711       0.0757513 
        6.11044        0.712997       0.0752466 
        6.12616         0.71211       0.0747465 
        6.14186        0.711096       0.0742514 
        6.15755        0.710849       0.0737609 
        6.17326        0.709988       0.0732744 
        6.18898        0.709122        0.072792 
        6.20467        0.708855       0.0723148 
        6.22036        0.707154        0.071842 
         6.2361        0.708238        0.071372 
         6.2518        0.707976       0.0709071 
        6.26748         0.70674       0.0704472 
        6.28319        0.706466       0.0699902 
        6.29893        0.704805       0.0695368 
        6.31463        0.705354       0.0690882 
        6.33033        0.704952       0.0686437 
        6.34604        0.705453       0.0682028 
        6.36177        0.704375       0.0677653 
        6.37747        0.702861       0.0673324 
