# k  (h/Mpc)    Pcb(k)  (Mpc/h)^3    Pcb_linear(k) (Mpc/h)^3   ShotnoiseSubtracted = true
      0.0200456         21574.2         21933.3 
      0.0350414         15719.9         15184.6 
      0.0492313         10665.3         10856.2 
      0.0637834         8560.03         8983.67 
      0.0800726          6570.3         6939.77 
       0.096163         5192.73         4930.25 
       0.111083         4248.53         3973.85 
       0.126058         3517.44         3530.44 
       0.142273         3026.24         2908.46 
       0.158546         2463.74         2268.32 
        0.17375         2206.16         1943.38 
       0.188953         2086.24         1762.71 
       0.204907         1777.74         1525.17 
       0.220756         1601.07         1277.37 
        0.23588         1430.51         1125.19 
         0.2514         1290.18         1026.19 
       0.267535         1244.12         914.538 
       0.283568         1102.33         799.428 
       0.299022         1050.01         717.217 
       0.314451         1092.14         657.902 
       0.330372         954.748         598.365 
       0.346141          876.78         539.278 
       0.361624         840.933         491.335 
       0.377134         804.422         453.245 
       0.392932         766.638          417.67 
       0.408854         734.659         383.104 
       0.424564          717.35         353.034 
       0.440253         661.224         327.679 
       0.455999         631.841         304.714 
       0.471626         644.113         283.268 
        0.48727         606.126         263.795 
       0.502856         578.172         246.631 
       0.518488          563.56         231.045 
       0.534347         538.776         216.383 
       0.550082         513.863         202.997 
       0.565732          507.25         190.928 
       0.581496         495.661         179.817 
       0.597222         483.886         169.559 
       0.612804         472.136         160.146 
       0.628434         452.844         151.436 
       0.644267         439.019         143.307 
       0.660051         433.946           135.8 
       0.675724         424.296          128.87 
       0.691403         414.503         122.416 
       0.707174         400.235         116.366 
       0.722871         395.402         110.748 
        0.73838         387.434          105.56 
       0.754018         375.904         100.664 
       0.769845         373.401         96.0244 
        0.78569         364.869         91.6731 
       0.801365          352.34         87.6345 
       0.817031         350.602         83.8425 
       0.832809          344.38         80.2515 
       0.848511         338.282         76.8874 
       0.864097         328.875         73.7397 
       0.879701         328.022         70.7655 
       0.895507         316.446         67.9207 
       0.911279         310.997         65.2385 
        0.92691         308.502         62.7236 
       0.942635         304.849         60.3275 
       0.958396         295.161         58.0518 
       0.974128          292.57         55.8977 
       0.989692         282.723         53.8743 
        1.00528          281.37         51.9481 
        1.02113         277.834         50.0861 
        1.03692         272.678         48.3223 
        1.05264         268.173         46.6516 
        1.06832         264.535         45.0627 
        1.08405         260.946         43.5436 
        1.09979         256.647         42.0937 
        1.11537         251.227         40.7242 
        1.13105         247.613         39.4076 
        1.14679         244.882         38.1441 
        1.16256          242.76         36.9337 
        1.17828         239.031         35.7798 
        1.19395         232.786         34.6791 
         1.2097         232.757         33.6192 
        1.22537         229.406         32.6087 
          1.241         223.029         31.6429 
        1.25666         222.076         30.7138 
        1.27241         218.641         29.8176 
        1.28819         214.876         28.9558 
        1.30392         213.831         28.1305 
        1.31957         207.896          27.341 
        1.33529         204.844          26.579 
        1.35108         204.471         25.8431 
        1.36674         198.506         25.1402 
         1.3824         197.677         24.4642 
        1.39811         196.215         23.8107 
        1.41389         190.967         23.1787 
        1.42964         188.457         22.5706 
        1.44531         187.459         21.9874 
        1.46101         184.008         21.4235 
        1.47667         182.227          20.881 
        1.49229         179.789         20.3588 
        1.50793         176.723         19.8539 
        1.52367         174.783         19.3628 
        1.53953          171.44         18.8851 
        1.55526         170.256         18.4273 
        1.57092         169.242         17.9865 
        1.58662         165.025         17.5591 
        1.60235         163.739         17.1448 
        1.61809         161.261         16.7436 
        1.63369         158.425         16.3588 
        1.64941         156.942         15.9834 
        1.66519         154.975         15.6184 
        1.68085         152.613         15.2673 
        1.69652         151.214          14.927 
        1.71228         148.595          14.595 
        1.72806         147.591         14.2729 
        1.74368         145.523         13.9638 
        1.75933         144.457         13.6632 
        1.77505         142.505           13.37 
        1.79081         139.588         13.0849 
         1.8065         137.995         12.8093 
        1.82218          135.69         12.5419 
        1.83797         134.903         12.2803 
        1.85367         133.375         12.0276 
        1.86928         131.953         11.7835 
        1.88497         130.441         11.5449 
        1.90073         129.186         11.3119 
        1.91647          126.86         11.0856 
        1.93218         125.457          10.866 
        1.94787         123.504         10.6526 
        1.96363         122.968         10.4441 
        1.97935         121.629         10.2417 
        1.99499         120.002         10.0457 
        2.01064         117.654         9.85453 
         2.0264         116.775         9.66715 
        2.04216         115.201         9.48473 
        2.05781         113.707         9.30816 
        2.07353         112.655         9.13545 
        2.08928         111.082         8.96674 
        2.10499         110.321         8.80274 
        2.12065         108.767         8.64333 
        2.13633         108.011         8.48772 
        2.15211         106.184         8.33493 
        2.16785         105.026         8.18632 
        2.18349         103.438         8.04227 
        2.19916         102.887         7.90137 
        2.21489         101.657         7.76337 
        2.23063         99.9314         7.62858 
         2.2463         99.0749         7.49758 
        2.26194          98.286         7.36998 
        2.27765         96.7706         7.24469 
        2.29341         95.9628         7.12199 
        2.30914         94.5939         7.00237 
        2.32486         93.1599         6.88557 
        2.34061         92.3461         6.77123 
        2.35635         91.5124         6.65958 
        2.37203         90.0297         6.55083 
        2.38768         89.1404         6.44474 
        2.40339         88.3605          6.3406 
        2.41914         87.0898         6.23852 
        2.43483         86.4662         6.13904 
         2.4505         85.1992         6.04189 
        2.46622         84.3112         5.94651 
        2.48195         83.6232         5.85318 
        2.49759         82.3497         5.76234 
        2.51328         81.5185          5.6732 
        2.52906         80.2784         5.58537 
        2.54479         79.5952         5.49972 
        2.56049         78.4049         5.41603 
        2.57618         77.6699         5.33416 
        2.59189         76.9394         5.25384 
        2.60758          75.597         5.17531 
        2.62325         75.1585         5.09847 
        2.63898         74.5564         5.02292 
        2.65468         73.6768         4.94906 
        2.67044         72.6881         4.87636 
        2.68618         72.0719         4.80529 
        2.70184         71.1562         4.73592 
        2.71755         70.4077         4.66774 
        2.73329         69.4509         4.60079 
        2.74897         69.0269         4.53537 
        2.76462         68.1992         4.47137 
        2.78034         67.1942         4.40833 
        2.79607         66.6065         4.34645 
        2.81179         66.1347         4.28581 
        2.82749         65.5777          4.2264 
        2.84321         64.7411         4.16805 
        2.85893          63.946         4.11081 
        2.87462         63.3565         4.05474 
        2.89033         62.7477         3.99967 
        2.90605         62.1021         3.94557 
        2.92176          61.474         3.89249 
        2.93747          60.993         3.84042 
        2.95318         60.0697         3.78928 
        2.96891         59.5276         3.73905 
        2.98456         58.8067         3.68995 
        3.00023         58.3788         3.64166 
        3.01596         57.6998         3.59408 
        3.03164         57.0196         3.54749 
        3.04738          56.729         3.50158 
         3.0631         55.7949          3.4565 
        3.07883         55.1703         3.41221 
        3.09456         54.5943          3.3687 
        3.11026         54.1284         3.32601 
        3.12596         53.6226         3.28406 
        3.14163         52.9207         3.24294 
        3.15734         52.3827         3.20242 
        3.17308         51.9245         3.16249 
        3.18879         51.5413         3.12335 
        3.20447         51.0349         3.08493 
         3.2202         50.3553         3.04704 
         3.2359         49.8388         3.00984 
        3.25157         49.4558         2.97336 
        3.26729         48.9136         2.93737 
        3.28304         48.5264          2.9019 
        3.29877         47.9246         2.86706 
        3.31446         47.5816         2.83287 
        3.33014         47.0016         2.79926 
        3.34585         46.4322         2.76615 
        3.36158         46.1049         2.73352 
        3.37727         45.5844         2.70152 
        3.39294         45.3212         2.67006 
        3.40867         44.8052         2.63898 
        3.42439         44.4487         2.60842 
        3.44008          43.809          2.5784 
        3.45578         43.5597         2.54883 
        3.47153         42.9438         2.51965 
        3.48724         42.5814         2.49098 
        3.50292         42.2828         2.46282 
        3.51859          41.788         2.43511 
        3.53431         41.3825         2.40774 
        3.55007          41.031         2.38073 
        3.56577         40.7177         2.35423 
        3.58146         40.2739         2.32814 
        3.59719         39.8663         2.30239 
        3.61292         39.4809         2.27704 
        3.62859         39.1597         2.25216 
        3.64429         38.8367         2.22761 
        3.66003         38.5484         2.20335 
        3.67578         38.1066         2.17945 
        3.69146          37.912           2.156 
        3.70712         37.4063         2.13293 
        3.72284         37.0999         2.11012 
        3.73853         36.8411         2.08768 
        3.75422         36.4566         2.06556 
        3.76993         36.1617         2.04373 
        3.78564           35.85         2.02223 
        3.80137         35.5078         2.00101 
        3.81707         35.1622         1.98013 
        3.83279         34.8904         1.95953 
        3.84853         34.4645         1.93919 
        3.86424         34.1393         1.91918 
        3.87992         33.9916         1.89948 
        3.89561         33.6466         1.88005 
        3.91134         33.3405         1.86086 
        3.92704          33.072         1.84195 
        3.94273         32.7362         1.82333 
        3.95845         32.5306         1.80493 
        3.97418         32.1107         1.78677 
        3.98988         31.8423          1.7689 
        4.00554         31.5894         1.75131 
        4.02125         31.3561         1.73391 
        4.03698         30.9411         1.71672 
        4.05268         30.7796          1.6998 
        4.06839         30.4361          1.6831 
         4.0841         30.2204         1.66663 
        4.09983         29.9113         1.65035 
        4.11555         29.5949         1.63429 
        4.13124         29.4337          1.6185 
        4.14693         29.1633         1.60289 
        4.16266         28.8455         1.58746 
        4.17839         28.6636         1.57224 
        4.19408          28.475         1.55725 
        4.20977         28.1896         1.54245 
        4.22551           27.91         1.52781 
        4.24123         27.6926         1.51337 
        4.25691         27.4552         1.49916 
        4.27259         27.3707         1.48512 
        4.28831         26.9756         1.47124 
        4.30404         26.8222         1.45751 
        4.31974         26.5263           1.444 
        4.33543         26.3585         1.43066 
        4.35116         26.1037         1.41746 
        4.36688         25.9545         1.40443 
        4.38255         25.7201         1.39161 
        4.39825         25.4394         1.37892 
        4.41398         25.2247         1.36636 
         4.4297         25.0888         1.35398 
        4.44541         24.8793         1.34175 
        4.46111         24.6787         1.32968 
        4.47683           24.44         1.31775 
        4.49251         24.2108         1.30599 
        4.50819         24.0685         1.29437 
         4.5239         23.8481         1.28288 
        4.53962         23.6763         1.27151 
        4.55535         23.4438         1.26028 
        4.57106         23.2973          1.2492 
        4.58678         23.0836         1.23825 
         4.6025         22.8966         1.22742 
        4.61821         22.6842         1.21673 
        4.63391         22.5056         1.20618 
         4.6496         22.3378         1.19575 
        4.66532         22.1926         1.18544 
        4.68103         21.9617         1.17525 
        4.69673         21.8242         1.16518 
        4.71241         21.6676         1.15525 
        4.72811         21.4511         1.14542 
        4.74384          21.291         1.13568 
        4.75955         21.1717         1.12608 
        4.77525         20.9367         1.11659 
        4.79096         20.8446         1.10719 
        4.80669         20.6135         1.09791 
         4.8224         20.4736         1.08873 
        4.83809         20.3175         1.07968 
        4.85379         20.1609         1.07071 
         4.8695         20.0298         1.06185 
        4.88521          19.845         1.05309 
        4.90093         19.6512         1.04442 
        4.91663         19.5603         1.03586 
        4.93234         19.3118         1.02738 
        4.94807         19.2231           1.019 
        4.96377         19.1133         1.01072 
        4.97943         18.9142         1.00256 
        4.99514         18.7818        0.994458 
        5.01086         18.5871        0.986443 
        5.02654         18.5253        0.978536 
        5.04227         18.3471        0.970693 
          5.058         18.1691        0.962931 
        5.07371         18.0802         0.95527 
        5.08942         17.9443         0.94769 
        5.10513         17.7895        0.940191 
        5.12084          17.728         0.93277 
        5.13656         17.5174         0.92543 
        5.15225         17.4249        0.918181 
        5.16796         17.2641        0.910998 
        5.18369         17.1533        0.903885 
         5.1994         17.0339        0.896861 
        5.21509         16.9151        0.889917 
        5.23079         16.7543        0.883039 
        5.24649         16.6488        0.876238 
        5.26217         16.5199        0.869514 
        5.27788         16.3923         0.86285 
        5.29359         16.2681        0.856255 
        5.30933         16.1828        0.849719 
        5.32504         16.0238        0.843262 
        5.34073         15.9154        0.836878 
        5.35646         15.8193        0.830548 
        5.37218         15.6885        0.824282 
        5.38789         15.5752        0.818091 
        5.40357         15.4743         0.81197 
        5.41929         15.3625        0.805898 
        5.43502         15.2224        0.799887 
         5.4507         15.1412        0.793952 
        5.46639         15.0569        0.788075 
        5.48212         14.9196        0.782245 
        5.49786         14.8017        0.776466 
        5.51353          14.696        0.770774 
        5.52921         14.5942        0.765133 
        5.54495         14.4827        0.759532 
        5.56066         14.3678        0.753993 
        5.57637         14.3006         0.74851 
        5.59207         14.1745        0.743086 
        5.60778         14.0899        0.737713 
        5.62346         13.9872        0.732401 
        5.63916         13.8914        0.727136 
        5.65487         13.7729         0.72192 
         5.6706         13.6917        0.716748 
        5.68633         13.6151        0.711626 
        5.70203         13.4959        0.706564 
        5.71773         13.4062        0.701551 
        5.73344         13.3065        0.696585 
        5.74916         13.2368        0.691662 
        5.76486         13.1287        0.686793 
        5.78054         13.0651        0.681978 
        5.79626         12.9413        0.677196 
          5.812         12.8609        0.672455 
         5.8277         12.7673        0.667773 
        5.84339         12.6817        0.663135 
        5.85911         12.6079        0.658532 
        5.87484         12.4986        0.653974 
        5.89053         12.4209        0.649468 
        5.90623         12.3316        0.645002 
        5.92195         12.2322         0.64057 
        5.93767         12.1282        0.636182 
        5.95336         12.0908        0.631842 
        5.96905         11.9802        0.627544 
        5.98476         11.9345         0.62328 
        6.00048          11.822        0.619054 
        6.01617         11.7504        0.614873 
        6.03185         11.6818        0.610735 
        6.04756         11.5964        0.606626 
        6.06331         11.5196        0.602545 
        6.07903         11.4348        0.598511 
        6.09473         11.3687        0.594516 
        6.11044          11.299        0.590555 
        6.12616          11.201        0.586631 
        6.14186         11.1493        0.582745 
        6.15755         11.0522        0.578895 
        6.17326         10.9835        0.575077 
        6.18898         10.9147        0.571291 
        6.20467         10.8385        0.567546 
        6.22036         10.7577        0.563835 
         6.2361          10.691        0.560147 
         6.2518         10.6315        0.556498 
        6.26748         10.5467        0.552889 
        6.28319         10.5037        0.549302 
        6.29893         10.4206        0.545744 
        6.31463         10.3491        0.542223 
        6.33033         10.2808        0.538734 
        6.34604         10.2087        0.535274 
        6.36177          10.139         0.53184 
        6.37747           10.09        0.528443 
