# k  (h/Mpc)    Pcb(k)  (Mpc/h)^3    Pcb_linear(k) (Mpc/h)^3   ShotnoiseSubtracted = true
      0.0200456         1156.66         1172.33 
      0.0350414         808.608         811.616 
      0.0492313         582.357         580.264 
      0.0637834         483.865         480.176 
      0.0800726         374.179         370.929 
       0.096163         263.179         263.521 
       0.111083         210.847         212.402 
       0.126058         189.341         188.702 
       0.142273         157.395         155.457 
       0.158546         123.567         121.242 
        0.17375         103.795         103.873 
       0.188953         95.2928         94.2166 
       0.204907          84.984         81.5199 
       0.220756           70.31         68.2753 
        0.23588         61.7698         60.1411 
         0.2514         55.6495         54.8498 
       0.267535         50.1465         48.8819 
       0.283568          44.223         42.7293 
       0.299022         40.0145         38.3351 
       0.314451         35.9163         35.1647 
       0.330372         33.0831         31.9825 
       0.346141          29.866         28.8243 
       0.361624         27.4583         26.2618 
       0.377134         25.6345         24.2258 
       0.392932         22.7803         22.3244 
       0.408854         21.6737         20.4768 
       0.424564         20.0224         18.8696 
       0.440253         18.4931         17.5144 
       0.455999         17.3596         16.2869 
       0.471626         16.2656         15.1406 
        0.48727         15.1831         14.0998 
       0.502856         14.1368         13.1824 
       0.518488         13.4658         12.3493 
       0.534347         12.8186         11.5656 
       0.550082         11.6912         10.8502 
       0.565732         10.7953         10.2051 
       0.581496         10.5346         9.61121 
       0.597222         10.0684         9.06293 
       0.612804          9.3694          8.5598 
       0.628434         9.01009         8.09424 
       0.644267         8.59082         7.65974 
       0.660051         8.08544         7.25849 
       0.675724         7.67271         6.88809 
       0.691403         7.39608         6.54313 
       0.707174         7.00737         6.21977 
       0.722871          6.6988         5.91947 
        0.73838         6.42152         5.64214 
       0.754018         6.20471         5.38045 
       0.769845         5.87526         5.13249 
        0.78569         5.66747         4.89991 
       0.801365         5.41003         4.68405 
       0.817031         5.21858         4.48137 
       0.832809         5.03456         4.28943 
       0.848511          4.7487         4.10962 
       0.864097         4.57357         3.94137 
       0.879701         4.41677         3.78241 
       0.895507         4.21742         3.63035 
       0.911279         4.14927         3.48699 
        0.92691         3.98552         3.35256 
       0.942635         3.80677          3.2245 
       0.958396         3.66842         3.10286 
       0.974128          3.5619         2.98772 
       0.989692         3.48357         2.87957 
        1.00528         3.32484         2.77662 
        1.02113         3.20053         2.67709 
        1.03692         3.13672         2.58282 
        1.05264           3.022         2.49352 
        1.06832         2.94585         2.40859 
        1.08405         2.80352          2.3274 
        1.09979         2.74537          2.2499 
        1.11537         2.66958          2.1767 
        1.13105         2.59672         2.10633 
        1.14679         2.52449          2.0388 
        1.16256         2.43559          1.9741 
        1.17828         2.37894         1.91242 
        1.19395          2.3127         1.85359 
         1.2097         2.21366         1.79694 
        1.22537         2.16243         1.74293 
          1.241         2.11559         1.69131 
        1.25666         2.09566         1.64165 
        1.27241         1.99464         1.59375 
        1.28819         1.95223         1.54768 
        1.30392         1.91406         1.50357 
        1.31957         1.86715         1.46137 
        1.33529         1.80861         1.42064 
        1.35108         1.76631         1.38131 
        1.36674         1.71385         1.34374 
         1.3824         1.66699         1.30761 
        1.39811         1.62925         1.27268 
        1.41389         1.60111          1.2389 
        1.42964         1.56302          1.2064 
        1.44531         1.52531         1.17522 
        1.46101         1.49154         1.14508 
        1.47667         1.43976         1.11609 
        1.49229         1.42719         1.08818 
        1.50793         1.38755         1.06119 
        1.52367         1.36392         1.03494 
        1.53953         1.31955          1.0094 
        1.55526         1.29362        0.984935 
        1.57092         1.26734        0.961376 
        1.58662         1.24392        0.938532 
        1.60235         1.21253        0.916386 
        1.61809         1.18494        0.894943 
        1.63369         1.17359        0.874376 
        1.64941         1.13915        0.854309 
        1.66519          1.1192        0.834798 
        1.68085         1.08627        0.816036 
        1.69652         1.06772        0.797843 
        1.71228         1.05306        0.780103 
        1.72806         1.02237        0.762887 
        1.74368         1.00928        0.746363 
        1.75933        0.984477        0.730295 
        1.77505        0.968655        0.714624 
        1.79081        0.950419        0.699386 
         1.8065        0.926641        0.684656 
        1.82218        0.915938        0.670364 
        1.83797        0.899762        0.656381 
        1.85367        0.888213        0.642874 
        1.86928        0.870497        0.629827 
        1.88497        0.847608        0.617071 
        1.90073        0.828623        0.604622 
        1.91647        0.823139        0.592526 
        1.93218        0.806829        0.580786 
        1.94787        0.788763        0.569382 
        1.96363        0.773583        0.558238 
        1.97935        0.760466        0.547415 
        1.99499         0.74681         0.53694 
        2.01064        0.733516        0.526723 
         2.0264         0.72502        0.516708 
        2.04216        0.711083        0.506957 
        2.05781        0.697436         0.49752 
        2.07353        0.687379        0.488288 
        2.08928        0.672672        0.479271 
        2.10499        0.663814        0.470505 
        2.12065        0.657449        0.461984 
        2.13633        0.644726        0.453667 
        2.15211        0.631971        0.445501 
        2.16785          0.6193        0.437558 
        2.18349        0.612738        0.429858 
        2.19916        0.602025        0.422327 
        2.21489        0.591021        0.414951 
        2.23063        0.581367        0.407746 
         2.2463        0.577134        0.400744 
        2.26194        0.560797        0.393924 
        2.27765         0.55378        0.387228 
        2.29341        0.548628        0.380669 
        2.30914        0.542859        0.374276 
        2.32486        0.532891        0.368032 
        2.34061        0.523965        0.361921 
        2.35635         0.51307        0.355953 
        2.37203        0.507697        0.350141 
        2.38768        0.500976         0.34447 
        2.40339        0.494003        0.338904 
        2.41914        0.487877        0.333448 
        2.43483        0.478858        0.328131 
         2.4505        0.471551        0.322938 
        2.46622        0.464951         0.31784 
        2.48195         0.46126        0.312851 
        2.49759        0.452997        0.307996 
        2.51328        0.444741        0.303231 
        2.52906         0.43953        0.298537 
        2.54479        0.433957        0.293959 
        2.56049         0.42694        0.289486 
        2.57618        0.422496         0.28511 
        2.59189        0.416355        0.280817 
        2.60758        0.411745        0.276619 
        2.62325        0.405329        0.272512 
        2.63898        0.400885        0.268474 
        2.65468         0.39492        0.264526 
        2.67044        0.388687        0.260641 
        2.68618         0.38351        0.256842 
        2.70184        0.378772        0.253134 
        2.71755        0.373449         0.24949 
        2.73329        0.369786        0.245912 
        2.74897        0.365167        0.242415 
        2.76462        0.359826        0.238994 
        2.78034        0.355988        0.235625 
        2.79607        0.351084        0.232317 
        2.81179        0.346545        0.229076 
        2.82749        0.342935          0.2259 
        2.84321         0.33917        0.222781 
        2.85893        0.334458        0.219722 
        2.87462        0.330241        0.216725 
        2.89033        0.325564        0.213782 
        2.90605        0.322841         0.21089 
        2.92176        0.318241        0.208053 
        2.93747        0.314703         0.20527 
        2.95318        0.310987        0.202536 
        2.96891        0.307725        0.199852 
        2.98456        0.304097        0.197227 
        3.00023        0.300878        0.194646 
        3.01596        0.296762        0.192103 
        3.03164        0.294458        0.189613 
        3.04738        0.289098        0.187159 
         3.0631        0.287385        0.184749 
        3.07883        0.282726        0.182382 
        3.09456        0.279923        0.180056 
        3.11026         0.27738        0.177775 
        3.12596        0.273565        0.175533 
        3.14163        0.271384        0.173334 
        3.15734        0.269147        0.171169 
        3.17308        0.265526        0.169035 
        3.18879         0.26303        0.166943 
        3.20447        0.259622        0.164889 
         3.2202        0.257462        0.162864 
         3.2359        0.254624        0.160876 
        3.25157        0.251853        0.158926 
        3.26729        0.249927        0.157002 
        3.28304        0.247262        0.155106 
        3.29877         0.24432        0.153244 
        3.31446        0.242409        0.151416 
        3.33014         0.24003         0.14962 
        3.34585         0.23873         0.14785 
        3.36158        0.235518        0.146106 
        3.37727        0.233529        0.144396 
        3.39294         0.23116        0.142714 
        3.40867        0.228454        0.141053 
        3.42439        0.227051         0.13942 
        3.44008        0.224738        0.137815 
        3.45578         0.22344        0.136234 
        3.47153        0.220802        0.134675 
        3.48724        0.219715        0.133143 
        3.50292        0.217683        0.131638 
        3.51859        0.214617        0.130156 
        3.53431        0.213081        0.128693 
        3.55007        0.211946        0.127249 
        3.56577        0.209466        0.125833 
        3.58146        0.207317        0.124439 
        3.59719        0.206062        0.123063 
        3.61292        0.204586        0.121707 
        3.62859        0.201816        0.120378 
        3.64429        0.200754        0.119065 
        3.66003        0.199271        0.117768 
        3.67578        0.197222        0.116491 
        3.69146        0.195872        0.115238 
        3.70712        0.194337        0.114005 
        3.72284        0.192822        0.112786 
        3.73853        0.191858        0.111586 
        3.75422        0.189708        0.110404 
        3.76993        0.188456        0.109237 
        3.78564         0.18673        0.108088 
        3.80137        0.185058        0.106953 
        3.81707        0.184233        0.105837 
        3.83279        0.182437        0.104737 
        3.84853         0.18085        0.103649 
        3.86424        0.179434         0.10258 
        3.87992        0.178424        0.101527 
        3.89561        0.176515        0.100488 
        3.91134        0.175974       0.0994625 
        3.92704        0.173794       0.0984521 
        3.94273        0.172373       0.0974566 
        3.95845        0.171049        0.096473 
        3.97418        0.169801       0.0955028 
        3.98988        0.168201       0.0945472 
        4.00554        0.166768       0.0936072 
        4.02125        0.165167       0.0926772 
        4.03698        0.163822       0.0917585 
        4.05268         0.16233       0.0908542 
        4.06839        0.160114       0.0899614 
         4.0841        0.158095       0.0890809 
        4.09983         0.15631       0.0882108 
        4.11555        0.154728       0.0873528 
        4.13124        0.152565       0.0865084 
        4.14693         0.15164       0.0856744 
        4.16266        0.149763       0.0848495 
        4.17839        0.148561       0.0840359 
        4.19408        0.147168       0.0832348 
        4.20977        0.145883       0.0824438 
        4.22551        0.144559       0.0816611 
        4.24123        0.143024       0.0808894 
        4.25691        0.141831       0.0801297 
        4.27259        0.140648       0.0793794 
        4.28831        0.139628       0.0786373 
        4.30404        0.138027       0.0779039 
        4.31974        0.137677       0.0771814 
        4.33543        0.136095       0.0764685 
        4.35116        0.135163       0.0757629 
        4.36688        0.134196       0.0750663 
        4.38255        0.132968       0.0743812 
        4.39825        0.132675        0.073703 
        4.41398        0.131374       0.0730319 
         4.4297        0.130427       0.0723699 
        4.44541        0.129868       0.0717162 
        4.46111        0.129382        0.071071 
        4.47683        0.128711       0.0704333 
        4.49251        0.127643       0.0698047 
        4.50819        0.127031       0.0691839 
         4.5239        0.126709       0.0685697 
        4.53962        0.125969       0.0679622 
        4.55535         0.12553       0.0673617 
        4.57106        0.124971       0.0667694 
        4.58678        0.124587        0.066184 
         4.6025        0.124028       0.0656055 
        4.61821        0.123706       0.0650339 
        4.63391          0.1232       0.0644699 
         4.6496        0.123163       0.0639128 
        4.66532         0.12275       0.0633614 
        4.68103        0.122733       0.0628167 
        4.69673        0.122246       0.0622789 
        4.71241        0.122085       0.0617479 
        4.72811        0.121709       0.0612223 
        4.74384        0.121933        0.060702 
        4.75955        0.121919       0.0601886 
        4.77525        0.121984       0.0596814 
        4.79096        0.121499       0.0591794 
        4.80669        0.121542       0.0586829 
         4.8224        0.121643       0.0581926 
        4.83809        0.121627       0.0577085 
        4.85379        0.122168       0.0572295 
         4.8695        0.121712       0.0567556 
        4.88521        0.122076       0.0562872 
        4.90093        0.122518       0.0558241 
        4.91663        0.122745       0.0553665 
        4.93234        0.122884       0.0549135 
        4.94807        0.123369       0.0544654 
        4.96377         0.12377        0.054023 
        4.97943        0.124392       0.0535865 
        4.99514        0.124425       0.0531536 
        5.01086        0.125428       0.0527252 
        5.02654        0.125459       0.0523026 
        5.04227        0.125706       0.0518834 
          5.058        0.126926       0.0514685 
        5.07371        0.127444        0.051059 
        5.08942        0.128231       0.0506539 
        5.10513        0.128664       0.0502531 
        5.12084        0.129404       0.0498564 
        5.13656        0.130091       0.0494641 
        5.15225        0.131319       0.0490766 
        5.16796        0.132257       0.0486927 
        5.18369         0.13213       0.0483125 
         5.1994        0.133566       0.0479371 
        5.21509        0.134663       0.0475659 
        5.23079        0.136138       0.0471983 
        5.24649        0.136976       0.0468348 
        5.26217        0.137769       0.0464754 
        5.27788        0.138956       0.0461192 
        5.29359        0.139941       0.0457667 
        5.30933         0.14178       0.0454173 
        5.32504        0.142191       0.0450722 
        5.34073        0.144041        0.044731 
        5.35646        0.144873       0.0443927 
        5.37218        0.146029       0.0440578 
        5.38789        0.147455       0.0437268 
        5.40357        0.149439       0.0433997 
        5.41929        0.150665       0.0430751 
        5.43502        0.151516       0.0427538 
         5.4507        0.153724       0.0424366 
        5.46639         0.15516       0.0421225 
        5.48212        0.156995       0.0418108 
        5.49786        0.158862        0.041502 
        5.51353        0.160973       0.0411977 
        5.52921        0.161991       0.0408962 
        5.54495        0.163999       0.0405969 
        5.56066        0.166638       0.0403008 
        5.57637        0.168043       0.0400077 
        5.59207        0.170359       0.0397178 
        5.60778        0.172118       0.0394306 
        5.62346        0.174623       0.0391467 
        5.63916        0.175886       0.0388653 
        5.65487        0.178008       0.0385865 
         5.6706        0.179974       0.0383101 
        5.68633        0.183526       0.0380363 
        5.70203        0.185214       0.0377657 
        5.71773        0.187623       0.0374978 
        5.73344        0.188994       0.0372324 
        5.74916        0.192185       0.0369692 
        5.76486        0.193884        0.036709 
        5.78054        0.197403       0.0364516 
        5.79626        0.198621        0.036196 
          5.812         0.20184       0.0359426 
         5.8277         0.20423       0.0356923 
        5.84339        0.207937       0.0354445 
        5.85911        0.210318       0.0351984 
        5.87484        0.211347       0.0349548 
        5.89053        0.215279       0.0347139 
        5.90623        0.217656       0.0344752 
        5.92195        0.220793       0.0342383 
        5.93767        0.223312       0.0340038 
        5.95336        0.226333       0.0337718 
        5.96905        0.230645       0.0335421 
        5.98476        0.232239       0.0333142 
        6.00048        0.235985       0.0330883 
        6.01617        0.238453       0.0328649 
        6.03185        0.240627       0.0326437 
        6.04756        0.244054        0.032424 
        6.06331        0.247011       0.0322059 
        6.07903        0.249372       0.0319903 
        6.09473        0.254179       0.0317768 
        6.11044        0.257109       0.0315651 
        6.12616        0.259866       0.0313553 
        6.14186        0.263679       0.0311476 
        6.15755        0.266447       0.0309419 
        6.17326        0.270873       0.0307378 
        6.18898        0.273989       0.0305354 
        6.20467         0.27795       0.0303353 
        6.22036        0.278509       0.0301369 
         6.2361        0.282372       0.0299398 
         6.2518        0.286776       0.0297447 
        6.26748         0.28864       0.0295518 
        6.28319        0.292474       0.0293601 
        6.29893        0.296021       0.0291699 
        6.31463        0.300906       0.0289817 
        6.33033        0.303422       0.0287953 
        6.34604        0.306449       0.0286103 
        6.36177        0.310068       0.0284268 
        6.37747        0.313541       0.0282452 
