# k  (h/Mpc)    Pcb(k)  (Mpc/h)^3    Pcb_linear(k) (Mpc/h)^3   ShotnoiseSubtracted = true
      0.0200456         5091.56         5165.74 
      0.0350414         4046.48         3975.44 
      0.0492313         2992.44         3003.67 
      0.0637834         2488.56         2553.84 
      0.0800726         1994.75         2056.38 
       0.096163         1554.91         1522.78 
       0.111083          1284.2         1240.84 
       0.126058         1094.55         1110.22 
       0.142273         935.177         942.445 
       0.158546         770.127         753.072 
        0.17375         674.808         645.366 
       0.188953         616.807         588.239 
       0.204907         525.964         520.002 
       0.220756         470.079         442.764 
        0.23588         417.562         390.032 
         0.2514         377.895         356.786 
       0.267535         359.395         322.817 
       0.283568         314.872         285.641 
       0.299022         295.759         256.702 
       0.314451         287.728         236.099 
       0.330372         251.926          216.89 
       0.346141         233.275         197.263 
       0.361624         219.759         180.303 
       0.377134          201.58         166.773 
       0.392932         197.153         154.703 
       0.408854         185.041         142.891 
       0.424564         177.084         132.188 
       0.440253         160.907         123.066 
       0.455999          150.79         114.984 
       0.471626         145.731         107.448 
        0.48727         141.462          100.45 
       0.502856         130.094         94.2054 
       0.518488         126.825          88.581 
       0.534347          119.63         83.3066 
       0.550082         116.345         78.4369 
       0.565732         113.465         74.0001 
       0.581496         105.212         69.9177 
       0.597222         102.158         66.1524 
       0.612804         99.2154         62.6791 
       0.628434         96.7098         59.4435 
       0.644267         91.7988         56.4149 
       0.660051         88.5735         53.6122 
       0.675724         86.4848         51.0178 
       0.691403         84.9162         48.5946 
       0.707174         82.2285         46.3167 
       0.722871         80.0552         44.1954 
        0.73838         77.1585          42.231 
       0.754018         73.2254         40.3723 
       0.769845         72.5301         38.6063 
        0.78569          70.058         36.9455 
       0.801365         68.4086         35.3999 
       0.817031         65.9336          33.945 
       0.832809         64.9562         32.5638 
       0.848511         63.1499         31.2667 
       0.864097         62.0509         30.0502 
       0.879701         60.8285         28.8981 
       0.895507            58.7         27.7936 
       0.911279          57.634           26.75 
        0.92691         56.0356         25.7693 
       0.942635         55.0663          24.833 
       0.958396         54.5909         23.9418 
       0.974128         53.1646         23.0966 
       0.989692         51.7061         22.3011 
        1.00528         50.9524         21.5423 
        1.02113         49.8726         20.8074 
        1.03692         49.2958         20.1099 
        1.05264         48.1773         19.4481 
        1.06832         47.2235         18.8174 
        1.08405         46.1311         18.2134 
        1.09979         45.9882         17.6359 
        1.11537         44.6077         17.0895 
        1.13105         43.6408         16.5633 
        1.14679         42.9891         16.0575 
        1.16256         42.4363          15.572 
        1.17828         41.8081         15.1086 
        1.19395         41.0092         14.6657 
         1.2097          40.465         14.2386 
        1.22537          39.746         13.8308 
          1.241         39.0399         13.4404 
        1.25666         38.5737         13.0643 
        1.27241         38.1096         12.7009 
        1.28819         36.7839          12.351 
        1.30392         37.1005         12.0154 
        1.31957         36.3094         11.6939 
        1.33529         35.6033         11.3832 
        1.35108         35.1929         11.0826 
        1.36674         34.8437         10.7952 
         1.3824         34.1871         10.5183 
        1.39811         33.4241         10.2504 
        1.41389         33.1557         9.99087 
        1.42964         32.8118         9.74087 
        1.44531         32.1874         9.50075 
        1.46101         31.9296          9.2683 
        1.47667         31.5462         9.04441 
        1.49229         30.9631          8.8286 
        1.50793          30.619         8.61967 
        1.52367         30.2056         8.41623 
        1.53953          29.918         8.21806 
        1.55526         29.4083         8.02792 
        1.57092          29.228         7.84466 
        1.58662         28.8078         7.66674 
        1.60235         28.3358         7.49406 
        1.61809         28.1399         7.32667 
        1.63369         27.8258         7.16593 
        1.64941         27.4964         7.00892 
        1.66519         26.9322         6.85609 
        1.68085         26.5607         6.70897 
        1.69652         26.5202         6.56615 
        1.71228         26.1034         6.42674 
        1.72806         25.7168          6.2913 
        1.74368         25.4924         6.16116 
        1.75933         25.2096         6.03449 
        1.77505         24.9692         5.91082 
        1.79081          24.695         5.79043 
         1.8065         24.3665         5.67395 
        1.82218          24.121         5.56081 
        1.83797         23.9882         5.45001 
        1.85367         23.7933         5.34287 
        1.86928         23.5129         5.23928 
        1.88497         23.1948         5.13791 
        1.90073         22.9043         5.03887 
        1.91647          22.574         4.94255 
        1.93218         22.6496         4.84899 
        1.94787         22.2095           4.758 
        1.96363         22.1218         4.66902 
        1.97935           21.72         4.58252 
        1.99499         21.4957         4.49871 
        2.01064         21.3465         4.41691 
         2.0264         21.0608         4.33664 
        2.04216         20.9621         4.25843 
        2.05781          20.732         4.18266 
        2.07353         20.5046         4.10848 
        2.08928         20.2233         4.03595 
        2.10499         20.0171         3.96539 
        2.12065         19.8615         3.89675 
        2.13633         19.7243         3.82968 
        2.15211         19.4492         3.76377 
        2.16785         19.3728         3.69962 
        2.18349         19.0863         3.63738 
        2.19916         18.9119         3.57645 
        2.21489         18.7293         3.51673 
        2.23063          18.623         3.45834 
         2.2463         18.3589         3.40156 
        2.26194         18.2068          3.3462 
        2.27765         17.9357         3.29181 
        2.29341         17.8204         3.23849 
        2.30914         17.6499         3.18647 
        2.32486         17.5641         3.13564 
        2.34061          17.392         3.08584 
        2.35635         17.1955         3.03718 
        2.37203         17.0164         2.98975 
        2.38768          16.819         2.94343 
        2.40339         16.7443         2.89794 
        2.41914         16.5241         2.85331 
        2.43483         16.3555         2.80979 
         2.4505         16.2043         2.76726 
        2.46622         16.1197         2.72547 
        2.48195         15.9927         2.68455 
        2.49759         15.7244         2.64469 
        2.51328         15.7485         2.60555 
        2.52906         15.5294         2.56696 
        2.54479         15.3603          2.5293 
        2.56049         15.1969         2.49248 
        2.57618         15.1468         2.45642 
        2.59189         15.0458         2.42104 
        2.60758          14.802         2.38641 
        2.62325          14.707         2.35251 
        2.63898         14.6169         2.31915 
        2.65468         14.4013         2.28652 
        2.67044         14.3522         2.25438 
        2.68618         14.2338         2.22293 
        2.70184         14.0606         2.19222 
        2.71755         13.9795         2.16202 
        2.73329         13.7871         2.13234 
        2.74897         13.7412         2.10333 
        2.76462         13.6123         2.07492 
        2.78034         13.4708         2.04692 
        2.79607         13.3696         2.01942 
        2.81179         13.2299         1.99245 
        2.82749         13.1313         1.96602 
        2.84321         13.0325         1.94004 
        2.85893         12.9062         1.91453 
        2.87462         12.8501         1.88954 
        2.89033         12.7035         1.86497 
        2.90605         12.6007         1.84082 
        2.92176         12.4612         1.81712 
        2.93747         12.3864         1.79385 
        2.95318         12.2674         1.77098 
        2.96891         12.1949         1.74851 
        2.98456         12.0829         1.72652 
        3.00023          11.998         1.70489 
        3.01596          11.848         1.68357 
        3.03164         11.8337         1.66267 
        3.04738         11.6832         1.64207 
         3.0631         11.5295         1.62183 
        3.07883         11.4735         1.60193 
        3.09456         11.4281         1.58237 
        3.11026         11.3483         1.56317 
        3.12596         11.2142         1.54429 
        3.14163         11.1608         1.52577 
        3.15734         11.0135         1.50752 
        3.17308         10.9489         1.48952 
        3.18879         10.8664         1.47187 
        3.20447         10.7462         1.45453 
         3.2202         10.6784         1.43742 
         3.2359         10.5698         1.42062 
        3.25157         10.5389         1.40412 
        3.26729         10.4285         1.38785 
        3.28304         10.3373          1.3718 
        3.29877         10.2542         1.35602 
        3.31446         10.1806         1.34054 
        3.33014         10.0964         1.32531 
        3.34585         10.0525         1.31029 
        3.36158         9.94721         1.29549 
        3.37727         9.88417         1.28096 
        3.39294         9.78171         1.26667 
        3.40867         9.73112         1.25255 
        3.42439         9.64477         1.23866 
        3.44008         9.54161           1.225 
        3.45578         9.47946         1.21154 
        3.47153         9.38414         1.19826 
        3.48724          9.3427          1.1852 
        3.50292         9.23686         1.17236 
        3.51859         9.19796         1.15973 
        3.53431         9.09609         1.14724 
        3.55007         9.04198         1.13491 
        3.56577         8.94038         1.12281 
        3.58146         8.92088         1.11089 
        3.59719         8.83396         1.09912 
        3.61292         8.76865         1.08752 
        3.62859         8.70889         1.07614 
        3.64429          8.6351          1.0649 
        3.66003         8.57842         1.05378 
        3.67578         8.49076         1.04283 
        3.69146         8.45223         1.03208 
        3.70712         8.39088          1.0215 
        3.72284          8.2829         1.01104 
        3.73853         8.24396         1.00073 
        3.75422         8.17393        0.990571 
        3.76993         8.09835        0.980543 
        3.78564         8.05351        0.970659 
        3.80137         8.02276        0.960896 
        3.81707         7.91722        0.951288 
        3.83279         7.86959        0.941806 
        3.84853         7.81081        0.932438 
        3.86424         7.76001        0.923217 
        3.87992         7.69688        0.914136 
        3.89561         7.63896        0.905177 
        3.91134         7.56237        0.896321 
        3.92704         7.51968        0.887594 
        3.94273         7.45714        0.878993 
        3.95845         7.42238        0.870492 
        3.97418         7.35739        0.862101 
        3.98988         7.31266        0.853834 
        4.00554         7.24591        0.845698 
        4.02125         7.19479        0.837646 
        4.03698         7.14465        0.829688 
        4.05268          7.0656        0.821851 
        4.06839         7.01662        0.814111 
         4.0841         6.97436        0.806473 
        4.09983         6.91181        0.798924 
        4.11555         6.83816        0.791475 
        4.13124         6.80453        0.784142 
        4.14693         6.75986        0.776896 
        4.16266         6.71883        0.769726 
        4.17839         6.66962        0.762652 
        4.19408         6.62065        0.755683 
        4.20977         6.56319        0.748799 
        4.22551         6.52272        0.741984 
        4.24123         6.46451        0.735263 
        4.25691         6.42027        0.728643 
        4.27259         6.37171        0.722104 
        4.28831         6.31695        0.715632 
        4.30404         6.26536        0.709234 
        4.31974         6.22533        0.702929 
        4.33543         6.19112        0.696704 
        4.35116         6.13507        0.690541 
        4.36688         6.09218        0.684455 
        4.38255         6.04861        0.678466 
        4.39825         6.00341        0.672536 
        4.41398          5.9648        0.666665 
         4.4297         5.93226        0.660872 
        4.44541         5.87264        0.655148 
        4.46111         5.84636        0.649498 
        4.47683         5.77994         0.64391 
        4.49251         5.76099          0.6384 
        4.50819         5.71872        0.632957 
         4.5239         5.68052         0.62757 
        4.53962         5.61982        0.622239 
        4.55535         5.59406        0.616968 
        4.57106         5.55552        0.611766 
        4.58678         5.51182        0.606623 
         4.6025         5.48023        0.601539 
        4.61821         5.43531        0.596514 
        4.63391         5.38346        0.591554 
         4.6496         5.35853        0.586652 
        4.66532         5.31623        0.581799 
        4.68103         5.28115        0.577003 
        4.69673         5.25311        0.572266 
        4.71241         5.21084        0.567588 
        4.72811         5.18615        0.562955 
        4.74384         5.14023        0.558367 
        4.75955         5.09987        0.553839 
        4.77525         5.05867        0.549363 
        4.79096         5.03867        0.544932 
        4.80669         5.00297        0.540548 
         4.8224         4.95017        0.536217 
        4.83809         4.92941        0.531939 
        4.85379         4.88537        0.527705 
         4.8695         4.86289        0.523514 
        4.88521         4.83617        0.519371 
        4.90093         4.79476        0.515273 
        4.91663         4.77634        0.511222 
        4.93234         4.72706        0.507211 
        4.94807         4.70702        0.503241 
        4.96377         4.66538        0.499322 
        4.97943         4.64335        0.495452 
        4.99514         4.60739        0.491614 
        5.01086         4.57687        0.487814 
        5.02654         4.53969        0.484064 
        5.04227         4.51274        0.480342 
          5.058         4.48233        0.476659 
        5.07371         4.45251        0.473021 
        5.08942         4.41803        0.469421 
        5.10513         4.38632        0.465859 
        5.12084         4.37215        0.462332 
        5.13656         4.34677        0.458843 
        5.15225         4.30966        0.455395 
        5.16796          4.2871        0.451978 
        5.18369          4.2449        0.448593 
         5.1994           4.229        0.445249 
        5.21509         4.18893        0.441943 
        5.23079         4.16674        0.438666 
        5.24649         4.14322        0.435426 
        5.26217         4.10904         0.43222 
        5.27788         4.08446        0.429043 
        5.29359         4.06112        0.425897 
        5.30933         4.03858        0.422779 
        5.32504         4.01785        0.419697 
        5.34073         3.99267         0.41665 
        5.35646         3.95664        0.413627 
        5.37218         3.94293        0.410633 
        5.38789         3.91342        0.407674 
        5.40357         3.88249        0.404748 
        5.41929         3.85735        0.401845 
        5.43502         3.83462        0.398969 
         5.4507         3.81245        0.396129 
        5.46639         3.77539        0.393317 
        5.48212         3.76792        0.390525 
        5.49786         3.74256        0.387757 
        5.51353         3.71968         0.38503 
        5.52921          3.6924        0.382327 
        5.54495         3.66801        0.379642 
        5.56066         3.64886        0.376986 
        5.57637         3.61891        0.374356 
        5.59207         3.60108        0.371753 
        5.60778         3.58161        0.369175 
        5.62346         3.55371        0.366624 
        5.63916         3.53388        0.364096 
        5.65487         3.51411         0.36159 
         5.6706          3.4877        0.359105 
        5.68633         3.47459        0.356642 
        5.70203           3.453        0.354208 
        5.71773         3.42866        0.351797 
        5.73344         3.40144        0.349408 
        5.74916         3.38837        0.347039 
        5.76486         3.36806        0.344695 
        5.78054          3.3469        0.342376 
        5.79626         3.32595        0.340073 
          5.812         3.30082        0.337788 
         5.8277         3.28146        0.335531 
        5.84339         3.26379        0.333296 
        5.85911         3.24172        0.331076 
        5.87484         3.22655        0.328877 
        5.89053         3.20771        0.326702 
        5.90623         3.18713        0.324547 
        5.92195         3.17414        0.322407 
        5.93767         3.15097        0.320288 
        5.95336         3.12951        0.318191 
        5.96905         3.11186        0.316114 
        5.98476         3.09132        0.314053 
        6.00048         3.07435         0.31201 
        6.01617         3.05418        0.309988 
        6.03185         3.04279        0.307986 
        6.04756         3.02032        0.305998 
        6.06331         3.00729        0.304023 
        6.07903         2.98642        0.302069 
        6.09473         2.96909        0.300135 
        6.11044           2.953        0.298216 
        6.12616         2.93371        0.296314 
        6.14186         2.91474         0.29443 
        6.15755         2.90455        0.292564 
        6.17326         2.88708        0.290712 
        6.18898         2.86543        0.288875 
        6.20467          2.8519        0.287058 
        6.22036         2.84031        0.285257 
         6.2361         2.81746        0.283466 
         6.2518         2.80351        0.281694 
        6.26748         2.78676        0.279941 
        6.28319         2.77525        0.278198 
        6.29893          2.7552        0.276468 
        6.31463         2.74362        0.274756 
        6.33033         2.72808         0.27306 
        6.34604         2.70954        0.271377 
        6.36177          2.7008        0.269706 
        6.37747         2.68155        0.268053 
