# k  (h/Mpc)    Pcb(k)  (Mpc/h)^3    Pcb_linear(k) (Mpc/h)^3   ShotnoiseSubtracted = true
      0.0200456         456.121         462.964 
      0.0350414         354.981         356.287 
      0.0492313         270.024         269.195 
      0.0637834         229.943         228.881 
      0.0800726         184.983         184.297 
       0.096163         136.369         136.475 
       0.111083          110.65         111.207 
       0.126058         99.6129         99.5007 
       0.142273         84.8409          84.464 
       0.158546         68.0722         67.4919 
        0.17375         57.6785         57.8391 
       0.188953         52.8781         52.7193 
       0.204907         47.6626         46.6037 
       0.220756         40.2014         39.6815 
        0.23588         35.3947         34.9555 
         0.2514         32.1198          31.976 
       0.267535         29.1683         28.9316 
       0.283568         25.9532         25.5997 
       0.299022         23.4465         23.0062 
       0.314451         21.2243         21.1597 
       0.330372         19.6532         19.4381 
       0.346141         17.8995         17.6792 
       0.361624         16.4628         16.1591 
       0.377134         15.3433         14.9466 
       0.392932         13.8309         13.8649 
       0.408854         13.1296         12.8062 
       0.424564         12.1083          11.847 
       0.440253         11.2573         11.0294 
       0.455999         10.6102         10.3051 
       0.471626          9.9713         9.62973 
        0.48727         9.27929         9.00255 
       0.502856         8.66988         8.44289 
       0.518488         8.28145         7.93882 
       0.534347          7.8676         7.46612 
       0.550082         7.24884         7.02969 
       0.565732         6.72868         6.63205 
       0.581496         6.53558         6.26617 
       0.597222          6.2294         5.92872 
       0.612804         5.83911         5.61743 
       0.628434         5.61995         5.32745 
       0.644267         5.32476         5.05602 
       0.660051         5.03719         4.80484 
       0.675724         4.80758         4.57233 
       0.691403         4.62362         4.35516 
       0.707174         4.38236         4.15101 
       0.722871         4.18117         3.96089 
        0.73838         4.03163         3.78483 
       0.754018         3.89296         3.61825 
       0.769845         3.69366         3.45998 
        0.78569         3.55401         3.31113 
       0.801365         3.40057         3.17262 
       0.817031         3.28129         3.04223 
       0.832809         3.15147         2.91844 
       0.848511         2.99926         2.80219 
       0.864097           2.877         2.69316 
       0.879701         2.77546         2.58991 
       0.895507          2.6828         2.49093 
       0.911279          2.6153         2.39739 
        0.92691         2.51255          2.3095 
       0.942635         2.41381         2.22558 
       0.958396         2.32259         2.14572 
       0.974128         2.24987         2.06997 
       0.989692         2.19475         1.99867 
        1.00528         2.10827         1.93067 
        1.02113         2.02484          1.8648 
        1.03692         1.98721          1.8023 
        1.05264         1.91586         1.74298 
        1.06832         1.86343         1.68646 
        1.08405         1.77865         1.63233 
        1.09979         1.73571         1.58057 
        1.11537         1.69469          1.5316 
        1.13105            1.65         1.48444 
        1.14679         1.60649          1.4391 
        1.16256         1.54457          1.3956 
        1.17828         1.50721         1.35406 
        1.19395         1.46228         1.31437 
         1.2097         1.40407          1.2761 
        1.22537         1.38127         1.23955 
          1.241         1.34588         1.20456 
        1.25666         1.32694         1.17085 
        1.27241         1.26965         1.13828 
        1.28819         1.23761         1.10692 
        1.30392          1.2159         1.07685 
        1.31957         1.18428         1.04803 
        1.33529         1.14956         1.02018 
        1.35108         1.12083        0.993247 
        1.36674         1.08201        0.967488 
         1.3824         1.06829        0.942676 
        1.39811         1.03841        0.918663 
        1.41389         1.01768        0.895403 
        1.42964        0.995918        0.872998 
        1.44531        0.966501        0.851477 
        1.46101        0.951447        0.830645 
        1.47667        0.913671        0.810579 
        1.49229           0.906        0.791238 
        1.50793        0.880044        0.772513 
        1.52367         0.86468         0.75428 
        1.53953        0.839362         0.73652 
        1.55526        0.824301         0.71948 
        1.57092        0.803961        0.703055 
        1.58662        0.790296         0.68711 
        1.60235        0.773598        0.671634 
        1.61809         0.75127        0.656632 
        1.63369        0.747005        0.642226 
        1.64941        0.724039        0.628154 
        1.66519        0.709783        0.614458 
        1.68085         0.69015        0.601272 
        1.69652        0.678172        0.588473 
        1.71228        0.668668        0.575978 
        1.72806        0.649657         0.56384 
        1.74368        0.643768        0.552177 
        1.75933         0.62708        0.540824 
        1.77505        0.615513         0.52974 
        1.79081        0.604305        0.518951 
         1.8065        0.587177        0.508512 
        1.82218        0.581261        0.498372 
        1.83797        0.568776        0.488441 
        1.85367        0.563038         0.47884 
        1.86928        0.549994        0.469556 
        1.88497        0.539069        0.460471 
        1.90073        0.528268        0.451594 
        1.91647        0.521794        0.442962 
        1.93218        0.508742        0.434577 
        1.94787        0.501035        0.426423 
        1.96363         0.49194        0.418448 
        1.97935        0.481081        0.410695 
        1.99499         0.47407        0.403184 
        2.01064        0.466052        0.395853 
         2.0264        0.456029        0.388659 
        2.04216        0.452856         0.38165 
        2.05781         0.44301        0.374859 
        2.07353        0.433489        0.368211 
        2.08928        0.425147        0.361711 
        2.10499        0.419888        0.355387 
        2.12065        0.415888        0.349235 
        2.13633        0.407619        0.343224 
        2.15211        0.400455        0.337318 
        2.16785        0.393147        0.331568 
        2.18349        0.385149         0.32599 
        2.19916        0.382126        0.320529 
        2.21489        0.374465        0.315177 
        2.23063        0.369857        0.309944 
         2.2463        0.363868        0.304855 
        2.26194        0.355016        0.299894 
        2.27765        0.351538        0.295019 
        2.29341        0.347022         0.29024 
        2.30914        0.341901        0.285579 
        2.32486        0.335429        0.281023 
        2.34061        0.330524         0.27656 
        2.35635        0.324587        0.272199 
        2.37203        0.320656        0.267948 
        2.38768        0.315407        0.263797 
        2.40339        0.311875         0.25972 
        2.41914        0.307427         0.25572 
        2.43483        0.302606         0.25182 
         2.4505        0.296597        0.248008 
        2.46622        0.292334        0.244263 
        2.48195        0.289566        0.240595 
        2.49759        0.286293        0.237023 
        2.51328        0.281492        0.233515 
        2.52906        0.278354        0.230056 
        2.54479        0.272893        0.226681 
        2.56049        0.268044        0.223381 
        2.57618        0.264682         0.22015 
        2.59189        0.262369        0.216979 
        2.60758         0.25926        0.213875 
        2.62325        0.254316        0.210837 
        2.63898        0.251619        0.207847 
        2.65468        0.247098        0.204923 
        2.67044        0.244668        0.202042 
        2.68618        0.241401        0.199224 
        2.70184        0.237927        0.196472 
        2.71755        0.233974        0.193765 
        2.73329        0.231907        0.191105 
        2.74897        0.229185        0.188505 
        2.76462        0.225757        0.185959 
        2.78034        0.222464         0.18345 
        2.79607        0.219721        0.180985 
        2.81179        0.217553        0.178568 
        2.82749        0.214392        0.176199 
        2.84321        0.211769         0.17387 
        2.85893          0.2094        0.171585 
        2.87462        0.206774        0.169345 
        2.89033        0.203886        0.167143 
        2.90605         0.20117        0.164979 
        2.92176        0.199211        0.162854 
        2.93747        0.195833        0.160768 
        2.95318        0.194412        0.158719 
        2.96891        0.191682        0.156705 
        2.98456        0.189316        0.154735 
        3.00023         0.18736        0.152796 
        3.01596         0.18515        0.150885 
        3.03164        0.183268        0.149012 
        3.04738        0.180079        0.147166 
         3.0631        0.178936        0.145352 
        3.07883        0.176243        0.143568 
        3.09456        0.174251        0.141815 
        3.11026        0.172318        0.140095 
        3.12596        0.170288        0.138403 
        3.14163        0.168453        0.136743 
        3.15734        0.166915        0.135107 
        3.17308         0.16549        0.133494 
        3.18879        0.163024        0.131912 
        3.20447        0.160464        0.130358 
         3.2202         0.16001        0.128825 
         3.2359        0.157603        0.127319 
        3.25157        0.156034        0.125841 
        3.26729        0.154013        0.124382 
        3.28304         0.15337        0.122943 
        3.29877        0.151023         0.12153 
        3.31446         0.14969        0.120142 
        3.33014        0.148507        0.118777 
        3.34585        0.146897        0.117431 
        3.36158        0.145167        0.116104 
        3.37727        0.144236        0.114802 
        3.39294        0.142395        0.113522 
        3.40867        0.140736        0.112256 
        3.42439        0.139431        0.111011 
        3.44008        0.137642        0.109787 
        3.45578        0.136704        0.108581 
        3.47153        0.135581         0.10739 
        3.48724        0.134326         0.10622 
        3.50292        0.132684         0.10507 
        3.51859        0.131089        0.103937 
        3.53431        0.129891        0.102818 
        3.55007        0.129044        0.101713 
        3.56577         0.12763        0.100628 
        3.58146        0.126691       0.0995601 
        3.59719        0.125965       0.0985051 
        3.61292        0.124743       0.0974659 
        3.62859        0.123237       0.0964457 
        3.64429        0.121926       0.0954383 
        3.66003        0.120995       0.0944423 
        3.67578        0.119953        0.093461 
        3.69146        0.118758       0.0924975 
        3.70712        0.118114       0.0915494 
        3.72284        0.117018       0.0906112 
        3.73853        0.115926       0.0896878 
        3.75422        0.115077       0.0887771 
        3.76993        0.113668       0.0878784 
        3.78564        0.112838       0.0869925 
        3.80137        0.111827       0.0861175 
        3.81707        0.111027       0.0852565 
        3.83279         0.11026       0.0844067 
        3.84853        0.108991       0.0835671 
        3.86424        0.108208       0.0827407 
        3.87992        0.107172       0.0819268 
        3.89561         0.10635       0.0811239 
        3.91134        0.105524       0.0803302 
        3.92704        0.104652       0.0795481 
        3.94273         0.10358       0.0787773 
        3.95845        0.103073       0.0780153 
        3.97418        0.102187       0.0772634 
        3.98988        0.100962       0.0765225 
        4.00554        0.100562       0.0757933 
        4.02125       0.0992617       0.0750717 
        4.03698       0.0980239       0.0743584 
        4.05268       0.0969874       0.0736561 
        4.06839       0.0959603       0.0729623 
         4.0841       0.0947588       0.0722779 
        4.09983       0.0938205       0.0716013 
        4.11555       0.0925722       0.0709337 
        4.13124       0.0916151       0.0702765 
        4.14693       0.0904781       0.0696271 
        4.16266       0.0893743       0.0689845 
        4.17839       0.0887328       0.0683505 
        4.19408       0.0878845       0.0677259 
        4.20977       0.0870151        0.067109 
        4.22551       0.0860176       0.0664983 
        4.24123       0.0850952       0.0658958 
        4.25691       0.0843305       0.0653026 
        4.27259       0.0836032       0.0647165 
        4.28831       0.0826858       0.0641365 
        4.30404       0.0822127       0.0635631 
        4.31974        0.081704        0.062998 
        4.33543       0.0809441       0.0624402 
        4.35116       0.0803868       0.0618878 
        4.36688       0.0795372       0.0613423 
        4.38255       0.0789385       0.0608056 
        4.39825        0.078477       0.0602741 
        4.41398       0.0782429        0.059748 
         4.4297       0.0776471       0.0592287 
        4.44541       0.0772566       0.0587158 
        4.46111       0.0768053       0.0582094 
        4.47683       0.0763872       0.0577086 
        4.49251       0.0758143       0.0572148 
        4.50819       0.0754773        0.056727 
         4.5239       0.0749912       0.0562441 
        4.53962       0.0747582       0.0557664 
        4.55535       0.0745568        0.055294 
        4.57106        0.074454       0.0548278 
        4.58678       0.0738396       0.0543669 
         4.6025       0.0739875       0.0539112 
        4.61821       0.0737534       0.0534609 
        4.63391       0.0736303       0.0530163 
         4.6496       0.0733799        0.052577 
        4.66532       0.0733488       0.0521421 
        4.68103        0.073145       0.0517123 
        4.69673       0.0729974       0.0512878 
        4.71241       0.0730957       0.0508685 
        4.72811        0.073073       0.0504532 
        4.74384       0.0730779       0.0500421 
        4.75955       0.0731781       0.0496362 
        4.77525       0.0733166       0.0492351 
        4.79096       0.0733441        0.048838 
        4.80669       0.0732296       0.0484451 
         4.8224       0.0735205       0.0480569 
        4.83809       0.0737594       0.0476735 
        4.85379       0.0738034       0.0472941 
         4.8695       0.0740479       0.0469185 
        4.88521       0.0743138       0.0465472 
        4.90093       0.0746055       0.0461799 
        4.91663       0.0749191       0.0458169 
        4.93234       0.0749107       0.0454574 
        4.94807       0.0752939       0.0451016 
        4.96377        0.075818       0.0447503 
        4.97943       0.0762982       0.0444035 
        4.99514       0.0765578       0.0440595 
        5.01086       0.0770551       0.0437189 
        5.02654       0.0772705       0.0433828 
        5.04227       0.0778374       0.0430493 
          5.058       0.0784836       0.0427192 
        5.07371       0.0790288       0.0423932 
        5.08942       0.0792585       0.0420705 
        5.10513       0.0802065       0.0417513 
        5.12084       0.0808955       0.0414352 
        5.13656       0.0812583       0.0411225 
        5.15225       0.0823487       0.0408135 
        5.16796       0.0828229       0.0405073 
        5.18369       0.0835233       0.0402039 
         5.1994       0.0843831       0.0399042 
        5.21509       0.0852149       0.0396079 
        5.23079       0.0859935       0.0393142 
        5.24649       0.0867925       0.0390238 
        5.26217       0.0876039       0.0387365 
        5.27788       0.0886291       0.0384518 
        5.29359       0.0897987       0.0381698 
        5.30933       0.0904163       0.0378904 
        5.32504       0.0915818       0.0376142 
        5.34073       0.0926762        0.037341 
        5.35646       0.0936795       0.0370701 
        5.37218       0.0950719       0.0368018 
        5.38789        0.096136       0.0365366 
        5.40357       0.0969829       0.0362744 
        5.41929       0.0986304       0.0360142 
        5.43502       0.0995804       0.0357565 
         5.4507        0.101044        0.035502 
        5.46639        0.102516       0.0352499 
        5.48212        0.103494       0.0349997 
        5.49786        0.105097       0.0347517 
        5.51353        0.107161       0.0345073 
        5.52921        0.107589        0.034265 
        5.54495        0.109346       0.0340243 
        5.56066         0.11094       0.0337863 
        5.57637        0.112834       0.0335506 
        5.59207        0.114426       0.0333173 
        5.60778        0.116273       0.0330862 
        5.62346        0.117911       0.0328576 
        5.63916         0.12007        0.032631 
        5.65487        0.121711       0.0324065 
         5.6706        0.122944       0.0321837 
        5.68633         0.12536       0.0319631 
        5.70203        0.126644       0.0317449 
        5.71773        0.129564       0.0315288 
        5.73344        0.131243       0.0313147 
        5.74916        0.133822       0.0311024 
        5.76486        0.135679       0.0308923 
        5.78054        0.137625       0.0306845 
        5.79626        0.139383        0.030478 
          5.812        0.142609       0.0302733 
         5.8277        0.144074       0.0300711 
        5.84339        0.146504       0.0298707 
        5.85911        0.149708       0.0296717 
        5.87484        0.151325       0.0294747 
        5.89053        0.154692       0.0292798 
        5.90623        0.157075       0.0290866 
        5.92195        0.159648       0.0288948 
        5.93767        0.162739       0.0287049 
        5.95336        0.164639        0.028517 
        5.96905        0.168174       0.0283309 
        5.98476        0.170567       0.0281461 
        6.00048        0.173118        0.027963 
        6.01617        0.176092       0.0277818 
        6.03185        0.179797       0.0276024 
        6.04756        0.182338       0.0274242 
        6.06331        0.185325       0.0272472 
        6.07903        0.189396       0.0270721 
        6.09473        0.192142       0.0268987 
        6.11044        0.195517       0.0267267 
        6.12616        0.198005       0.0265563 
        6.14186        0.202122       0.0263875 
        6.15755        0.204728       0.0262202 
        6.17326        0.208759       0.0260542 
        6.18898          0.2114       0.0258896 
        6.20467        0.216263       0.0257268 
        6.22036        0.220001       0.0255653 
         6.2361        0.221647       0.0254048 
         6.2518        0.226845        0.025246 
        6.26748        0.229605       0.0250889 
        6.28319        0.233021       0.0249327 
        6.29893        0.237785       0.0247777 
        6.31463        0.242086       0.0246243 
        6.33033        0.246521       0.0244722 
        6.34604        0.249941       0.0243214 
        6.36177        0.253408       0.0241716 
        6.37747         0.25808       0.0240234 
