# k  (h/Mpc)    Pcb(k)  (Mpc/h)^3    Pcb_linear(k) (Mpc/h)^3   ShotnoiseSubtracted = true
      0.0200456         4532.07          4597.5 
      0.0350414         3598.96         3538.14 
      0.0492313         2665.57         2673.26 
      0.0637834          2218.6         2272.92 
      0.0800726         1778.97         1830.18 
       0.096163         1383.22         1355.27 
       0.111083         1141.66         1104.35 
       0.126058         975.074           988.1 
       0.142273         832.137         838.776 
       0.158546         684.417         670.234 
        0.17375         599.002         574.376 
       0.188953         546.587         523.533 
       0.204907         466.153         462.801 
       0.220756          416.04          394.06 
        0.23588         369.213         347.128 
         0.2514         334.498          317.54 
       0.267535         316.882         287.307 
       0.283568         277.838          254.22 
       0.299022         260.109         228.465 
       0.314451         251.834         210.128 
       0.330372         221.264         193.032 
       0.346141         204.621         175.564 
       0.361624         192.162         160.469 
       0.377134          176.11         148.428 
       0.392932         172.158         137.686 
       0.408854         161.036         127.173 
       0.424564         154.059         117.647 
       0.440253         140.213         109.528 
       0.455999         130.817         102.336 
       0.471626         125.916         95.6288 
        0.48727         122.479         89.4006 
       0.502856         112.913         83.8428 
       0.518488         109.398         78.8371 
       0.534347         103.378         74.1429 
       0.550082         100.307         69.8089 
       0.565732         97.6158         65.8601 
       0.581496         90.6842         62.2267 
       0.597222         87.6876         58.8756 
       0.612804         85.1013         55.7844 
       0.628434          83.085         52.9047 
       0.644267         78.8112         50.2092 
       0.660051         75.9097         47.7148 
       0.675724         73.7781         45.4058 
       0.691403         72.5739         43.2492 
       0.707174         70.2722         41.2219 
       0.722871         68.2395         39.3339 
        0.73838         65.5491         37.5856 
       0.754018         62.3378         35.9313 
       0.769845         61.6265         34.3596 
        0.78569         59.4516         32.8815 
       0.801365         58.0739         31.5059 
       0.817031         55.9335         30.2111 
       0.832809         55.1159         28.9818 
       0.848511         53.4771         27.8274 
       0.864097         52.4555         26.7447 
       0.879701         51.4612         25.7193 
       0.895507         49.6862         24.7363 
       0.911279         48.5446         23.8075 
        0.92691         47.4018         22.9346 
       0.942635         46.5567         22.1013 
       0.958396         45.9577         21.3082 
       0.974128         44.7187          20.556 
       0.989692          43.382         19.8479 
        1.00528         42.8598         19.1727 
        1.02113         41.8714         18.5186 
        1.03692         41.2709         17.8978 
        1.05264         40.3705         17.3088 
        1.06832         39.6467         16.7475 
        1.08405         38.6184           16.21 
        1.09979         38.4115          15.696 
        1.11537         37.2489         15.2097 
        1.13105         36.5457         14.7413 
        1.14679         35.8449         14.2911 
        1.16256         35.3753         13.8591 
        1.17828         34.8746         13.4466 
        1.19395         34.2606         13.0525 
         1.2097          33.621         12.6724 
        1.22537         33.0739         12.3094 
          1.241         32.5074         11.9619 
        1.25666         32.1267         11.6272 
        1.27241         31.6346         11.3038 
        1.28819         30.4919         10.9924 
        1.30392          30.885         10.6937 
        1.31957         30.1265         10.4076 
        1.33529         29.5215          10.131 
        1.35108         29.2852         9.86352 
        1.36674         28.8822         9.60771 
         1.3824         28.3293         9.36132 
        1.39811         27.7145         9.12285 
        1.41389         27.4832         8.89187 
        1.42964           27.19         8.66937 
        1.44531         26.7215         8.45566 
        1.46101         26.4067         8.24878 
        1.47667         26.1072         8.04952 
        1.49229         25.5988         7.85745 
        1.50793         25.3416          7.6715 
        1.52367         25.0111         7.49044 
        1.53953         24.7067         7.31407 
        1.55526         24.2773         7.14485 
        1.57092         24.2018         6.98175 
        1.58662          23.884          6.8234 
        1.60235         23.4226         6.66971 
        1.61809          23.279         6.52073 
        1.63369         22.9629         6.37768 
        1.64941         22.7271         6.23794 
        1.66519         22.2631         6.10192 
        1.68085         21.9233         5.97098 
        1.69652         21.9727         5.84388 
        1.71228         21.5212         5.71979 
        1.72806         21.2337         5.59925 
        1.74368         21.0609         5.48343 
        1.75933         20.8373         5.37069 
        1.77505         20.6092         5.26063 
        1.79081         20.3775         5.15348 
         1.8065         20.1655         5.04981 
        1.82218         19.9733         4.94912 
        1.83797         19.8401         4.85051 
        1.85367         19.6911         4.75515 
        1.86928         19.4222         4.66296 
        1.88497         19.2002         4.57274 
        1.90073         18.9373         4.48459 
        1.91647         18.5936         4.39887 
        1.93218         18.6271          4.3156 
        1.94787         18.2711         4.23462 
        1.96363         18.2417         4.15543 
        1.97935         17.9562         4.07844 
        1.99499         17.7402         4.00385 
        2.01064         17.6309         3.93105 
         2.0264         17.3425         3.85961 
        2.04216         17.3361            3.79 
        2.05781         17.1384         3.72257 
        2.07353         16.9397         3.65655 
        2.08928         16.7274           3.592 
        2.10499         16.5192          3.5292 
        2.12065         16.4218          3.4681 
        2.13633         16.2763         3.40841 
        2.15211         16.0906         3.34976 
        2.16785         15.9685         3.29266 
        2.18349         15.7554         3.23726 
        2.19916         15.5973         3.18304 
        2.21489         15.4752         3.12989 
        2.23063         15.3824         3.07792 
         2.2463          15.151         3.02739 
        2.26194         15.0378         2.97812 
        2.27765         14.8384         2.92971 
        2.29341         14.6851         2.88226 
        2.30914         14.5958         2.83596 
        2.32486         14.4875         2.79072 
        2.34061         14.3769          2.7464 
        2.35635          14.213         2.70309 
        2.37203         14.0391         2.66087 
        2.38768         13.8767         2.61965 
        2.40339         13.8321         2.57917 
        2.41914         13.6469         2.53945 
        2.43483         13.5311         2.50071 
         2.4505         13.4376         2.46286 
        2.46622         13.3189         2.42567 
        2.48195         13.2516         2.38925 
        2.49759         13.0287         2.35378 
        2.51328          13.017         2.31894 
        2.52906         12.8506         2.28459 
        2.54479          12.701         2.25108 
        2.56049         12.5924          2.2183 
        2.57618          12.519         2.18622 
        2.59189         12.4823         2.15472 
        2.60758         12.2811          2.1239 
        2.62325         12.1978         2.09373 
        2.63898         12.1288         2.06404 
        2.65468          11.976           2.035 
        2.67044         11.9025          2.0064 
        2.68618         11.7873         1.97841 
        2.70184         11.6981         1.95108 
        2.71755         11.6044          1.9242 
        2.73329         11.4436         1.89779 
        2.74897          11.397         1.87196 
        2.76462         11.3259         1.84668 
        2.78034         11.1915         1.82176 
        2.79607         11.1228         1.79728 
        2.81179         11.0062         1.77328 
        2.82749         10.9318         1.74976 
        2.84321         10.8493         1.72663 
        2.85893         10.7796         1.70394 
        2.87462         10.6884         1.68169 
        2.89033         10.5757         1.65982 
        2.90605          10.499         1.63833 
        2.92176          10.397         1.61723 
        2.93747         10.3236         1.59652 
        2.95318         10.2348         1.57617 
        2.96891          10.163         1.55617 
        2.98456         10.0828         1.53661 
        3.00023         10.0018         1.51735 
        3.01596         9.86626         1.49837 
        3.03164         9.86428         1.47977 
        3.04738         9.74454         1.46144 
         3.0631         9.63788         1.44342 
        3.07883         9.60282         1.42572 
        3.09456         9.51907         1.40831 
        3.11026         9.45865         1.39122 
        3.12596         9.35833         1.37442 
        3.14163         9.32895         1.35794 
        3.15734         9.20765         1.34169 
        3.17308         9.16129         1.32567 
        3.18879         9.08247         1.30996 
        3.20447         8.99306         1.29453 
         3.2202          8.9442          1.2793 
         3.2359         8.85953         1.26435 
        3.25157         8.82529         1.24967 
        3.26729          8.7375         1.23518 
        3.28304         8.66967          1.2209 
        3.29877          8.6014         1.20686 
        3.31446         8.56147         1.19308 
        3.33014         8.47411         1.17952 
        3.34585         8.43155         1.16616 
        3.36158         8.35934         1.15298 
        3.37727         8.29611         1.14005 
        3.39294         8.20845         1.12734 
        3.40867         8.18393         1.11477 
        3.42439         8.07765          1.1024 
        3.44008         8.01892         1.09025 
        3.45578          7.9743         1.07827 
        3.47153          7.8977         1.06645 
        3.48724         7.85791         1.05482 
        3.50292         7.78638          1.0434 
        3.51859           7.747         1.03216 
        3.53431         7.67831         1.02104 
        3.55007         7.62072         1.01007 
        3.56577         7.53752        0.999296 
        3.58146         7.52626        0.988689 
        3.59719         7.45302        0.978213 
        3.61292         7.38937        0.967893 
        3.62859         7.33855        0.957762 
        3.64429         7.29646        0.947758 
        3.66003         7.23851        0.937867 
        3.67578         7.18335        0.928122 
        3.69146         7.13346        0.918553 
        3.70712         7.08428        0.909138 
        3.72284         7.01231        0.899821 
        3.73853         6.97849        0.890652 
        3.75422         6.91654        0.881608 
        3.76993          6.8713        0.872683 
        3.78564         6.83426        0.863886 
        3.80137         6.79298        0.855197 
        3.81707         6.70621        0.846647 
        3.83279         6.68633        0.838207 
        3.84853         6.62278         0.82987 
        3.86424         6.55541        0.821663 
        3.87992         6.53862        0.813581 
        3.89561         6.49609        0.805607 
        3.91134         6.43922        0.797725 
        3.92704         6.38941        0.789959 
        3.94273         6.33744        0.782304 
        3.95845         6.30417        0.774737 
        3.97418         6.24937         0.76727 
        3.98988          6.2035        0.759912 
        4.00554         6.17047        0.752671 
        4.02125         6.11293        0.745505 
        4.03698         6.08449        0.738422 
        4.05268         6.02165        0.731447 
        4.06839         5.98048        0.724558 
         4.0841          5.9389        0.717761 
        4.09983         5.89435        0.711042 
        4.11555         5.83505        0.704412 
        4.13124         5.80973        0.697886 
        4.14693         5.78692        0.691437 
        4.16266         5.73417        0.685056 
        4.17839         5.70305         0.67876 
        4.19408         5.65791        0.672558 
        4.20977         5.61042        0.666431 
        4.22551         5.57184        0.660366 
        4.24123          5.5265        0.654384 
        4.25691         5.49448        0.648493 
        4.27259         5.45176        0.642672 
        4.28831         5.39894        0.636912 
        4.30404         5.36285        0.631218 
        4.31974         5.32496        0.625607 
        4.33543         5.29159        0.620067 
        4.35116         5.26373        0.614581 
        4.36688         5.22897        0.609165 
        4.38255         5.18708        0.603834 
        4.39825         5.15809        0.598557 
        4.41398         5.12886        0.593332 
         4.4297         5.09049        0.588176 
        4.44541         5.05445        0.583082 
        4.46111         5.01879        0.578053 
        4.47683         4.96673         0.57308 
        4.49251         4.94783        0.568176 
        4.50819          4.9204        0.563331 
         4.5239         4.88635        0.558537 
        4.53962         4.83701        0.553792 
        4.55535         4.81455        0.549101 
        4.57106         4.78347        0.544471 
        4.58678         4.74364        0.539894 
         4.6025         4.72633        0.535369 
        4.61821         4.67684        0.530897 
        4.63391         4.64349        0.526483 
         4.6496         4.61584         0.52212 
        4.66532         4.58024        0.517801 
        4.68103         4.56251        0.513533 
        4.69673         4.53309        0.509317 
        4.71241           4.491        0.505153 
        4.72811         4.47703        0.501029 
        4.74384         4.44206        0.496947 
        4.75955         4.40801        0.492916 
        4.77525         4.37516        0.488933 
        4.79096         4.35811        0.484989 
        4.80669         4.32398        0.481087 
         4.8224         4.28756        0.477233 
        4.83809          4.2726        0.473426 
        4.85379         4.22842        0.469658 
         4.8695         4.20763        0.465928 
        4.88521         4.19103         0.46224 
        4.90093         4.16017        0.458593 
        4.91663         4.13137        0.454988 
        4.93234         4.10251        0.451418 
        4.94807          4.0835        0.447885 
        4.96377         4.05001        0.444396 
        4.97943         4.02338        0.440952 
        4.99514         4.00191        0.437536 
        5.01086         3.97217        0.434154 
        5.02654         3.94351        0.430817 
        5.04227         3.91854        0.427505 
          5.058         3.90807        0.424226 
        5.07371         3.87116        0.420989 
        5.08942         3.84243        0.417785 
        5.10513         3.82287        0.414614 
        5.12084         3.79612        0.411475 
        5.13656          3.7739         0.40837 
        5.15225         3.75758        0.405302 
        5.16796         3.73142         0.40226 
        5.18369         3.70021        0.399248 
         5.1994         3.67614        0.396272 
        5.21509         3.65161        0.393329 
        5.23079         3.63077        0.390413 
        5.24649         3.61389        0.387529 
        5.26217         3.58342        0.384676 
        5.27788         3.56608        0.381848 
        5.29359         3.54731        0.379049 
        5.30933         3.52829        0.376273 
        5.32504         3.50466         0.37353 
        5.34073         3.48463        0.370818 
        5.35646         3.45671        0.368128 
        5.37218          3.4413        0.365463 
        5.38789         3.42216         0.36283 
        5.40357         3.39697        0.360226 
        5.41929         3.37904        0.357642 
        5.43502         3.35962        0.355083 
         5.4507         3.32703        0.352555 
        5.46639         3.31289        0.350052 
        5.48212         3.29284        0.347567 
        5.49786          3.2799        0.345104 
        5.51353         3.25543        0.342677 
        5.52921         3.23331        0.340271 
        5.54495         3.22009        0.337881 
        5.56066         3.19699        0.335517 
        5.57637         3.17626        0.333177 
        5.59207         3.15507         0.33086 
        5.60778         3.14131        0.328565 
        5.62346         3.12092        0.326295 
        5.63916         3.10997        0.324045 
        5.65487         3.08009        0.321815 
         5.6706         3.07205        0.319603 
        5.68633         3.05066        0.317412 
        5.70203         3.03482        0.315245 
        5.71773         3.01635          0.3131 
        5.73344         2.99783        0.310973 
        5.74916         2.98059        0.308864 
        5.76486         2.96441        0.306778 
        5.78054         2.94374        0.304715 
        5.79626         2.93033        0.302665 
          5.812         2.90687        0.300631 
         5.8277         2.88751        0.298623 
        5.84339         2.87486        0.296633 
        5.85911           2.864        0.294657 
        5.87484         2.84701          0.2927 
        5.89053         2.82951        0.290765 
        5.90623         2.81083        0.288847 
        5.92195         2.80033        0.286942 
        5.93767         2.78335        0.285056 
        5.95336         2.76588         0.28319 
        5.96905         2.74972        0.281342 
        5.98476         2.72847        0.279508 
        6.00048         2.72182        0.277689 
        6.01617         2.69842        0.275889 
        6.03185         2.69115        0.274108 
        6.04756         2.67352        0.272338 
        6.06331          2.6583         0.27058 
        6.07903         2.63878        0.268841 
        6.09473         2.62755         0.26712 
        6.11044         2.61677        0.265412 
        6.12616         2.60104        0.263719 
        6.14186         2.58619        0.262043 
        6.15755         2.57938        0.260382 
        6.17326         2.56056        0.258734 
        6.18898         2.54278        0.257099 
        6.20467         2.52738        0.255482 
        6.22036         2.51828        0.253878 
         6.2361         2.50735        0.252285 
         6.2518         2.49531        0.250707 
        6.26748         2.47546        0.249147 
        6.28319         2.46269        0.247596 
        6.29893         2.45157        0.246057 
        6.31463         2.43904        0.244533 
        6.33033         2.42872        0.243023 
        6.34604         2.41021        0.241525 
        6.36177         2.40282        0.240038 
        6.37747         2.38773        0.238567 
