# k  (h/Mpc)    Pcb(k)  (Mpc/h)^3    Pcb_linear(k) (Mpc/h)^3   ShotnoiseSubtracted = true
      0.0200456         13403.4           13630 
      0.0350414         10739.4         10489.3 
      0.0492313          7794.6         7925.27 
      0.0637834         6430.77          6738.4 
      0.0800726         5131.01         5425.83 
       0.096163         4106.97          4017.9 
       0.111083         3407.75            3274 
       0.126058         2851.49         2929.36 
       0.142273         2476.19         2486.67 
       0.158546         2052.74            1987 
        0.17375         1827.34         1702.82 
       0.188953         1709.28         1552.09 
       0.204907         1468.39         1372.04 
       0.220756         1323.92         1168.25 
        0.23588         1185.69         1029.11 
         0.2514         1069.72         941.392 
       0.267535         1039.37         851.763 
       0.283568         916.132         753.672 
       0.299022         877.727         677.317 
       0.314451         898.727         622.954 
       0.330372         779.558         572.271 
       0.346141         722.355         520.486 
       0.361624          693.45         475.734 
       0.377134         655.996         440.036 
       0.392932         635.723          408.19 
       0.408854          605.63         377.024 
       0.424564         588.261         348.782 
       0.440253         537.484         324.712 
       0.455999         515.801         303.388 
       0.471626         522.793         283.505 
        0.48727           495.9         265.041 
       0.502856         459.921         248.564 
       0.518488         459.661         233.724 
       0.534347         428.925         219.807 
       0.550082         415.052         206.958 
       0.565732         412.619         195.252 
       0.581496         398.925          184.48 
       0.597222         387.483         174.545 
       0.612804         379.099         165.381 
       0.628434         363.331         156.843 
       0.644267         349.397         148.852 
       0.660051         344.158         141.457 
       0.675724         340.668         134.612 
       0.691403         330.821         128.219 
       0.707174         319.001         122.208 
       0.722871         314.295         116.611 
        0.73838         311.269         111.428 
       0.754018         297.758         106.523 
       0.769845         295.932         101.864 
        0.78569         289.964         97.4818 
       0.801365         282.634         93.4038 
       0.817031         275.815          89.565 
       0.832809         272.628         85.9207 
       0.848511         265.506         82.4983 
       0.864097         259.513         79.2884 
       0.879701         257.954         76.2486 
       0.895507          251.14         73.3344 
       0.911279         243.873         70.5806 
        0.92691         242.054          67.993 
       0.942635         240.049         65.5226 
       0.958396         233.807         63.1712 
       0.974128          229.13         60.9411 
       0.989692         222.261          58.842 
        1.00528         220.996         56.8401 
        1.02113         217.442          54.901 
        1.03692         212.774         53.0607 
        1.05264         209.869         51.3144 
        1.06832         208.433         49.6504 
        1.08405         202.845         48.0567 
        1.09979         201.956         46.5329 
        1.11537         197.027         45.0912 
        1.13105         194.236         43.7027 
        1.14679         191.826         42.3681 
        1.16256         189.334         41.0873 
        1.17828          186.62         39.8644 
        1.19395         181.575          38.696 
         1.2097         181.227          37.569 
        1.22537         179.176          36.493 
          1.241         175.637         35.4629 
        1.25666         172.078         34.4704 
        1.27241          168.25         33.5118 
        1.28819         166.888         32.5884 
        1.30392         163.678          31.703 
        1.31957         160.848         30.8548 
        1.33529         159.256         30.0348 
        1.35108         156.708         29.2418 
        1.36674         154.503         28.4834 
         1.3824         153.374          27.753 
        1.39811         149.303          27.046 
        1.41389         148.138         26.3612 
        1.42964         145.391         25.7016 
        1.44531           143.8          25.068 
        1.46101         141.127         24.4547 
        1.47667         140.462          23.864 
        1.49229          138.24         23.2945 
        1.50793         135.772         22.7433 
        1.52367         134.247         22.2065 
        1.53953         131.805         21.6836 
        1.55526         131.031         21.1819 
        1.57092         129.058         20.6984 
        1.58662         126.807         20.2289 
        1.60235         124.822         19.7733 
        1.61809         123.707         19.3316 
        1.63369          121.85         18.9075 
        1.64941         121.277         18.4933 
        1.66519         118.589           18.09 
        1.68085         117.243         17.7018 
        1.69652         115.684          17.325 
        1.71228         114.702         16.9571 
        1.72806         112.674         16.5998 
        1.74368         110.987         16.2564 
        1.75933         110.011         15.9222 
        1.77505         108.132         15.5959 
        1.79081         107.019         15.2782 
         1.8065         105.287         14.9709 
        1.82218         103.949         14.6724 
        1.83797         103.481           14.38 
        1.85367         101.243         14.0973 
        1.86928         100.797          13.824 
        1.88497         99.3252         13.5565 
        1.90073         98.2733         13.2952 
        1.91647         96.3641         13.0411 
        1.93218           95.21         12.7942 
        1.94787         94.2543         12.5541 
        1.96363         93.0918         12.3194 
        1.97935         92.2642         12.0911 
        1.99499         90.9892           11.87 
        2.01064         89.5295         11.6542 
         2.0264         88.2592         11.4424 
        2.04216         87.3568          11.236 
        2.05781         86.3997         11.0361 
        2.07353         85.2292         10.8404 
        2.08928         84.0951          10.649 
        2.10499         82.8728         10.4628 
        2.12065          82.572         10.2817 
        2.13633         81.5699         10.1047 
        2.15211         80.2155         9.93084 
        2.16785         79.0401         9.76156 
        2.18349         77.9595         9.59733 
        2.19916         77.3238         9.43657 
        2.21489          76.063         9.27899 
        2.23063         75.4428         9.12494 
         2.2463         74.6554         8.97512 
        2.26194         73.6673         8.82906 
        2.27765         72.6457         8.68554 
        2.29341         71.8384         8.54486 
        2.30914         70.9264         8.40761 
        2.32486         69.5145         8.27349 
        2.34061         69.2417         8.14209 
        2.35635         68.3248          8.0137 
        2.37203         67.5431         7.88854 
        2.38768         66.6658         7.76634 
        2.40339         65.7109         7.64631 
        2.41914         65.1946         7.52856 
        2.43483         64.5404         7.41373 
         2.4505         63.5604          7.3015 
        2.46622         62.9464         7.19124 
        2.48195         62.1027         7.08326 
        2.49759         61.4276          6.9781 
        2.51328         60.7296         6.87482 
        2.52906         60.0027           6.773 
        2.54479         59.2867         6.67364 
        2.56049         58.4865         6.57648 
        2.57618         57.7944         6.48135 
        2.59189           57.41         6.38798 
        2.60758         56.4851         6.29662 
        2.62325          56.091         6.20716 
        2.63898         55.2279         6.11915 
        2.65468         54.8725         6.03305 
        2.67044         54.1274         5.94825 
        2.68618         53.6779         5.86528 
        2.70184         52.7781         5.78425 
        2.71755         52.4137         5.70456 
        2.73329         51.8489         5.62626 
        2.74897         51.3391         5.54969 
        2.76462         50.7053         5.47474 
        2.78034          50.054         5.40087 
        2.79607         49.3181          5.3283 
        2.81179          48.948         5.25715 
        2.82749         48.5352          5.1874 
        2.84321         48.0382         5.11884 
        2.85893         47.4123         5.05156 
        2.87462         46.7322         4.98561 
        2.89033         46.3291         4.92079 
        2.90605         45.7198         4.85707 
        2.92176         45.2299         4.79452 
        2.93747         44.8067         4.73312 
        2.95318         44.5639         4.67279 
        2.96891          43.905         4.61349 
        2.98456         43.4299         4.55549 
        3.00023         42.9249         4.49841 
        3.01596         42.5099         4.44214 
        3.03164         41.9538           4.387 
        3.04738         41.5982         4.33265 
         3.0631         41.3355         4.27924 
        3.07883         40.8382         4.22674 
        3.09456         40.3015         4.17513 
        3.11026         39.7949         4.12447 
        3.12596         39.3017         4.07467 
        3.14163         39.1093          4.0258 
        3.15734          38.772         3.97764 
        3.17308         38.3648         3.93015 
        3.18879         37.8004         3.88357 
        3.20447         37.4737         3.83782 
         3.2202         37.0828         3.79268 
         3.2359         36.6742         3.74834 
        3.25157         36.3892         3.70483 
        3.26729         36.0007         3.66188 
        3.28304         35.5599         3.61953 
        3.29877         35.1666         3.57791 
        3.31446         34.8922         3.53705 
        3.33014         34.4229         3.49686 
        3.34585         34.1571         3.45724 
        3.36158         33.7716         3.41818 
        3.37727         33.4649         3.37985 
        3.39294         33.1821         3.34215 
        3.40867         32.8554          3.3049 
        3.42439         32.5391         3.26823 
        3.44008         32.1966          3.2322 
        3.45578         31.9115         3.19669 
        3.47153         31.6462         3.16164 
        3.48724         31.3071         3.12718 
        3.50292         31.0083         3.09332 
        3.51859         30.6322         3.05997 
        3.53431         30.2708         3.02703 
        3.55007         30.0489         2.99449 
        3.56577         29.6811         2.96256 
        3.58146         29.4497         2.93111 
        3.59719         29.2076         2.90005 
        3.61292         28.9112         2.86946 
        3.62859         28.6121         2.83942 
        3.64429         28.3052         2.80976 
        3.66003         28.0683         2.78044 
        3.67578         27.8587         2.75155 
        3.69146         27.6739         2.72318 
        3.70712         27.2249         2.69527 
        3.72284         27.0385         2.66765 
        3.73853         26.7895         2.64046 
        3.75422         26.5031         2.61365 
        3.76993         26.2216         2.58719 
        3.78564         26.0105         2.56111 
        3.80137         25.7551         2.53535 
        3.81707         25.5425            2.51 
        3.83279         25.2513         2.48498 
        3.84853         25.0389         2.46027 
        3.86424         24.6988         2.43594 
        3.87992         24.5657         2.41198 
        3.89561         24.3958         2.38834 
        3.91134          24.115         2.36497 
        3.92704         23.8592         2.34194 
        3.94273         23.6691         2.31925 
        3.95845         23.4712         2.29682 
        3.97418         23.2261         2.27468 
        3.98988         23.0144         2.25287 
        4.00554         22.8145          2.2314 
        4.02125          22.633         2.21016 
        4.03698         22.4152         2.18916 
        4.05268         22.1965         2.16848 
        4.06839         22.0168         2.14806 
         4.0841         21.8367          2.1279 
        4.09983         21.5736         2.10799 
        4.11555         21.4327         2.08833 
        4.13124         21.2819         2.06898 
        4.14693         21.1178         2.04986 
        4.16266         20.8826         2.03095 
        4.17839         20.7666         2.01228 
        4.19408         20.4554         1.99389 
        4.20977         20.3172         1.97573 
        4.22551         20.1432         1.95775 
        4.24123         19.9712         1.94001 
        4.25691         19.7974         1.92255 
        4.27259         19.5627         1.90529 
        4.28831          19.458         1.88822 
        4.30404         19.2807         1.87134 
        4.31974         19.1262          1.8547 
        4.33543         18.9775         1.83828 
        4.35116         18.8239         1.82201 
        4.36688         18.6656         1.80596 
        4.38255         18.4677         1.79015 
        4.39825         18.3216         1.77451 
        4.41398         18.1175         1.75902 
         4.4297         18.0155         1.74373 
        4.44541         17.8103         1.72863 
        4.46111         17.6697         1.71372 
        4.47683          17.544         1.69898 
        4.49251         17.4407         1.68444 
        4.50819         17.2626         1.67008 
         4.5239         17.1129         1.65586 
        4.53962         17.0008          1.6418 
        4.55535         16.8318         1.62789 
        4.57106         16.6629         1.61416 
        4.58678         16.5373         1.60059 
         4.6025          16.371         1.58718 
        4.61821          16.336         1.57392 
        4.63391         16.1403         1.56083 
         4.6496         16.0027          1.5479 
        4.66532         15.9138         1.53509 
        4.68103         15.7648         1.52244 
        4.69673         15.6128         1.50994 
        4.71241         15.4872          1.4976 
        4.72811         15.3813         1.48537 
        4.74384         15.2711         1.47327 
        4.75955         15.1522         1.46132 
        4.77525         14.9939         1.44951 
        4.79096         14.8514         1.43782 
        4.80669         14.7531         1.42625 
         4.8224         14.6467         1.41483 
        4.83809         14.5213         1.40354 
        4.85379         14.4216         1.39237 
         4.8695         14.2581         1.38131 
        4.88521         14.1746         1.37038 
        4.90093         14.0642         1.35956 
        4.91663         13.9632         1.34888 
        4.93234         13.8292         1.33829 
        4.94807         13.7524         1.32782 
        4.96377         13.6205         1.31748 
        4.97943         13.5645         1.30727 
        4.99514         13.4247         1.29714 
        5.01086         13.3196         1.28711 
        5.02654         13.2002         1.27722 
        5.04227         13.1135          1.2674 
          5.058         12.9891         1.25768 
        5.07371         12.9231         1.24808 
        5.08942         12.8053         1.23858 
        5.10513         12.7277         1.22918 
        5.12084         12.5867         1.21988 
        5.13656         12.5518         1.21067 
        5.15225         12.3905         1.20157 
        5.16796         12.3298         1.19256 
        5.18369         12.2276         1.18363 
         5.1994         12.1419          1.1748 
        5.21509         12.0348         1.16608 
        5.23079         11.9583         1.15743 
        5.24649         11.8826         1.14888 
        5.26217         11.7566         1.14043 
        5.27788         11.7048         1.13204 
        5.29359         11.6007         1.12374 
        5.30933         11.5223         1.11552 
        5.32504          11.441         1.10738 
        5.34073         11.3315         1.09934 
        5.35646         11.2623         1.09137 
        5.37218         11.1563         1.08347 
        5.38789         11.0615         1.07566 
        5.40357         11.0199         1.06794 
        5.41929         10.9399         1.06028 
        5.43502         10.8614         1.05269 
         5.4507         10.7578          1.0452 
        5.46639         10.6876         1.03778 
        5.48212         10.6144         1.03041 
        5.49786         10.5524         1.02311 
        5.51353          10.463         1.01592 
        5.52921         10.3847         1.00878 
        5.54495         10.3155          1.0017 
        5.56066         10.2243        0.994689 
        5.57637         10.1629         0.98775 
        5.59207         10.0875        0.980883 
        5.60778         9.99573        0.974079 
        5.62346         9.93955        0.967349 
        5.63916         9.87162        0.960678 
        5.65487         9.78753        0.954066 
         5.6706         9.72677        0.947509 
        5.68633         9.65419        0.941012 
        5.70203         9.59792        0.934589 
        5.71773         9.53147        0.928229 
        5.73344          9.4677        0.921924 
        5.74916         9.38737        0.915672 
        5.76486         9.33932        0.909488 
        5.78054         9.26852         0.90337 
        5.79626         9.17604        0.897292 
          5.812           9.143        0.891265 
         5.8277         9.07611         0.88531 
        5.84339         8.98473        0.879411 
        5.85911         8.95598        0.873554 
        5.87484         8.87894        0.867752 
        5.89053         8.81522        0.862015 
        5.90623          8.7598        0.856327 
        5.92195         8.69522        0.850681 
        5.93767         8.61268         0.84509 
        5.95336         8.58346        0.839558 
        5.96905         8.52093        0.834078 
        5.98476         8.46266         0.82864 
        6.00048         8.38285        0.823249 
        6.01617            8.33        0.817913 
        6.03185         8.28189        0.812632 
        6.04756         8.22442        0.807385 
        6.06331         8.19437        0.802173 
        6.07903         8.13563        0.797019 
        6.09473         8.07146        0.791915 
        6.11044         8.00223        0.786851 
        6.12616         7.97004        0.781833 
        6.14186         7.91781        0.776864 
        6.15755          7.8508        0.771939 
        6.17326         7.80028        0.767053 
        6.18898         7.75706        0.762207 
        6.20467         7.69772        0.757412 
        6.22036         7.66199        0.752659 
         6.2361         7.59521        0.747934 
         6.2518          7.5402        0.743258 
        6.26748         7.50454        0.738632 
        6.28319         7.45794        0.734033 
        6.29893         7.40105         0.72947 
        6.31463         7.35912        0.724954 
        6.33033         7.29166        0.720477 
        6.34604         7.26192        0.716036 
        6.36177            7.22        0.711627 
        6.37747         7.15765        0.707265 
