# k  (h/Mpc)    Pcb(k)  (Mpc/h)^3    Pcb_linear(k) (Mpc/h)^3   ShotnoiseSubtracted = true
      0.0200456         29225.1         29856.7 
      0.0350414         23624.2         22977.1 
      0.0492313         16692.6         17360.5 
      0.0637834         13694.4         14760.6 
      0.0800726         10854.6         11885.4 
       0.096163         8961.22         8801.29 
       0.111083          7422.6         7171.76 
       0.126058         6168.62         6416.83 
       0.142273         5463.75         5447.11 
       0.158546         4516.36         4352.57 
        0.17375         4145.75         3730.06 
       0.188953         4018.01         3399.88 
       0.204907          3475.8         3005.48 
       0.220756         3180.04         2559.07 
        0.23588         2858.68         2254.29 
         0.2514         2629.46         2062.14 
       0.267535         2517.34         1865.81 
       0.283568         2292.57         1650.93 
       0.299022         2191.07         1483.68 
       0.314451         2275.75         1364.59 
       0.330372         2099.43         1253.57 
       0.346141          1951.2         1140.13 
       0.361624         1858.28          1042.1 
       0.377134         1813.35         963.909 
       0.392932         1710.81         894.148 
       0.408854         1661.66         825.878 
       0.424564         1629.31         764.014 
       0.440253         1557.67         711.289 
       0.455999         1488.22         664.578 
       0.471626         1480.23         621.024 
        0.48727         1426.03         580.577 
       0.502856          1406.9         544.484 
       0.518488         1337.75         511.977 
       0.534347         1298.62         481.492 
       0.550082         1264.11         453.346 
       0.565732         1230.99         427.703 
       0.581496         1199.09         404.107 
       0.597222          1196.2         382.345 
       0.612804         1155.02          362.27 
       0.628434         1117.62         343.569 
       0.644267         1098.51         326.064 
       0.660051         1074.18         309.865 
       0.675724          1065.1         294.871 
       0.691403         1016.62         280.865 
       0.707174         999.902           267.7 
       0.722871         995.665         255.439 
        0.73838         957.821         244.085 
       0.754018         956.514         233.342 
       0.769845         929.091         223.135 
        0.78569          905.69         213.536 
       0.801365         889.403         204.603 
       0.817031          874.27         196.194 
       0.832809          853.35         188.211 
       0.848511          826.96         180.714 
       0.864097         820.735         173.683 
       0.879701         816.432         167.024 
       0.895507         797.135         160.641 
       0.911279          786.94         154.608 
        0.92691         772.322          148.94 
       0.942635         751.857         143.529 
       0.958396         751.518         138.378 
       0.974128         729.531         133.493 
       0.989692         718.189         128.895 
        1.00528         702.489         124.509 
        1.02113         688.598         120.262 
        1.03692         673.794         116.231 
        1.05264         668.731         112.405 
        1.06832         659.126          108.76 
        1.08405         645.954         105.269 
        1.09979         634.649         101.931 
        1.11537         618.402         98.7732 
        1.13105          611.45         95.7318 
        1.14679         602.688         92.8082 
        1.16256         593.136         90.0027 
        1.17828          585.79         87.3238 
        1.19395         573.486         84.7643 
         1.2097         558.422         82.2958 
        1.22537         553.053         79.9387 
          1.241         540.806         77.6822 
        1.25666         530.807         75.5082 
        1.27241         528.508         73.4083 
        1.28819         516.558         71.3856 
        1.30392         510.272          69.446 
        1.31957         499.025          67.588 
        1.33529         492.903         65.7919 
        1.35108         491.007         64.0548 
        1.36674         481.421         62.3936 
         1.3824         472.546         60.7935 
        1.39811         465.827         59.2448 
        1.41389         460.825         57.7448 
        1.42964         449.805         56.2999 
        1.44531         446.329          54.912 
        1.46101         434.971         53.5685 
        1.47667         433.066         52.2745 
        1.49229         427.374         51.0272 
        1.50793         415.591         49.8196 
        1.52367           412.1         48.6437 
        1.53953          404.93         47.4984 
        1.55526         395.039         46.3995 
        1.57092         390.969         45.3402 
        1.58662          387.08         44.3119 
        1.60235         381.391         43.3139 
        1.61809         373.866         42.3464 
        1.63369         369.448         41.4173 
        1.64941         363.807         40.5098 
        1.66519         359.704         39.6266 
        1.68085          350.17         38.7762 
        1.69652         347.179         37.9508 
        1.71228         341.938          37.145 
        1.72806          336.97         36.3622 
        1.74368         333.425           35.61 
        1.75933         328.342         34.8779 
        1.77505         324.017         34.1631 
        1.79081         320.371         33.4673 
         1.8065          316.21         32.7941 
        1.82218         309.549         32.1401 
        1.83797         306.696         31.4997 
        1.85367         301.961         30.8805 
        1.86928         297.874         30.2818 
        1.88497         292.644         29.6959 
        1.90073         290.518         29.1234 
        1.91647         285.941         28.5668 
        1.93218          282.29          28.026 
        1.94787         278.974         27.5001 
        1.96363         275.626         26.9858 
        1.97935         268.841         26.4858 
        1.99499         267.372         26.0015 
        2.01064         262.415         25.5287 
         2.0264         258.278         25.0647 
        2.04216         255.723         24.6127 
        2.05781         250.416         24.1748 
        2.07353         248.977          23.746 
        2.08928         244.257         23.3268 
        2.10499         243.478          22.919 
        2.12065         240.037         22.5222 
        2.13633         236.284         22.1346 
        2.15211         232.795         21.7537 
        2.16785         229.781         21.3829 
        2.18349         225.866         21.0232 
        2.19916         224.689          20.671 
        2.21489         221.172         20.3258 
        2.23063         218.324         19.9884 
         2.2463         215.267         19.6602 
        2.26194         211.309         19.3402 
        2.27765         209.863         19.0258 
        2.29341         207.303         18.7177 
        2.30914         204.684          18.417 
        2.32486         203.352         18.1232 
        2.34061         199.696         17.8354 
        2.35635          197.11         17.5542 
        2.37203         194.611           17.28 
        2.38768         192.855         17.0123 
        2.40339         189.751         16.7494 
        2.41914         188.195         16.4915 
        2.43483         185.556         16.2399 
         2.4505         183.492         15.9941 
        2.46622         181.528         15.7526 
        2.48195          178.88          15.516 
        2.49759         177.083         15.2857 
        2.51328         174.306         15.0594 
        2.52906         172.998         14.8364 
        2.54479         170.233         14.6187 
        2.56049         168.259         14.4059 
        2.57618          166.45         14.1975 
        2.59189         165.061          13.993 
        2.60758         162.786         13.7929 
        2.62325         160.336         13.5969 
        2.63898         158.713         13.4041 
        2.65468         157.089         13.2155 
        2.67044         155.665         13.0298 
        2.68618         153.476          12.848 
        2.70184         151.954         12.6705 
        2.71755         149.864         12.4959 
        2.73329         148.454         12.3244 
        2.74897          146.57         12.1567 
        2.76462          144.89         11.9925 
        2.78034         143.222         11.8307 
        2.79607         141.675         11.6717 
        2.81179         139.784         11.5159 
        2.82749         138.617         11.3631 
        2.84321           137.2         11.2129 
        2.85893         135.668         11.0655 
        2.87462         133.853         10.9211 
        2.89033         133.028         10.7791 
        2.90605         130.955         10.6395 
        2.92176         130.036         10.5025 
        2.93747         128.334          10.368 
        2.95318         126.854         10.2358 
        2.96891         126.007         10.1059 
        2.98456         124.148         9.97889 
        3.00023         123.139         9.85386 
        3.01596         122.141          9.7306 
        3.03164         120.403         9.60982 
        3.04738         119.155         9.49075 
         3.0631         117.898         9.37376 
        3.07883         116.748         9.25875 
        3.09456         115.456         9.14571 
        3.11026         113.986         9.03474 
        3.12596         113.169         8.92564 
        3.14163         111.441         8.81861 
        3.15734         110.305          8.7131 
        3.17308         109.352         8.60907 
        3.18879         108.146         8.50704 
        3.20447         107.464         8.40683 
         3.2202          105.95         8.30794 
         3.2359         105.073         8.21082 
        3.25157         104.222          8.1155 
        3.26729         103.044         8.02142 
        3.28304         102.201         7.92866 
        3.29877         101.265         7.83749 
        3.31446         100.174         7.74797 
        3.33014         99.2396         7.65994 
        3.34585         98.3355         7.57316 
        3.36158         97.0478          7.4876 
        3.37727         95.9086         7.40364 
        3.39294         95.3329         7.32105 
        3.40867         94.4667         7.23944 
        3.42439         93.3935         7.15913 
        3.44008          92.369          7.0802 
        3.45578         91.7282         7.00241 
        3.47153         90.6747         6.92563 
        3.48724         89.6364         6.85014 
        3.50292         88.7963         6.77597 
        3.51859         88.0985         6.70294 
        3.53431          87.007         6.63076 
        3.55007          86.163         6.55948 
        3.56577         85.4281         6.48954 
        3.58146         84.7415         6.42066 
        3.59719         83.8991         6.35262 
        3.61292         83.0489          6.2856 
        3.62859         82.1283         6.21981 
        3.64429         81.5484         6.15484 
        3.66003         80.6577         6.09061 
        3.67578         79.8405         6.02733 
        3.69146         79.3002         5.96519 
        3.70712         78.6465         5.90404 
        3.72284         77.6016         5.84354 
        3.73853         77.0657         5.78399 
        3.75422         76.3516         5.72526 
        3.76993         75.5159          5.6673 
        3.78564         74.8151         5.61017 
        3.80137         74.3106         5.55374 
        3.81707         73.4205         5.49822 
        3.83279         72.8849         5.44341 
        3.84853          72.536         5.38927 
        3.86424         71.7233         5.33597 
        3.87992         70.8933         5.28348 
        3.89561         70.1869          5.2317 
        3.91134         69.7797         5.18052 
        3.92704         69.0755         5.13008 
        3.94273         68.4207         5.08037 
        3.95845         67.6835         5.03123 
        3.97418         67.2472         4.98274 
        3.98988         66.6244         4.93495 
        4.00554         65.9412         4.88793 
        4.02125         65.2393         4.84139 
        4.03698          64.809         4.79539 
        4.05268         64.1799          4.7501 
        4.06839         63.4615         4.70536 
         4.0841         63.2207         4.66122 
        4.09983         62.4436         4.61758 
        4.11555         61.9981         4.57453 
        4.13124         61.5624         4.53215 
        4.14693          60.747         4.49027 
        4.16266         60.3252         4.44883 
        4.17839         59.7623         4.40794 
        4.19408         59.2922         4.36766 
        4.20977         58.7318         4.32787 
        4.22551         58.2042         4.28849 
        4.24123         57.9361         4.24964 
        4.25691         57.2855         4.21138 
        4.27259         56.8899         4.17358 
        4.28831         56.2248         4.13618 
        4.30404         55.7759          4.0992 
        4.31974         55.4147         4.06276 
        4.33543         54.8841         4.02678 
        4.35116         54.4152         3.99116 
        4.36688         53.9063         3.95598 
        4.38255         53.4564         3.92137 
        4.39825         53.0285         3.88709 
        4.41398         52.6107         3.85316 
         4.4297         52.2597         3.81968 
        4.44541         51.7761          3.7866 
        4.46111         51.2708         3.75394 
        4.47683          50.872         3.72164 
        4.49251         50.4295          3.6898 
        4.50819         50.1357         3.65834 
         4.5239         49.5644          3.6272 
        4.53962         49.2364         3.59639 
        4.55535         48.7875         3.56592 
        4.57106         48.4301         3.53586 
        4.58678         47.9647         3.50613 
         4.6025         47.5369         3.47675 
        4.61821         47.1646         3.44771 
        4.63391         46.7446         3.41904 
         4.6496         46.4648         3.39071 
        4.66532         46.0434         3.36266 
        4.68103         45.7255         3.33494 
        4.69673         45.3061         3.30756 
        4.71241         44.9188         3.28052 
        4.72811          44.646         3.25374 
        4.74384         44.2431         3.22723 
        4.75955         43.9578         3.20105 
        4.77525         43.4457         3.17518 
        4.79096         43.0855         3.14957 
        4.80669          42.799         3.12423 
         4.8224          42.543          3.0992 
        4.83809         42.2206         3.07448 
        4.85379         41.8658         3.05001 
         4.8695          41.514         3.02579 
        4.88521         41.1721         3.00184 
        4.90093         40.7983         2.97815 
        4.91663         40.4672         2.95474 
        4.93234         40.2242         2.93156 
        4.94807         39.8382         2.90861 
        4.96377         39.5076         2.88596 
        4.97943         39.1989         2.86359 
        4.99514         38.9217         2.84141 
        5.01086          38.674         2.81944 
        5.02654         38.3717         2.79777 
        5.04227         38.0736         2.77626 
          5.058         37.7551         2.75497 
        5.07371         37.4943         2.73395 
        5.08942         37.1727         2.71314 
        5.10513         36.9196         2.69255 
        5.12084         36.6275         2.67217 
        5.13656         36.3575           2.652 
        5.15225         36.1365         2.63207 
        5.16796         35.7343         2.61232 
        5.18369         35.4642         2.59276 
         5.1994          35.181         2.57343 
        5.21509         34.9568         2.55432 
        5.23079         34.6524         2.53538 
        5.24649         34.4351         2.51666 
        5.26217         34.1309         2.49813 
        5.27788         33.9301         2.47976 
        5.29359         33.5868         2.46158 
        5.30933         33.3682         2.44356 
        5.32504          33.101         2.42575 
        5.34073         32.8491         2.40813 
        5.35646         32.6401         2.39066 
        5.37218          32.378         2.37336 
        5.38789         32.1773         2.35626 
        5.40357         31.8855         2.33935 
        5.41929         31.6835         2.32256 
        5.43502         31.4449         2.30595 
         5.4507         31.2239         2.28953 
        5.46639          30.958         2.27328 
        5.48212          30.666         2.25714 
        5.49786         30.5168         2.24114 
        5.51353         30.3149         2.22538 
        5.52921         30.1087         2.20976 
        5.54495         29.8268         2.19424 
        5.56066         29.6572         2.17889 
        5.57637         29.3931         2.16369 
        5.59207          29.181         2.14864 
        5.60778         28.9549         2.13374 
        5.62346         28.8344           2.119 
        5.63916         28.5849         2.10438 
        5.65487         28.3162          2.0899 
         5.6706         28.1248         2.07554 
        5.68633         27.9943         2.06131 
        5.70203         27.7712         2.04724 
        5.71773         27.5656          2.0333 
        5.73344         27.3738         2.01949 
        5.74916         27.1749          2.0058 
        5.76486         26.9804         1.99225 
        5.78054         26.7339         1.97885 
        5.79626         26.5826         1.96554 
          5.812         26.4164         1.95233 
         5.8277         26.2096         1.93929 
        5.84339         25.9765         1.92637 
        5.85911         25.7996         1.91354 
        5.87484          25.618         1.90083 
        5.89053         25.4675         1.88826 
        5.90623         25.2582          1.8758 
        5.92195         25.1524         1.86343 
        5.93767         24.9048         1.85119 
        5.95336         24.7939         1.83907 
        5.96905         24.5749         1.82707 
        5.98476         24.3845         1.81515 
        6.00048         24.2392         1.80334 
        6.01617         24.0711         1.79166 
        6.03185         23.8936         1.78009 
        6.04756         23.7495         1.76859 
        6.06331         23.5235         1.75718 
        6.07903         23.4024         1.74589 
        6.09473         23.2299          1.7347 
        6.11044         23.0475         1.72361 
        6.12616         22.9263         1.71262 
        6.14186         22.7794         1.70174 
        6.15755         22.5786         1.69095 
        6.17326         22.4504         1.68024 
        6.18898         22.2881         1.66963 
        6.20467         22.1591         1.65913 
        6.22036         21.9661         1.64871 
         6.2361         21.8111         1.63836 
         6.2518         21.6708         1.62812 
        6.26748         21.5145         1.61799 
        6.28319         21.4174         1.60792 
        6.29893         21.2557         1.59792 
        6.31463         21.1024         1.58803 
        6.33033         20.9492         1.57822 
        6.34604         20.8324         1.56849 
        6.36177         20.6901         1.55883 
        6.37747         20.5362         1.54928 
