# k  (h/Mpc)    Pcb(k)  (Mpc/h)^3    Pcb_linear(k) (Mpc/h)^3   ShotnoiseSubtracted = true
      0.0200456           27989         28583.7 
      0.0350414         22612.3         21997.4 
      0.0492313         16007.1         16620.3 
      0.0637834         13134.8         14131.3 
      0.0800726         10415.2         11378.6 
       0.096163         8581.25         8426.04 
       0.111083         7110.65         6865.98 
       0.126058         5907.66         6143.24 
       0.142273         5227.42         5214.86 
       0.158546          4322.3         4166.99 
        0.17375         3958.47         3571.03 
       0.188953         3826.03         3254.92 
       0.204907            3310         2877.34 
       0.220756          3023.7         2449.96 
        0.23588         2717.83         2158.17 
         0.2514         2496.93         1974.22 
       0.267535         2392.43         1786.25 
       0.283568         2174.18         1580.54 
       0.299022         2078.18         1420.42 
       0.314451         2160.79         1306.41 
       0.330372         1985.48         1200.12 
       0.346141         1840.74         1091.52 
       0.361624         1755.97         997.673 
       0.377134         1708.14         922.811 
       0.392932         1615.36         856.025 
       0.408854         1565.33         790.666 
       0.424564         1535.79         731.439 
       0.440253         1463.03         680.962 
       0.455999         1398.33         636.243 
       0.471626         1394.83         594.546 
        0.48727         1340.96         555.824 
       0.502856         1319.52          521.27 
       0.518488         1256.69         490.148 
       0.534347          1219.6         460.963 
       0.550082         1182.98         434.017 
       0.565732         1153.35         409.467 
       0.581496         1123.74         386.878 
       0.597222         1119.52         366.043 
       0.612804         1083.06         346.824 
       0.628434         1046.24          328.92 
       0.644267         1025.47         312.162 
       0.660051         1005.75         296.654 
       0.675724         996.369         282.298 
       0.691403         951.359          268.89 
       0.707174         934.818         256.286 
       0.722871         929.534         244.548 
        0.73838          896.23         233.678 
       0.754018         892.306         223.393 
       0.769845         868.621         213.621 
        0.78569         846.744         204.431 
       0.801365         829.355         195.879 
       0.817031         815.586         187.829 
       0.832809         795.599         180.186 
       0.848511         773.286         173.009 
       0.864097         767.401         166.278 
       0.879701         765.299         159.903 
       0.895507         744.037         153.791 
       0.911279         735.824         148.016 
        0.92691         720.732          142.59 
       0.942635         704.083         137.409 
       0.958396         700.938         132.478 
       0.974128         680.994         127.801 
       0.989692         669.512         123.399 
        1.00528         656.316         119.201 
        1.02113         642.903         115.134 
        1.03692         629.756         111.275 
        1.05264         624.733         107.613 
        1.06832         614.227         104.123 
        1.08405         603.439         100.781 
        1.09979         591.439         97.5854 
        1.11537         577.456         94.5619 
        1.13105         570.394         91.6501 
        1.14679         561.302         88.8512 
        1.16256         553.664         86.1653 
        1.17828         545.683         83.6006 
        1.19395         534.636         81.1503 
         1.2097         520.936          78.787 
        1.22537          516.67         76.5304 
          1.241         504.788         74.3701 
        1.25666         495.806         72.2888 
        1.27241         494.001         70.2784 
        1.28819         482.166          68.342 
        1.30392          476.65         66.4851 
        1.31957         465.694         64.7063 
        1.33529         461.334         62.9868 
        1.35108         459.802         61.3237 
        1.36674         449.788         59.7333 
         1.3824         439.631         58.2015 
        1.39811         435.763         56.7188 
        1.41389         430.284         55.2828 
        1.42964         420.414         53.8994 
        1.44531         416.896         52.5708 
        1.46101         405.422         51.2846 
        1.47667         404.113         50.0457 
        1.49229         398.651         48.8516 
        1.50793         388.327         47.6955 
        1.52367         384.037         46.5698 
        1.53953          377.77         45.4732 
        1.55526         368.958         44.4212 
        1.57092          364.83         43.4071 
        1.58662          361.26         42.4226 
        1.60235         355.359         41.4671 
        1.61809         348.691         40.5409 
        1.63369         345.155         39.6515 
        1.64941         338.875         38.7827 
        1.66519         335.764          37.937 
        1.68085         327.037         37.1229 
        1.69652         323.784         36.3327 
        1.71228         318.668         35.5612 
        1.72806         315.195         34.8118 
        1.74368         311.836         34.0917 
        1.75933         307.305         33.3908 
        1.77505         302.747         32.7065 
        1.79081         298.925         32.0404 
         1.8065         295.508         31.3958 
        1.82218         288.936         30.7698 
        1.83797         286.279         30.1567 
        1.85367         281.433         29.5639 
        1.86928         277.761         28.9907 
        1.88497         273.419         28.4298 
        1.90073         271.179         27.8817 
        1.91647         266.546         27.3488 
        1.93218         263.377         26.8311 
        1.94787         259.512         26.3276 
        1.96363         257.021         25.8352 
        1.97935         250.328         25.3566 
        1.99499         249.242         24.8929 
        2.01064         243.844         24.4402 
         2.0264         240.401         23.9961 
        2.04216         238.481         23.5633 
        2.05781           233.7          23.144 
        2.07353         232.203         22.7336 
        2.08928         227.995         22.3323 
        2.10499         227.095         21.9418 
        2.12065         223.448          21.562 
        2.13633         220.096         21.1909 
        2.15211         216.461         20.8262 
        2.16785          214.17         20.4712 
        2.18349         210.446         20.1268 
        2.19916         209.343         19.7897 
        2.21489         205.844         19.4592 
        2.23063         203.642         19.1361 
         2.2463         200.258         18.8219 
        2.26194         197.214         18.5156 
        2.27765          196.15         18.2147 
        2.29341         193.297         17.9196 
        2.30914         190.848         17.6318 
        2.32486         189.493         17.3505 
        2.34061         186.084          17.075 
        2.35635         183.599         16.8057 
        2.37203         181.807         16.5433 
        2.38768         179.821          16.287 
        2.40339         176.679         16.0353 
        2.41914         175.293         15.7883 
        2.43483         173.253         15.5475 
         2.4505         171.107         15.3122 
        2.46622          169.03         15.0809 
        2.48195          166.42         14.8545 
        2.49759         165.009          14.634 
        2.51328         162.239         14.4174 
        2.52906         160.753         14.2038 
        2.54479         158.517         13.9954 
        2.56049         156.742         13.7917 
        2.57618         154.953         13.5922 
        2.59189         153.619         13.3964 
        2.60758         151.977         13.2048 
        2.62325         149.662         13.0172 
        2.63898         147.884         12.8326 
        2.65468         146.642         12.6521 
        2.67044           145.3         12.4742 
        2.68618         142.925         12.3002 
        2.70184         141.635         12.1303 
        2.71755         139.726         11.9632 
        2.73329         138.361          11.799 
        2.74897         136.348         11.6384 
        2.76462         134.978         11.4812 
        2.78034         133.696         11.3263 
        2.79607         132.053         11.1741 
        2.81179         130.429         11.0249 
        2.82749         129.244         10.8786 
        2.84321         127.936         10.7349 
        2.85893         126.745         10.5938 
        2.87462         124.804         10.4554 
        2.89033         123.858         10.3195 
        2.90605         121.984         10.1859 
        2.92176         120.924         10.0547 
        2.93747         119.563         9.92594 
        2.95318          118.57         9.79942 
        2.96891         117.277         9.67506 
        2.98456         115.742         9.55343 
        3.00023         114.622         9.43373 
        3.01596         113.666         9.31573 
        3.03164         112.125         9.20009 
        3.04738         111.137          9.0861 
         3.0631         110.048          8.9741 
        3.07883         108.721         8.86399 
        3.09456         107.705         8.75577 
        3.11026         106.276         8.64953 
        3.12596         105.231         8.54508 
        3.14163         103.509         8.44262 
        3.15734         102.744          8.3416 
        3.17308         101.951         8.24201 
        3.18879         100.729         8.14434 
        3.20447         99.8327         8.04839 
         3.2202         98.8207         7.95372 
         3.2359         98.0164         7.86074 
        3.25157         97.0823         7.76949 
        3.26729         95.8325         7.67941 
        3.28304         95.1016         7.59061 
        3.29877         93.9255         7.50333 
        3.31446         93.1546         7.41763 
        3.33014         92.2732         7.33335 
        3.34585          91.302         7.25027 
        3.36158         90.0592         7.16836 
        3.37727         89.1941         7.08797 
        3.39294          88.532         7.00891 
        3.40867         87.5924         6.93078 
        3.42439         86.5578         6.85389 
        3.44008          85.585         6.77833 
        3.45578          84.985         6.70386 
        3.47153           83.91         6.63035 
        3.48724         83.0393         6.55808 
        3.50292         82.3326         6.48707 
        3.51859         81.6746         6.41715 
        3.53431         80.6822         6.34805 
        3.55007          79.893         6.27981 
        3.56577         79.1868         6.21285 
        3.58146         78.5284          6.1469 
        3.59719         77.7462         6.08177 
        3.61292         77.0263         6.01761 
        3.62859         76.2014         5.95462 
        3.64429         75.6685         5.89242 
        3.66003         74.8142         5.83093 
        3.67578         74.0185         5.77034 
        3.69146         73.5443         5.71085 
        3.70712         72.7778         5.65232 
        3.72284         72.0116         5.59439 
        3.73853         71.3559         5.53739 
        3.75422         70.8707         5.48116 
        3.76993         69.9635         5.42567 
        3.78564         69.1499         5.37097 
        3.80137          68.899         5.31695 
        3.81707         68.1073         5.26379 
        3.83279          67.493         5.21132 
        3.84853         67.1303         5.15949 
        3.86424         66.4066         5.10847 
        3.87992         65.5415         5.05821 
        3.89561         65.0711         5.00864 
        3.91134          64.555         4.95964 
        3.92704         63.9912         4.91135 
        3.94273         63.2079         4.86376 
        3.95845         62.6769         4.81672 
        3.97418         62.1316         4.77029 
        3.98988         61.7429         4.72455 
        4.00554         60.9556         4.67953 
        4.02125         60.4458         4.63497 
        4.03698         59.9543         4.59094 
        4.05268         59.4725         4.54757 
        4.06839         58.7918         4.50474 
         4.0841         58.4708         4.46248 
        4.09983         57.8774         4.42071 
        4.11555         57.4047         4.37949 
        4.13124         56.9374         4.33891 
        4.14693         56.1969         4.29882 
        4.16266          55.821         4.25915 
        4.17839         55.3266            4.22 
        4.19408         54.8223         4.18144 
        4.20977         54.4484         4.14335 
        4.22551         53.9314         4.10565 
        4.24123         53.5664         4.06845 
        4.25691         53.0107         4.03182 
        4.27259          52.547         3.99564 
        4.28831          52.044         3.95983 
        4.30404         51.7428         3.92443 
        4.31974         51.2904         3.88954 
        4.33543         50.7144          3.8551 
        4.35116         50.4046         3.82099 
        4.36688         49.8811         3.78732 
        4.38255         49.5759         3.75418 
        4.39825         49.0822         3.72136 
        4.41398         48.6467         3.68888 
         4.4297         48.3109         3.65682 
        4.44541         47.8671         3.62515 
        4.46111         47.3512         3.59389 
        4.47683         47.0364         3.56297 
        4.49251          46.624         3.53248 
        4.50819         46.3306         3.50236 
         4.5239         45.8615         3.47255 
        4.53962         45.4825         3.44305 
        4.55535         45.1419         3.41389 
        4.57106         44.8768          3.3851 
        4.58678         44.3739         3.35665 
         4.6025         44.0633         3.32851 
        4.61821         43.6567         3.30071 
        4.63391         43.2918         3.27326 
         4.6496         43.0651         3.24614 
        4.66532         42.6115         3.21929 
        4.68103         42.2856         3.19275 
        4.69673         41.9959         3.16654 
        4.71241         41.5948         3.14065 
        4.72811         41.3038         3.11501 
        4.74384         40.9188         3.08963 
        4.75955         40.7018         3.06457 
        4.77525         40.2088         3.03981 
        4.79096         39.8914         3.01529 
        4.80669         39.5984         2.99103 
         4.8224         39.3994         2.96707 
        4.83809         39.0736         2.94339 
        4.85379         38.7753         2.91997 
         4.8695         38.4357         2.89678 
        4.88521         38.0498         2.87385 
        4.90093         37.7352         2.85117 
        4.91663         37.4639         2.82876 
        4.93234         37.2011         2.80657 
        4.94807         36.8934          2.7846 
        4.96377         36.5619         2.76291 
        4.97943         36.2626          2.7415 
        4.99514         36.0387         2.72026 
        5.01086         35.8251         2.69923 
        5.02654         35.4467         2.67848 
        5.04227         35.2027         2.65789 
          5.058         34.9388         2.63751 
        5.07371         34.6616         2.61738 
        5.08942         34.3729         2.59746 
        5.10513         34.1128         2.57775 
        5.12084         33.8204         2.55824 
        5.13656          33.638         2.53893 
        5.15225         33.4317         2.51985 
        5.16796         33.0233         2.50094 
        5.18369         32.8021         2.48221 
         5.1994         32.5923         2.46371 
        5.21509         32.2889         2.44542 
        5.23079          32.026         2.42729 
        5.24649         31.8437         2.40935 
        5.26217         31.5897         2.39162 
        5.27788         31.3275         2.37404 
        5.29359         31.1078         2.35663 
        5.30933         30.8488         2.33938 
        5.32504         30.6342         2.32232 
        5.34073         30.4429         2.30546 
        5.35646         30.2257         2.28873 
        5.37218         29.9712         2.27217 
        5.38789         29.7723          2.2558 
        5.40357         29.5175         2.23961 
        5.41929         29.3333         2.22354 
        5.43502         29.1201         2.20763 
         5.4507         28.8781         2.19191 
        5.46639         28.6528         2.17635 
        5.48212         28.4382          2.1609 
        5.49786         28.2844         2.14559 
        5.51353         28.0213          2.1305 
        5.52921         27.8282         2.11554 
        5.54495         27.6497         2.10069 
        5.56066         27.4643         2.08599 
        5.57637         27.1723         2.07143 
        5.59207         27.0366         2.05703 
        5.60778         26.8383         2.04276 
        5.62346         26.6999         2.02865 
        5.63916         26.4408         2.01466 
        5.65487         26.2264          2.0008 
         5.6706         26.0642         1.98704 
        5.68633         25.9299         1.97342 
        5.70203         25.7017         1.95995 
        5.71773         25.5328         1.94661 
        5.73344         25.3329         1.93339 
        5.74916         25.1575         1.92028 
        5.76486         25.0012         1.90731 
        5.78054         24.7811         1.89448 
        5.79626         24.6301         1.88173 
          5.812           24.48         1.86909 
         5.8277         24.3107         1.85661 
        5.84339         24.0664         1.84423 
        5.85911          23.916         1.83195 
        5.87484         23.7969         1.81978 
        5.89053         23.6143         1.80775 
        5.90623         23.4184         1.79582 
        5.92195         23.3033         1.78398 
        5.93767         23.0809         1.77226 
        5.95336         22.9673         1.76066 
        5.96905         22.7647         1.74917 
        5.98476         22.6223         1.73776 
        6.00048         22.4539         1.72646 
        6.01617         22.3004         1.71527 
        6.03185         22.1415         1.70419 
        6.04756         22.0251         1.69319 
        6.06331         21.8209         1.68226 
        6.07903         21.6722         1.67145 
        6.09473         21.5302         1.66074 
        6.11044         21.4138         1.65012 
        6.12616         21.2516          1.6396 
        6.14186         21.1226         1.62918 
        6.15755         20.9655         1.61885 
        6.17326         20.8217         1.60861 
        6.18898         20.6586         1.59844 
        6.20467         20.5341         1.58839 
        6.22036         20.3707         1.57842 
         6.2361         20.2556         1.56851 
         6.2518         20.1046          1.5587 
        6.26748         19.9739           1.549 
        6.28319          19.845         1.53936 
        6.29893         19.7181         1.52979 
        6.31463         19.5962         1.52032 
        6.33033         19.4638         1.51093 
        6.34604         19.3008         1.50162 
        6.36177         19.2001         1.49237 
        6.37747         19.0503         1.48322 
