# k  (h/Mpc)    Pcb(k)  (Mpc/h)^3    Pcb_linear(k) (Mpc/h)^3   ShotnoiseSubtracted = true
      0.0200456         11879.8         12075.2 
      0.0350414          9507.5          9292.8 
      0.0492313         6921.65         7021.23 
      0.0637834         5716.53         5969.75 
      0.0800726         4564.72          4806.9 
       0.096163         3639.51         3559.58 
       0.111083         3018.74         2900.53 
       0.126058         2531.63         2595.21 
       0.142273         2192.31         2203.02 
       0.158546         1817.14         1760.34 
        0.17375         1612.98         1508.58 
       0.188953         1502.93         1375.04 
       0.204907         1289.02         1215.53 
       0.220756            1161         1034.99 
        0.23588         1038.92         911.719 
         0.2514         936.396         834.007 
       0.267535         909.607         754.602 
       0.283568         799.582           667.7 
       0.299022          765.34         600.055 
       0.314451         778.715         551.893 
       0.330372          673.41         506.991 
       0.346141         625.105         461.114 
       0.361624          599.48         421.467 
       0.377134         564.204         389.841 
       0.392932           548.1         361.627 
       0.408854         521.865         334.016 
       0.424564         505.611         308.996 
       0.440253         460.013         287.672 
       0.455999         441.696          268.78 
       0.471626         445.507         251.165 
        0.48727         423.259         234.807 
       0.502856         390.314          220.21 
       0.518488          391.45         207.063 
       0.534347         364.179         194.734 
       0.550082         353.871          183.35 
       0.565732          351.89         172.979 
       0.581496         337.136         163.436 
       0.597222         327.848         154.635 
       0.612804         320.223         146.516 
       0.628434          307.21         138.952 
       0.644267         294.873         131.873 
       0.660051         290.094         125.321 
       0.675724         287.772         119.257 
       0.691403         279.004         113.593 
       0.707174         269.527         108.268 
       0.722871         265.742         103.309 
        0.73838         263.396         98.7171 
       0.754018         250.315         94.3722 
       0.769845         249.364         90.2442 
        0.78569         243.972         86.3619 
       0.801365          237.97         82.7491 
       0.817031         231.559         79.3483 
       0.832809         228.784         76.1196 
       0.848511          223.04         73.0876 
       0.864097         218.064         70.2439 
       0.879701         216.726         67.5509 
       0.895507         211.159         64.9691 
       0.911279         205.012         62.5295 
        0.92691         202.991          60.237 
       0.942635         200.697         58.0484 
       0.958396         196.082         55.9652 
       0.974128         191.814         53.9895 
       0.989692         186.866         52.1299 
        1.00528         185.317         50.3563 
        1.02113          181.65         48.6384 
        1.03692         178.804          47.008 
        1.05264         176.302         45.4609 
        1.06832         173.782         43.9867 
        1.08405         170.103         42.5748 
        1.09979         169.339         41.2249 
        1.11537         165.191         39.9476 
        1.13105         163.382         38.7175 
        1.14679         160.659         37.5352 
        1.16256         158.431         36.4005 
        1.17828         156.096          35.317 
        1.19395         151.952         34.2819 
         1.2097         151.701         33.2835 
        1.22537         148.943         32.3302 
          1.241         147.147         31.4176 
        1.25666         143.418         30.5384 
        1.27241         140.514         29.6891 
        1.28819         139.413          28.871 
        1.30392         136.599         28.0866 
        1.31957         134.799         27.3351 
        1.33529         133.364         26.6087 
        1.35108         131.575         25.9062 
        1.36674         129.278         25.2343 
         1.3824         128.736         24.5872 
        1.39811         125.076         23.9608 
        1.41389         124.343         23.3542 
        1.42964         121.791         22.7698 
        1.44531         120.501         22.2085 
        1.46101         118.623         21.6651 
        1.47667         117.827         21.1418 
        1.49229         116.403         20.6373 
        1.50793         114.174         20.1489 
        1.52367         113.041         19.6734 
        1.53953         111.022         19.2101 
        1.55526         109.829         18.7657 
        1.57092         108.878         18.3373 
        1.58662         107.174         17.9214 
        1.60235         105.244         17.5178 
        1.61809         104.559         17.1265 
        1.63369         102.622         16.7507 
        1.64941         102.538         16.3837 
        1.66519          100.09         16.0265 
        1.68085         99.1642         15.6826 
        1.69652         97.2201         15.3487 
        1.71228         96.5954         15.0228 
        1.72806         95.1915         14.7062 
        1.74368         93.6894          14.402 
        1.75933         92.9099         14.1059 
        1.77505          91.922         13.8168 
        1.79081         90.4261         13.5354 
         1.8065         89.7099         13.2632 
        1.82218         88.0525         12.9987 
        1.83797         87.4467         12.7397 
        1.85367         85.9827         12.4892 
        1.86928         85.1263         12.2471 
        1.88497         84.2294         12.0101 
        1.90073         83.2173         11.7786 
        1.91647         81.6685         11.5535 
        1.93218         80.8956         11.3348 
        1.94787         80.0484         11.1221 
        1.96363         78.8454         10.9141 
        1.97935         78.2804         10.7119 
        1.99499          77.206          10.516 
        2.01064         76.3045         10.3248 
         2.0264         74.8366         10.1371 
        2.04216         74.3601          9.9543 
        2.05781         73.4493         9.77718 
        2.07353          72.356         9.60378 
        2.08928         71.6126         9.43425 
        2.10499         70.6199         9.26931 
        2.12065         70.2029         9.10884 
        2.13633         69.4009         8.95207 
        2.15211         68.2598         8.79802 
        2.16785         67.2207         8.64805 
        2.18349         66.5399         8.50256 
        2.19916         65.7365         8.36013 
        2.21489         64.9942         8.22053 
        2.23063         64.0908         8.08406 
         2.2463         63.5408         7.95132 
        2.26194         62.8154         7.82192 
        2.27765         61.9585         7.69477 
        2.29341         61.1137         7.57014 
        2.30914         60.3674         7.44855 
        2.32486          59.659         7.32973 
        2.34061         59.2426         7.21332 
        2.35635         58.2965         7.09957 
        2.37203         57.9369         6.98869 
        2.38768         57.0549         6.88043 
        2.40339         56.3805         6.77409 
        2.41914         55.8488         6.66977 
        2.43483         55.0843         6.56804 
         2.4505         54.5259         6.46861 
        2.46622         53.8937         6.37093 
        2.48195         53.2825         6.27527 
        2.49759         52.6148         6.18211 
        2.51328         52.1887         6.09061 
        2.52906          51.496          6.0004 
        2.54479         50.9617         5.91237 
        2.56049         50.1751         5.82629 
        2.57618         49.6786         5.74202 
        2.59189         49.2883          5.6593 
        2.60758         48.5405         5.57836 
        2.62325         48.0782         5.49911 
        2.63898         47.5898         5.42114 
        2.65468         47.1787         5.34485 
        2.67044         46.5295         5.26972 
        2.68618         46.2103         5.19623 
        2.70184         45.4905         5.12443 
        2.71755         45.1349         5.05383 
        2.73329         44.4603         4.98446 
        2.74897         44.1549         4.91664 
        2.76462         43.6674         4.85023 
        2.78034         43.1229         4.78479 
        2.79607         42.6761         4.72049 
        2.81179         42.2114         4.65747 
        2.82749         41.7933         4.59567 
        2.84321         41.3243         4.53493 
        2.85893          40.842         4.47532 
        2.87462         40.2711          4.4169 
        2.89033         40.0275         4.35947 
        2.90605         39.5065         4.30302 
        2.92176         39.2334         4.24761 
        2.93747         38.8139         4.19321 
        2.95318          38.453         4.13976 
        2.96891         38.0628         4.08722 
        2.98456         37.6279         4.03584 
        3.00023         37.1686         3.98527 
        3.01596         36.8083         3.93542 
        3.03164         36.4389         3.88657 
        3.04738         36.1152         3.83842 
         3.0631         35.8484          3.7911 
        3.07883         35.3611         3.74459 
        3.09456         34.8691         3.69887 
        3.11026         34.5435         3.65399 
        3.12596         34.2313         3.60987 
        3.14163         33.8504         3.56658 
        3.15734         33.5527         3.52391 
        3.17308         33.2219         3.48183 
        3.18879         32.8922         3.44057 
        3.20447         32.5719         3.40004 
         3.2202         32.2166         3.36004 
         3.2359         31.8678         3.32077 
        3.25157         31.6626         3.28222 
        3.26729         31.2772         3.24416 
        3.28304         30.9215         3.20665 
        3.29877         30.5779         3.16978 
        3.31446         30.2534         3.13357 
        3.33014          30.005         3.09797 
        3.34585         29.7113         3.06287 
        3.36158         29.4275         3.02827 
        3.37727         29.1663         2.99431 
        3.39294         28.8375         2.96091 
        3.40867         28.5269          2.9279 
        3.42439         28.3414         2.89542 
        3.44008         28.0431          2.8635 
        3.45578         27.8278         2.83204 
        3.47153         27.4998         2.80099 
        3.48724         27.1819         2.77046 
        3.50292         26.9558         2.74046 
        3.51859         26.6391         2.71092 
        3.53431         26.3323         2.68173 
        3.55007         26.1376          2.6529 
        3.56577         25.9024         2.62462 
        3.58146         25.6737         2.59676 
        3.59719         25.4869         2.56924 
        3.61292         25.1715         2.54214 
        3.62859         24.9586         2.51553 
        3.64429         24.6762         2.48925 
        3.66003          24.523         2.46327 
        3.67578         24.2943         2.43768 
        3.69146         24.0809         2.41255 
        3.70712         23.7844         2.38782 
        3.72284          23.595         2.36335 
        3.73853         23.3563         2.33927 
        3.75422         23.0462         2.31551 
        3.76993         22.9231         2.29207 
        3.78564         22.7068         2.26897 
        3.80137         22.4968         2.24614 
        3.81707         22.3484         2.22369 
        3.83279         22.1237         2.20152 
        3.84853         21.9128         2.17962 
        3.86424         21.6825         2.15807 
        3.87992         21.4424         2.13684 
        3.89561         21.3484          2.1159 
        3.91134         21.0842          2.0952 
        3.92704         20.8993          2.0748 
        3.94273         20.7258         2.05469 
        3.95845         20.5147         2.03482 
        3.97418         20.2923         2.01521 
        3.98988         20.1982         1.99588 
        4.00554         20.0454         1.97686 
        4.02125         19.7578         1.95804 
        4.03698         19.6166         1.93944 
        4.05268         19.4454         1.92112 
        4.06839         19.2618         1.90303 
         4.0841         19.0807         1.88517 
        4.09983         18.8694         1.86753 
        4.11555         18.7353         1.85011 
        4.13124          18.601         1.83297 
        4.14693         18.4417         1.81604 
        4.16266         18.3537         1.79928 
        4.17839         18.1167         1.78274 
        4.19408         17.8878         1.76645 
        4.20977         17.7734         1.75036 
        4.22551         17.5918         1.73443 
        4.24123         17.4981         1.71872 
        4.25691         17.2643         1.70324 
        4.27259         17.1866         1.68796 
        4.28831         17.0222         1.67283 
        4.30404         16.8777         1.65787 
        4.31974         16.7927         1.64313 
        4.33543         16.5776         1.62858 
        4.35116         16.4383         1.61418 
        4.36688         16.2908         1.59995 
        4.38255         16.1639         1.58595 
        4.39825         16.0051         1.57209 
        4.41398         15.9085         1.55836 
         4.4297         15.7571         1.54482 
        4.44541          15.576         1.53144 
        4.46111         15.4973         1.51823 
        4.47683         15.3127         1.50517 
        4.49251         15.2016         1.49229 
        4.50819         15.1101         1.47957 
         4.5239         14.9804         1.46698 
        4.53962         14.8452         1.45452 
        4.55535         14.7241         1.44219 
        4.57106         14.6064         1.43003 
        4.58678         14.4775         1.41801 
         4.6025         14.3708         1.40613 
        4.61821         14.2513         1.39438 
        4.63391         14.1198         1.38279 
         4.6496         13.9613         1.37133 
        4.66532         13.8685         1.35999 
        4.68103         13.7755         1.34877 
        4.69673          13.662          1.3377 
        4.71241         13.5568         1.32677 
        4.72811         13.4513         1.31594 
        4.74384         13.3169         1.30521 
        4.75955         13.1984         1.29463 
        4.77525         13.1202         1.28416 
        4.79096          13.013         1.27381 
        4.80669         12.9118         1.26356 
         4.8224          12.782         1.25344 
        4.83809         12.7159         1.24343 
        4.85379         12.6107         1.23354 
         4.8695         12.5063         1.22374 
        4.88521         12.3933         1.21406 
        4.90093         12.2989         1.20448 
        4.91663         12.2523         1.19501 
        4.93234         12.1515         1.18563 
        4.94807         12.0248         1.17635 
        4.96377         11.9541         1.16719 
        4.97943         11.8756         1.15814 
        4.99514         11.7239         1.14917 
        5.01086         11.6372         1.14029 
        5.02654          11.543         1.13152 
        5.04227         11.4675         1.12282 
          5.058         11.3971         1.11421 
        5.07371         11.2882         1.10571 
        5.08942         11.2058          1.0973 
        5.10513         11.1356         1.08897 
        5.12084         11.0423         1.08072 
        5.13656         10.9765         1.07257 
        5.15225         10.8517         1.06451 
        5.16796          10.774         1.05652 
        5.18369         10.6999         1.04861 
         5.1994         10.6208         1.04079 
        5.21509         10.5456         1.03306 
        5.23079         10.4558         1.02541 
        5.24649         10.3852         1.01783 
        5.26217          10.288         1.01034 
        5.27788         10.2329         1.00291 
        5.29359         10.1524        0.995557 
        5.30933         10.0794        0.988268 
        5.32504         10.0178        0.981064 
        5.34073         9.92779         0.97394 
        5.35646         9.84154        0.966874 
        5.37218         9.79599        0.959876 
        5.38789         9.72556         0.95296 
        5.40357         9.63323         0.94612 
        5.41929         9.57317        0.939333 
        5.43502         9.52507        0.932612 
         5.4507         9.42801        0.925973 
        5.46639         9.34356        0.919398 
        5.48212         9.28675        0.912873 
        5.49786         9.22181        0.906403 
        5.51353         9.16826        0.900029 
        5.52921         9.08519         0.89371 
        5.54495         9.00637        0.887433 
        5.56066         8.95527        0.881224 
        5.57637         8.88606        0.875076 
        5.59207         8.82718        0.868992 
        5.60778          8.7627        0.862965 
        5.62346         8.70257        0.857003 
        5.63916         8.64382        0.851092 
        5.65487         8.57197        0.845235 
         5.6706         8.52151        0.839426 
        5.68633         8.44432         0.83367 
        5.70203         8.38782         0.82798 
        5.71773         8.34216        0.822345 
        5.73344          8.2799        0.816759 
        5.74916         8.23977        0.811221 
        5.76486         8.15572        0.805742 
        5.78054         8.10253        0.800322 
        5.79626         8.04309        0.794937 
          5.812         8.00235        0.789597 
         5.8277         7.93819        0.784322 
        5.84339         7.88766        0.779096 
        5.85911         7.82731        0.773907 
        5.87484         7.77641        0.768767 
        5.89053         7.71671        0.763684 
        5.90623         7.67046        0.758645 
        5.92195         7.63007        0.753643 
        5.93767          7.5722         0.74869 
        5.95336         7.50723        0.743789 
        5.96905         7.46226        0.738934 
        5.98476         7.41204        0.734116 
        6.00048         7.37186         0.72934 
        6.01617         7.30531        0.724613 
        6.03185         7.27286        0.719934 
        6.04756         7.22039        0.715286 
        6.06331         7.15907        0.710668 
        6.07903         7.12031        0.706102 
        6.09473         7.07209         0.70158 
        6.11044         7.02962        0.697094 
        6.12616         6.97032        0.692649 
        6.14186         6.93225        0.688246 
        6.15755         6.87458        0.683883 
        6.17326         6.84668        0.679554 
        6.18898         6.79202        0.675261 
        6.20467         6.74915        0.671013 
        6.22036         6.69464        0.666802 
         6.2361         6.67396        0.662617 
         6.2518         6.61121        0.658474 
        6.26748         6.56822        0.654376 
        6.28319         6.52731        0.650302 
        6.29893         6.47935        0.646259 
        6.31463         6.44252        0.642258 
        6.33033         6.39148        0.638292 
        6.34604         6.36308        0.634357 
        6.36177          6.3292        0.630452 
        6.37747         6.28476        0.626587 
