# k  (h/Mpc)    Pcb(k)  (Mpc/h)^3    Pcb_linear(k) (Mpc/h)^3   ShotnoiseSubtracted = true
      0.0200456         3019.26         3070.11 
      0.0350414         2329.09         2362.69 
      0.0492313         1783.95         1785.14 
      0.0637834         1534.68          1517.8 
      0.0800726         1233.99         1222.15 
       0.096163         895.175          905.02 
       0.111083         723.548         737.458 
       0.126058         663.351          659.83 
       0.142273         569.333         560.115 
       0.158546         461.969         447.567 
        0.17375         384.295         383.555 
       0.188953           360.8         349.603 
       0.204907         334.051         309.048 
       0.220756         280.325         263.144 
        0.23588         246.997         231.804 
         0.2514         221.299         212.046 
       0.267535         205.882         191.857 
       0.283568         185.676         169.762 
       0.299022         170.126         152.564 
       0.314451         153.961         140.318 
       0.330372         143.515         128.902 
       0.346141         130.308         117.238 
       0.361624          122.16         107.158 
       0.377134         115.515         99.1169 
       0.392932         103.414         91.9435 
       0.408854          99.807         84.9234 
       0.424564         95.0068         78.5621 
       0.440253          87.961         73.1405 
       0.455999         83.2852         68.3373 
       0.471626         77.6539         63.8587 
        0.48727         74.8632         59.6996 
       0.502856         70.6604         55.9883 
       0.518488           67.88         52.6456 
       0.534347         65.2899         49.5109 
       0.550082         60.1077         46.6167 
       0.565732         56.6871         43.9799 
       0.581496         55.2897         41.5536 
       0.597222         53.5833         39.3158 
       0.612804         50.3013         37.2515 
       0.628434         48.7992         35.3285 
       0.644267         47.6169         33.5286 
       0.660051         45.4718         31.8629 
       0.675724         43.3098          30.321 
       0.691403          41.991         28.8808 
       0.707174         40.8439          27.527 
       0.722871         39.2241         26.2663 
        0.73838         38.0682         25.0988 
       0.754018         36.4973         23.9941 
       0.769845         35.5425         22.9445 
        0.78569         34.4966         21.9575 
       0.801365         33.2878         21.0389 
       0.817031         32.5635         20.1743 
       0.832809         31.9466         19.3534 
       0.848511         30.0641         18.5825 
       0.864097         29.5871         17.8595 
       0.879701         28.9899         17.1748 
       0.895507         28.2937         16.5184 
       0.911279         27.4789         15.8981 
        0.92691          26.797         15.3152 
       0.942635         25.8135         14.7588 
       0.958396         25.3732         14.2291 
       0.974128         24.6475         13.7268 
       0.989692         24.4497          13.254 
        1.00528         23.8343         12.8031 
        1.02113         22.9206         12.3663 
        1.03692         22.4965         11.9518 
        1.05264         22.0397         11.5584 
        1.06832         21.6146         11.1836 
        1.08405         21.0234         10.8246 
        1.09979         20.6196         10.4814 
        1.11537         20.2518         10.1567 
        1.13105         19.8926         9.84391 
        1.14679         19.6079         9.54329 
        1.16256         18.9479          9.2548 
        1.17828         18.9319         8.97934 
        1.19395         18.2648         8.71615 
         1.2097         18.0748         8.46232 
        1.22537         17.6135         8.21994 
          1.241         17.3988         7.98791 
        1.25666         17.0116         7.76436 
        1.27241         16.6496         7.54843 
        1.28819         16.3591         7.34045 
        1.30392         16.2353           7.141 
        1.31957         15.9627         6.94994 
        1.33529         15.7071         6.76526 
        1.35108         15.3065         6.58663 
        1.36674         15.2087         6.41581 
         1.3824          14.823         6.25127 
        1.39811           14.61         6.09203 
        1.41389         14.4392         5.93779 
        1.42964         14.2756         5.78921 
        1.44531         14.0872          5.6465 
        1.46101         13.7188         5.50835 
        1.47667         13.5701         5.37528 
        1.49229         13.4098         5.24702 
        1.50793         13.1781         5.12285 
        1.52367         12.9886         5.00194 
        1.53953          12.812         4.88417 
        1.55526         12.6316         4.77117 
        1.57092         12.5055         4.66225 
        1.58662           12.32         4.55651 
        1.60235         12.1346         4.45388 
        1.61809         11.9866         4.35439 
        1.63369         11.8073         4.25886 
        1.64941         11.6551         4.16555 
        1.66519         11.5537         4.07472 
        1.68085         11.3684         3.98728 
        1.69652         11.1974         3.90241 
        1.71228         11.0579         3.81955 
        1.72806         11.0018         3.73905 
        1.74368          10.793         3.66171 
        1.75933         10.6944         3.58642 
        1.77505         10.5513         3.51292 
        1.79081         10.3557         3.44138 
         1.8065           10.31         3.37215 
        1.82218         10.1432         3.30491 
        1.83797         10.0854         3.23906 
        1.85367         9.90708         3.17538 
        1.86928         9.90465         3.11382 
        1.88497         9.68116         3.05357 
        1.90073          9.6008         2.99471 
        1.91647          9.5492         2.93747 
        1.93218          9.4368         2.88186 
        1.94787         9.29177         2.82778 
        1.96363         9.22601          2.7749 
        1.97935          9.0885         2.72349 
        1.99499         8.95802         2.67368 
        2.01064         8.88209         2.62506 
         2.0264         8.79474         2.57736 
        2.04216          8.7215         2.53087 
        2.05781         8.60316         2.48584 
        2.07353         8.52682         2.44176 
        2.08928          8.4728         2.39865 
        2.10499         8.40654         2.35672 
        2.12065         8.28995         2.31592 
        2.13633         8.23423         2.27606 
        2.15211         8.10616         2.23689 
        2.16785         8.02222         2.19876 
        2.18349         7.96331         2.16177 
        2.19916         7.88749         2.12556 
        2.21489         7.79107         2.09007 
        2.23063         7.73235         2.05537 
         2.2463          7.6404         2.02162 
        2.26194         7.54405         1.98872 
        2.27765         7.52956         1.95639 
        2.29341         7.42386          1.9247 
        2.30914          7.3678         1.89379 
        2.32486         7.26406         1.86358 
        2.34061         7.24255         1.83398 
        2.35635         7.17703         1.80506 
        2.37203         7.10072         1.77687 
        2.38768         7.02454         1.74934 
        2.40339         6.97212         1.72231 
        2.41914         6.86222         1.69578 
        2.43483         6.85629         1.66992 
         2.4505         6.76979         1.64464 
        2.46622         6.72388          1.6198 
        2.48195          6.6481         1.59548 
        2.49759         6.63141          1.5718 
        2.51328         6.55114         1.54853 
        2.52906         6.52611          1.5256 
        2.54479         6.43419         1.50322 
        2.56049         6.39761         1.48133 
        2.57618         6.32686         1.45991 
        2.59189         6.27704         1.43887 
        2.60758         6.23952         1.41829 
        2.62325         6.17027         1.39814 
        2.63898         6.10431         1.37832 
        2.65468         6.06258         1.35893 
        2.67044         6.01204         1.33982 
        2.68618          5.9873         1.32114 
        2.70184          5.9127         1.30288 
        2.71755         5.86699         1.28493 
        2.73329         5.83269          1.2673 
        2.74897         5.80445         1.25005 
        2.76462         5.75236         1.23317 
        2.78034         5.67538         1.21653 
        2.79607          5.6453         1.20018 
        2.81179         5.61613         1.18416 
        2.82749         5.54042         1.16845 
        2.84321         5.52692           1.153 
        2.85893          5.4848         1.13785 
        2.87462         5.43512         1.12299 
        2.89033         5.38674         1.10839 
        2.90605         5.34636         1.09404 
        2.92176          5.2913         1.07995 
        2.93747         5.26624         1.06612 
        2.95318         5.23047         1.05253 
        2.96891         5.19869         1.03917 
        2.98456         5.15234         1.02611 
        3.00023         5.10006         1.01325 
        3.01596         5.07311         1.00058 
        3.03164         5.04473        0.988159 
        3.04738         4.99983        0.975916 
         3.0631         4.96785        0.963886 
        3.07883         4.93707        0.952059 
        3.09456          4.8884        0.940435 
        3.11026         4.86643        0.929025 
        3.12596         4.81954        0.917806 
        3.14163         4.77624          0.9068 
        3.15734         4.73899        0.895951 
        3.17308         4.72329        0.885254 
        3.18879         4.68534        0.874763 
        3.20447         4.66103        0.864458 
         3.2202         4.60631        0.854289 
         3.2359         4.59282        0.844303 
        3.25157         4.54749        0.834501 
        3.26729         4.51357        0.824827 
        3.28304         4.48891        0.815288 
        3.29877         4.47101        0.805914 
        3.31446         4.41876        0.796709 
        3.33014         4.40266        0.787657 
        3.34585         4.37498        0.778733 
        3.36158         4.35423        0.769935 
        3.37727         4.31312        0.761302 
        3.39294          4.2896         0.75281 
        3.40867         4.24678        0.744418 
        3.42439         4.22219        0.736159 
        3.44008         4.18871        0.728043 
        3.45578         4.17614        0.720044 
        3.47153         4.13758        0.712149 
        3.48724         4.11744        0.704387 
        3.50292          4.0962         0.69676 
        3.51859         4.05113         0.68925 
        3.53431          4.0259        0.681829 
        3.55007         4.02099        0.674499 
        3.56577         3.98779        0.667307 
        3.58146         3.96406        0.660224 
        3.59719         3.93328        0.653228 
        3.61292         3.91272        0.646336 
        3.62859         3.87352        0.639571 
        3.64429         3.85437        0.632891 
        3.66003         3.84054        0.626286 
        3.67578         3.80963        0.619778 
        3.69146          3.7798        0.613389 
        3.70712         3.75953        0.607102 
        3.72284         3.73346         0.60088 
        3.73853         3.71505        0.594757 
        3.75422         3.69112        0.588717 
        3.76993         3.65628        0.582758 
        3.78564         3.64639        0.576883 
        3.80137         3.62019        0.571081 
        3.81707          3.5891        0.565371 
        3.83279         3.57595        0.559735 
        3.84853         3.55245        0.554168 
        3.86424         3.52573        0.548688 
        3.87992         3.51269         0.54329 
        3.89561         3.47043        0.537966 
        3.91134         3.47086        0.532702 
        3.92704         3.44141        0.527516 
        3.94273         3.41992        0.522404 
        3.95845         3.40833        0.517352 
        3.97418         3.36986        0.512365 
        3.98988         3.35057        0.507452 
        4.00554         3.32181        0.502617 
        4.02125         3.30735        0.497831 
        4.03698         3.28812        0.493101 
        4.05268         3.27022        0.488444 
        4.06839         3.24373        0.483843 
         4.0841         3.22721        0.479304 
        4.09983         3.19646        0.474817 
        4.11555         3.18538         0.47039 
        4.13124         3.16702        0.466032 
        4.14693         3.13616        0.461726 
        4.16266         3.12434        0.457465 
        4.17839         3.10585         0.45326 
        4.19408         3.07956        0.449118 
        4.20977         3.06037        0.445027 
        4.22551         3.04162        0.440977 
        4.24123          3.0254        0.436982 
        4.25691         3.00881        0.433048 
        4.27259         2.98063        0.429162 
        4.28831         2.97244        0.425315 
        4.30404         2.95279        0.421513 
        4.31974           2.935        0.417766 
        4.33543         2.92144        0.414066 
        4.35116         2.89961        0.410403 
        4.36688         2.88291        0.406786 
        4.38255         2.86523        0.403227 
        4.39825         2.84744        0.399702 
        4.41398         2.82826        0.396213 
         4.4297         2.81852         0.39277 
        4.44541         2.79561        0.389369 
        4.46111         2.78324         0.38601 
        4.47683         2.76323         0.38269 
        4.49251         2.74837        0.379415 
        4.50819          2.7275         0.37618 
         4.5239         2.71774        0.372978 
        4.53962         2.70278         0.36981 
        4.55535          2.6836        0.366677 
        4.57106          2.6732        0.363585 
        4.58678         2.65634        0.360529 
         4.6025         2.63647        0.357507 
        4.61821         2.62137        0.354521 
        4.63391         2.60709        0.351573 
         4.6496         2.59557         0.34866 
        4.66532         2.57509        0.345775 
        4.68103         2.56577        0.342925 
        4.69673          2.5492         0.34011 
        4.71241         2.53112         0.33733 
        4.72811         2.52181        0.334576 
        4.74384         2.51058         0.33185 
        4.75955         2.49576        0.329158 
        4.77525         2.48255        0.326498 
        4.79096         2.46518        0.323865 
        4.80669         2.46107        0.321259 
         4.8224         2.43918        0.318685 
        4.83809         2.42815        0.316143 
        4.85379         2.41125        0.313626 
         4.8695         2.39953        0.311136 
        4.88521         2.38466        0.308673 
        4.90093         2.36925        0.306238 
        4.91663         2.35745         0.30383 
        4.93234         2.34883        0.301447 
        4.94807         2.33535        0.299087 
        4.96377         2.31998        0.296757 
        4.97943         2.31291        0.294458 
        4.99514         2.29869        0.292177 
        5.01086         2.28748        0.289918 
        5.02654         2.27632        0.287689 
        5.04227         2.26582        0.285478 
          5.058         2.25104        0.283288 
        5.07371         2.24112        0.281126 
        5.08942         2.22648        0.278987 
        5.10513         2.21638         0.27687 
        5.12084         2.20983        0.274774 
        5.13656         2.18957          0.2727 
        5.15225         2.18312        0.270651 
        5.16796         2.16677         0.26862 
        5.18369          2.1582        0.266608 
         5.1994         2.14737        0.264621 
        5.21509         2.13787        0.262656 
        5.23079         2.12708        0.260709 
        5.24649         2.11736        0.258783 
        5.26217         2.10469        0.256878 
        5.27788         2.09176        0.254989 
        5.29359         2.09321         0.25312 
        5.30933         2.07557        0.251267 
        5.32504           2.064        0.249435 
        5.34073         2.05465        0.247624 
        5.35646         2.04644        0.245827 
        5.37218         2.03983        0.244048 
        5.38789         2.02582        0.242289 
        5.40357         2.01596         0.24055 
        5.41929         2.00661        0.238825 
        5.43502         1.99761        0.237116 
         5.4507         1.98373        0.235428 
        5.46639         1.97693        0.233756 
        5.48212         1.96875        0.232097 
        5.49786         1.95955        0.230452 
        5.51353         1.94978        0.228832 
        5.52921         1.94074        0.227225 
        5.54495         1.93254        0.225629 
        5.56066         1.92426        0.224051 
        5.57637          1.9121        0.222488 
        5.59207         1.90072        0.220941 
        5.60778         1.89358        0.219408 
        5.62346          1.8884        0.217893 
        5.63916         1.87721         0.21639 
        5.65487         1.87132          0.2149 
         5.6706         1.86283        0.213424 
        5.68633         1.84977         0.21196 
        5.70203         1.84189        0.210513 
        5.71773         1.83311        0.209081 
        5.73344         1.82349        0.207661 
        5.74916         1.81691        0.206252 
        5.76486         1.80661        0.204859 
        5.78054          1.8012        0.203481 
        5.79626          1.7942        0.202112 
          5.812         1.78909        0.200755 
         5.8277         1.77545        0.199413 
        5.84339         1.77041        0.198085 
        5.85911         1.76272        0.196765 
        5.87484         1.75254        0.195459 
        5.89053         1.74771        0.194166 
        5.90623         1.73633        0.192885 
        5.92195         1.73043        0.191613 
        5.93767         1.72291        0.190354 
        5.95336         1.71628        0.189108 
        5.96905         1.70283        0.187874 
        5.98476         1.70206        0.186649 
        6.00048         1.69347        0.185434 
        6.01617         1.68805        0.184232 
        6.03185         1.68126        0.183043 
        6.04756         1.67282        0.181861 
        6.06331         1.66423        0.180687 
        6.07903         1.65651        0.179526 
        6.09473         1.64897        0.178376 
        6.11044         1.64239        0.177236 
        6.12616         1.63693        0.176106 
        6.14186         1.62807        0.174986 
        6.15755         1.62323        0.173877 
        6.17326         1.61674        0.172776 
        6.18898         1.61114        0.171685 
        6.20467         1.60125        0.170605 
        6.22036         1.59552        0.169534 
         6.2361         1.59109         0.16847 
         6.2518         1.58122        0.167417 
        6.26748         1.57687        0.166375 
        6.28319         1.56847        0.165339 
        6.29893         1.56293        0.164311 
        6.31463         1.55548        0.163294 
        6.33033         1.55144        0.162285 
        6.34604         1.54438        0.161285 
        6.36177         1.53755        0.160292 
        6.37747         1.53401        0.159309 
