# k  (h/Mpc)    Pcb(k)  (Mpc/h)^3    Pcb_linear(k) (Mpc/h)^3   ShotnoiseSubtracted = true
      0.0200456         17927.9         18374.6 
      0.0350414         13504.3         14140.7 
      0.0492313         10434.2         10684.1 
      0.0637834         9176.78         9084.09 
      0.0800726         7334.13          7314.6 
       0.096163         5181.76         5416.56 
       0.111083         4214.18          4413.7 
       0.126058         3919.26          3949.1 
       0.142273         3390.11          3352.3 
       0.158546         2968.48         2678.69 
        0.17375         2399.46         2295.58 
       0.188953          2350.4         2092.38 
       0.204907         2215.16         1849.66 
       0.220756         1925.06         1574.92 
        0.23588         1717.71         1387.35 
         0.2514         1502.81          1269.1 
       0.267535         1505.55         1148.27 
       0.283568         1368.67         1016.03 
       0.299022         1292.67         913.096 
       0.314451         1235.41         839.808 
       0.330372         1138.16         771.483 
       0.346141         1083.09         701.671 
       0.361624         1040.97          641.34 
       0.377134         969.548         593.216 
       0.392932          936.75         550.284 
       0.408854         914.097         508.268 
       0.424564         852.233         470.196 
       0.440253         836.528         437.747 
       0.455999         804.106             409 
       0.471626         770.148         382.195 
        0.48727         742.913         357.303 
       0.502856         722.676         335.091 
       0.518488         714.485         315.085 
       0.534347         669.989         296.324 
       0.550082         650.366         279.002 
       0.565732         650.109          263.22 
       0.581496         614.192         248.699 
       0.597222          603.38         235.306 
       0.612804         589.414         222.951 
       0.628434         572.071         211.442 
       0.644267         556.829         200.669 
       0.660051         539.232           190.7 
       0.675724          535.68         181.472 
       0.691403          517.88         172.852 
       0.707174         501.332          164.75 
       0.722871         495.685         157.204 
        0.73838         487.194         150.217 
       0.754018         474.308         143.605 
       0.769845         463.877         137.323 
        0.78569         457.643         131.416 
       0.801365         445.115         125.918 
       0.817031         432.538         120.743 
       0.832809          428.97          115.83 
       0.848511         418.791         111.217 
       0.864097         407.845         106.889 
       0.879701         402.406         102.791 
       0.895507         398.337         98.8627 
       0.911279         385.727         95.1503 
        0.92691         380.188         91.6619 
       0.942635         372.372         88.3315 
       0.958396         362.925         85.1616 
       0.974128         357.258         82.1551 
       0.989692         353.126         79.3254 
        1.00528         346.041         76.6265 
        1.02113         343.511         74.0124 
        1.03692          333.36         71.5316 
        1.05264          330.24         69.1773 
        1.06832         322.292         66.9341 
        1.08405         316.937         64.7856 
        1.09979         311.658         62.7314 
        1.11537         305.303         60.7878 
        1.13105         299.489          58.916 
        1.14679         295.972         57.1168 
        1.16256         288.434         55.3902 
        1.17828         286.293         53.7415 
        1.19395         280.288         52.1664 
         1.2097          277.68         50.6471 
        1.22537         270.483         49.1965 
          1.241           269.4         47.8078 
        1.25666         262.809         46.4699 
        1.27241         259.827         45.1775 
        1.28819         255.494         43.9327 
        1.30392         249.474          42.739 
        1.31957         249.663         41.5955 
        1.33529         244.243         40.4902 
        1.35108         238.866         39.4211 
        1.36674         236.694         38.3987 
         1.3824         234.055          37.414 
        1.39811         231.199         36.4609 
        1.41389         227.453         35.5378 
        1.42964         224.491         34.6485 
        1.44531         220.695         33.7944 
        1.46101         218.227         32.9676 
        1.47667         213.852         32.1712 
        1.49229         211.455         31.4035 
        1.50793         207.604         30.6604 
        1.52367          204.86         29.9367 
        1.53953           201.7         29.2318 
        1.55526         197.257         28.5555 
        1.57092         196.477         27.9036 
        1.58662         193.469         27.2708 
        1.60235         190.118         26.6566 
        1.61809         188.283         26.0611 
        1.63369          184.99         25.4894 
        1.64941         181.258         24.9309 
        1.66519         180.358         24.3873 
        1.68085         178.416          23.864 
        1.69652         174.505          23.356 
        1.71228         171.587         22.8601 
        1.72806         169.573         22.3783 
        1.74368         167.378         21.9154 
        1.75933         164.695         21.4648 
        1.77505         162.877         21.0249 
        1.79081         161.572         20.5967 
         1.8065         159.009         20.1824 
        1.82218         156.376         19.7799 
        1.83797         155.296         19.3858 
        1.85367         152.626         19.0047 
        1.86928         150.452         18.6363 
        1.88497         148.173         18.2757 
        1.90073         147.043         17.9234 
        1.91647         145.217         17.5808 
        1.93218         143.093          17.248 
        1.94787         141.246         16.9243 
        1.96363         138.506         16.6078 
        1.97935         137.301         16.3001 
        1.99499         134.966          16.002 
        2.01064         133.852          15.711 
         2.0264         131.741         15.4255 
        2.04216         130.126         15.1473 
        2.05781         128.821         14.8778 
        2.07353         127.311          14.614 
        2.08928         124.778          14.356 
        2.10499         122.928          14.105 
        2.12065         121.677         13.8608 
        2.13633          121.14         13.6223 
        2.15211         118.216         13.3878 
        2.16785         116.484         13.1596 
        2.18349         115.616         12.9382 
        2.19916         114.136         12.7215 
        2.21489           112.9         12.5091 
        2.23063         110.996         12.3014 
         2.2463         109.376         12.0994 
        2.26194         108.432         11.9025 
        2.27765         107.378          11.709 
        2.29341         105.839         11.5194 
        2.30914         104.559         11.3344 
        2.32486         103.472         11.1536 
        2.34061         101.865         10.9764 
        2.35635         100.625         10.8033 
        2.37203         99.3836         10.6346 
        2.38768         98.1389         10.4699 
        2.40339         97.2544          10.308 
        2.41914         96.0767         10.1493 
        2.43483         94.6613          9.9945 
         2.4505         93.8199         9.84321 
        2.46622         92.2327         9.69456 
        2.48195         91.2485           9.549 
        2.49759         90.2013         9.40724 
        2.51328         89.3096           9.268 
        2.52906         87.7149         9.13073 
        2.54479         87.0271         8.99678 
        2.56049         85.9268          8.8658 
        2.57618         84.8822         8.73756 
        2.59189         84.0032         8.61169 
        2.60758         83.1604         8.48852 
        2.62325         81.8927         8.36792 
        2.63898         80.8043         8.24928 
        2.65468         80.1953          8.1332 
        2.67044         78.9551         8.01888 
        2.68618          77.988         7.90703 
        2.70184          77.629         7.79779 
        2.71755         76.7442         7.69036 
        2.73329         75.5427          7.5848 
        2.74897          74.863         7.48158 
        2.76462         73.7155         7.38054 
        2.78034         73.1165         7.28095 
        2.79607          71.903         7.18312 
        2.81179         71.2422         7.08721 
        2.82749         70.4039         6.99317 
        2.84321         69.8871         6.90075 
        2.85893         68.9274         6.81005 
        2.87462         67.9979         6.72114 
        2.89033         67.2115         6.63375 
        2.90605         66.3064         6.54785 
        2.92176         65.9353         6.46353 
        2.93747         65.2771         6.38075 
        2.95318         64.3578         6.29942 
        2.96891         63.8316         6.21948 
        2.98456         63.0382         6.14129 
        3.00023         62.3907         6.06434 
        3.01596         61.8652         5.98848 
        3.03164         60.8862         5.91415 
        3.04738         60.2724         5.84088 
         3.0631         59.7539         5.76887 
        3.07883         59.0779         5.69809 
        3.09456         58.5295         5.62852 
        3.11026         57.5788         5.56023 
        3.12596         57.1462         5.49309 
        3.14163         56.3639         5.42722 
        3.15734         55.9287         5.36228 
        3.17308         55.2815         5.29826 
        3.18879         54.7423         5.23547 
        3.20447         53.8673          5.1738 
         3.2202         53.6627         5.11294 
         3.2359         52.9177         5.05317 
        3.25157         52.5294         4.99451 
        3.26729         51.9523         4.93661 
        3.28304         51.3543         4.87952 
        3.29877          50.824         4.82341 
        3.31446         50.3298         4.76832 
        3.33014         49.8419         4.71414 
        3.34585         49.2867         4.66073 
        3.36158         48.8234         4.60808 
        3.37727          48.389         4.55641 
        3.39294         47.8537         4.50558 
        3.40867         47.4472         4.45535 
        3.42439         46.9331         4.40593 
        3.44008         46.3744         4.35735 
        3.45578         45.8074         4.30948 
        3.47153         45.3737         4.26223 
        3.48724         44.9762         4.21577 
        3.50292         44.6274         4.17012 
        3.51859         44.2063         4.12518 
        3.53431         43.6762         4.08076 
        3.55007         43.1618         4.03689 
        3.56577         42.9751         3.99385 
        3.58146         42.3457         3.95145 
        3.59719         41.8151         3.90958 
        3.61292         41.4466         3.86834 
        3.62859         41.1796         3.82785 
        3.64429         40.8473         3.78786 
        3.66003         40.3152         3.74833 
        3.67578          39.887         3.70939 
        3.69146         39.5336         3.67114 
        3.70712         39.2537         3.63351 
        3.72284         38.7638         3.59628 
        3.73853         38.4031         3.55963 
        3.75422         37.9299         3.52349 
        3.76993         37.7137         3.48782 
        3.78564         37.4954         3.45266 
        3.80137         37.0163         3.41793 
        3.81707         36.6034         3.38376 
        3.83279         36.4283         3.35003 
        3.84853         35.9129         3.31671 
        3.86424         35.5275         3.28391 
        3.87992          35.288          3.2516 
        3.89561          34.996         3.21974 
        3.91134         34.6127         3.18823 
        3.92704         34.4279         3.15719 
        3.94273         33.9895          3.1266 
        3.95845         33.6841         3.09636 
        3.97418          33.516         3.06652 
        3.98988         33.0859         3.03711 
        4.00554         32.6945         3.00817 
        4.02125          32.531         2.97953 
        4.03698         32.1983         2.95122 
        4.05268         32.0106         2.92334 
        4.06839         31.6643         2.89581 
         4.0841         31.3596         2.86864 
        4.09983         31.1048         2.84179 
        4.11555         30.7687         2.81529 
        4.13124         30.4364         2.78921 
        4.14693         30.1524         2.76344 
        4.16266         29.9378         2.73793 
        4.17839         29.7088         2.71277 
        4.19408         29.3964         2.68798 
        4.20977         29.1678          2.6635 
        4.22551         29.0165         2.63926 
        4.24123          28.624         2.61535 
        4.25691         28.4146          2.5918 
        4.27259         28.1368         2.56854 
        4.28831         27.8783         2.54552 
        4.30404         27.6301         2.52276 
        4.31974         27.4588         2.50034 
        4.33543         27.2139         2.47819 
        4.35116         26.9596         2.45627 
        4.36688          26.753         2.43462 
        4.38255          26.481         2.41332 
        4.39825         26.3005         2.39223 
        4.41398         26.0291         2.37134 
         4.4297         25.8472         2.35074 
        4.44541         25.5285         2.33038 
        4.46111         25.3962         2.31028 
        4.47683         25.2207          2.2904 
        4.49251          24.957         2.27081 
        4.50819         24.7012         2.25144 
         4.5239         24.5651         2.23228 
        4.53962         24.2933         2.21332 
        4.55535         24.1737         2.19457 
        4.57106         23.9074         2.17607 
        4.58678         23.7716         2.15777 
         4.6025         23.6092         2.13969 
        4.61821         23.4034         2.12181 
        4.63391         23.1648         2.10417 
         4.6496         22.9613         2.08674 
        4.66532         22.7556         2.06947 
        4.68103         22.5428         2.05241 
        4.69673         22.3812         2.03557 
        4.71241         22.2228         2.01892 
        4.72811          22.029         2.00244 
        4.74384         21.8439         1.98613 
        4.75955         21.6953         1.97002 
        4.77525         21.4958          1.9541 
        4.79096         21.3517         1.93834 
        4.80669         21.1946         1.92274 
         4.8224         21.0025         1.90734 
        4.83809         20.7732         1.89212 
        4.85379         20.6141         1.87706 
         4.8695         20.4643         1.86215 
        4.88521         20.3022         1.84742 
        4.90093         20.1713         1.83284 
        4.91663          19.978         1.81843 
        4.93234         19.8101         1.80416 
        4.94807         19.6647         1.79004 
        4.96377         19.5161          1.7761 
        4.97943         19.3715         1.76233 
        4.99514         19.1558         1.74868 
        5.01086         19.0442         1.73516 
        5.02654         18.9106         1.72183 
        5.04227         18.7643         1.70859 
          5.058         18.5822         1.69549 
        5.07371         18.4827         1.68255 
        5.08942         18.3574         1.66974 
        5.10513         18.1867         1.65707 
        5.12084         17.9923         1.64453 
        5.13656         17.8931         1.63211 
        5.15225         17.7693         1.61985 
        5.16796         17.6568          1.6077 
        5.18369          17.497         1.59566 
         5.1994         17.3639         1.58376 
        5.21509         17.1838           1.572 
        5.23079         17.0859         1.56035 
        5.24649         16.9632         1.54882 
        5.26217         16.8215         1.53742 
        5.27788         16.6694         1.52612 
        5.29359         16.5415         1.51493 
        5.30933         16.4508         1.50383 
        5.32504         16.3173         1.49287 
        5.34073         16.2071         1.48203 
        5.35646         16.1001         1.47128 
        5.37218         15.9461         1.46063 
        5.38789          15.815         1.45011 
        5.40357         15.7064          1.4397 
        5.41929         15.5877         1.42937 
        5.43502         15.4957         1.41914 
         5.4507         15.3767         1.40904 
        5.46639         15.2514         1.39904 
        5.48212         15.1181         1.38911 
        5.49786          15.008         1.37926 
        5.51353         14.9239         1.36956 
        5.52921          14.818         1.35995 
        5.54495         14.7163          1.3504 
        5.56066         14.5951         1.34095 
        5.57637         14.4863         1.33159 
        5.59207         14.3901         1.32234 
        5.60778         14.2834         1.31316 
        5.62346          14.187         1.30409 
        5.63916          14.069          1.2951 
        5.65487         13.9643         1.28618 
         5.6706         13.8777         1.27734 
        5.68633         13.7658         1.26859 
        5.70203         13.6918         1.25993 
        5.71773         13.5489         1.25135 
        5.73344         13.4958         1.24285 
        5.74916         13.3744         1.23442 
        5.76486         13.2735         1.22609 
        5.78054         13.2152         1.21784 
        5.79626         13.0882         1.20965 
          5.812         13.0029         1.20152 
         5.8277         12.8985         1.19349 
        5.84339         12.8243         1.18554 
        5.85911         12.7289         1.17764 
        5.87484         12.6366         1.16982 
        5.89053         12.5528         1.16209 
        5.90623         12.4735         1.15442 
        5.92195         12.3639         1.14681 
        5.93767         12.2769         1.13927 
        5.95336         12.1942         1.13181 
        5.96905         12.1308         1.12443 
        5.98476          12.042          1.1171 
        6.00048         11.9272         1.10983 
        6.01617         11.8754         1.10264 
        6.03185         11.7803         1.09552 
        6.04756         11.6986         1.08844 
        6.06331         11.6268         1.08142 
        6.07903         11.5145         1.07447 
        6.09473         11.4548         1.06759 
        6.11044         11.3661         1.06076 
        6.12616         11.3099         1.05399 
        6.14186         11.2272          1.0473 
        6.15755         11.1456         1.04066 
        6.17326         11.0835         1.03407 
        6.18898         11.0046         1.02754 
        6.20467         10.9295         1.02107 
        6.22036         10.8435         1.01467 
         6.2361         10.7845          1.0083 
         6.2518         10.7145         1.00199 
        6.26748         10.6291        0.995756 
        6.28319         10.5687        0.989556 
        6.29893         10.4983        0.983404 
        6.31463         10.4044        0.977316 
        6.33033         10.3472        0.971281 
        6.34604         10.2837        0.965293 
        6.36177         10.2347         0.95935 
        6.37747         10.1574        0.953469 
