# k  (h/Mpc)    Pcb(k)  (Mpc/h)^3    Pcb_linear(k) (Mpc/h)^3   ShotnoiseSubtracted = true
      0.0200456         1156.15         1170.99 
      0.0350414         861.805         851.267 
      0.0492313         620.477         618.514 
      0.0637834         508.872         514.165 
      0.0800726         402.827          408.08 
       0.096163         300.831         296.098 
       0.111083         241.395         236.175 
       0.126058          208.22         209.299 
       0.142273         176.032         177.323 
       0.158546         141.301         140.048 
        0.17375         120.504          117.99 
       0.188953         108.255         106.837 
       0.204907         93.2702         94.5292 
       0.220756         81.1476         79.9775 
        0.23588         70.7622         69.5734 
         0.2514         64.1766         63.2068 
       0.267535         58.7143         57.1913 
       0.283568         51.6727          50.435 
       0.299022         46.5872          44.935 
       0.314451         43.4879         41.0675 
       0.330372         39.2107         37.6749 
       0.346141         35.7087         34.1957 
       0.361624         32.5314         31.0792 
       0.377134         29.7934         28.5978 
       0.392932         28.5568         26.4609 
       0.408854         25.8354         24.3919 
       0.424564         24.5231         22.4823 
       0.440253         22.3943         20.8437 
       0.455999         20.5067         19.4189 
       0.471626         19.2594         18.1095 
        0.48727         18.5322         16.8846 
       0.502856         17.3502         15.7843 
       0.518488         16.0152         14.8024 
       0.534347         14.9924         13.8897 
       0.550082         14.3716         13.0481 
       0.565732         13.7403         12.2782 
       0.581496         12.9169          11.573 
       0.597222         12.1582         10.9263 
       0.612804         11.4738         10.3316 
       0.628434         11.1049         9.77731 
       0.644267         10.5357          9.2591 
       0.660051         9.97207         8.78149 
       0.675724         9.42807         8.34047 
       0.691403         9.11297         7.92937 
       0.707174         8.67343         7.54366 
       0.722871         8.44334         7.18514 
        0.73838         7.89966         6.85376 
       0.754018         7.53644         6.54077 
       0.769845         7.19095         6.24393 
        0.78569         7.00358         5.96526 
       0.801365         6.69044         5.70638 
       0.817031         6.46213         5.46309 
       0.832809         6.14366         5.23251 
       0.848511          5.9685         5.01634 
       0.864097         5.74848         4.81393 
       0.879701          5.5987         4.62254 
       0.895507         5.36022         4.43935 
       0.911279         5.16026         4.26652 
        0.92691          5.0115         4.10436 
       0.942635         4.80471         3.94977 
       0.958396         4.64823         3.80285 
       0.974128         4.52565         3.66371 
       0.989692         4.31842         3.53293 
        1.00528         4.23263         3.40837 
        1.02113         4.10209         3.28788 
        1.03692         3.99374         3.17369 
        1.05264         3.83266         3.06547 
        1.06832         3.73474         2.96249 
        1.08405         3.62418         2.86398 
        1.09979         3.53467         2.76991 
        1.11537         3.42795         2.68102 
        1.13105         3.31418         2.59551 
        1.14679         3.23061         2.51341 
        1.16256         3.12701         2.43472 
        1.17828         3.08377         2.35967 
        1.19395         2.96791         2.28805 
         1.2097         2.88469         2.21904 
        1.22537         2.79294         2.15323 
          1.241         2.73669         2.09029 
        1.25666         2.69612         2.02972 
        1.27241         2.63027         1.97128 
        1.28819         2.52573         1.91504 
        1.30392         2.46675         1.86118 
        1.31957         2.42936         1.80962 
        1.33529         2.33564         1.75984 
        1.35108         2.29342         1.71174 
        1.36674         2.23307         1.66579 
         1.3824         2.20522         1.62157 
        1.39811         2.14239         1.57881 
        1.41389         2.08915         1.53744 
        1.42964         2.04439         1.49762 
        1.44531         2.00894         1.45942 
        1.46101          1.9585         1.42246 
        1.47667         1.92161          1.3869 
        1.49229         1.85635         1.35266 
        1.50793         1.81186         1.31953 
        1.52367         1.77979         1.28731 
        1.53953         1.73597         1.25594 
        1.55526         1.73124         1.22588 
        1.57092         1.68801         1.19692 
        1.58662         1.66821         1.16884 
        1.60235         1.60981          1.1416 
        1.61809         1.58452         1.11522 
        1.63369         1.54614         1.08991 
        1.64941         1.52142          1.0652 
        1.66519         1.49897         1.04118 
        1.68085         1.46013         1.01806 
        1.69652         1.43438        0.995648 
        1.71228         1.40384        0.973781 
        1.72806         1.38237        0.952554 
        1.74368         1.35706        0.932175 
        1.75933         1.33619        0.912352 
        1.77505         1.31199        0.893013 
        1.79081         1.27707        0.874203 
         1.8065         1.26425        0.856015 
        1.82218         1.23352        0.838362 
        1.83797         1.21166        0.821087 
        1.85367          1.1936        0.804395 
        1.86928         1.17301        0.788268 
        1.88497         1.14857        0.772496 
        1.90073         1.13959        0.757098 
        1.91647         1.10882        0.742134 
        1.93218         1.09479        0.727606 
        1.94787         1.07676         0.71349 
        1.96363         1.06179        0.699693 
        1.97935         1.04088         0.68629 
        1.99499         1.02515        0.673314 
        2.01064         1.00932        0.660655 
         2.0264        0.987953        0.648242 
        2.04216        0.978054        0.636155 
        2.05781        0.958848        0.624453 
        2.07353        0.948266        0.613004 
        2.08928        0.931063        0.601817 
        2.10499        0.916256         0.59094 
        2.12065        0.900938        0.580365 
        2.13633        0.889689         0.57004 
        2.15211        0.870614        0.559899 
        2.16785        0.862879        0.550034 
        2.18349        0.847616        0.540468 
        2.19916        0.838334        0.531111 
        2.21489        0.825103        0.521944 
        2.23063        0.808539        0.512987 
         2.2463        0.798468        0.504281 
        2.26194        0.789398        0.495799 
        2.27765         0.77617        0.487469 
        2.29341        0.766016        0.479308 
        2.30914        0.751186        0.471352 
        2.32486        0.744351        0.463581 
        2.34061        0.732596        0.455972 
        2.35635         0.72233        0.448541 
        2.37203        0.713257        0.441301 
        2.38768        0.704008        0.434236 
        2.40339        0.696183        0.427301 
        2.41914        0.686898        0.420501 
        2.43483        0.676916        0.413873 
         2.4505        0.667106        0.407399 
        2.46622        0.658801        0.401041 
        2.48195        0.649392        0.394819 
        2.49759        0.642101        0.388762 
        2.51328        0.631174        0.382816 
        2.52906        0.625042        0.376957 
        2.54479        0.615429        0.371243 
        2.56049        0.609083        0.365659 
        2.57618        0.601436        0.360194 
        2.59189        0.593355        0.354832 
        2.60758        0.587359        0.349589 
        2.62325        0.578683        0.344457 
        2.63898        0.573894        0.339411 
        2.65468        0.563174        0.334477 
        2.67044        0.558667        0.329619 
        2.68618        0.553519         0.32487 
        2.70184        0.544459        0.320233 
        2.71755        0.538352        0.315674 
        2.73329         0.53347        0.311198 
        2.74897        0.525468        0.306823 
        2.76462        0.518976        0.302542 
        2.78034        0.513468        0.298325 
        2.79607        0.508745        0.294184 
        2.81179        0.501321        0.290126 
        2.82749        0.496312        0.286149 
        2.84321        0.489709        0.282243 
        2.85893        0.483802        0.278411 
        2.87462        0.478383        0.274656 
        2.89033        0.476368        0.270967 
        2.90605         0.47044        0.267343 
        2.92176        0.465412        0.263787 
        2.93747        0.459604        0.260297 
        2.95318        0.454768         0.25687 
        2.96891        0.451487        0.253503 
        2.98456        0.443675        0.250211 
        3.00023        0.440392        0.246973 
        3.01596        0.435931        0.243782 
        3.03164        0.431404        0.240657 
        3.04738        0.426884        0.237577 
         3.0631        0.421564        0.234552 
        3.07883        0.418058         0.23158 
        3.09456        0.414868         0.22866 
        3.11026        0.409838        0.225794 
        3.12596        0.405089        0.222978 
        3.14163        0.403164        0.220217 
        3.15734        0.398504        0.217496 
        3.17308        0.394283        0.214814 
        3.18879        0.391229        0.212185 
        3.20447        0.386596        0.209603 
         3.2202        0.382431        0.207057 
         3.2359        0.378967        0.204557 
        3.25157        0.373334        0.202105 
        3.26729        0.373003        0.199685 
        3.28304        0.368963        0.197301 
        3.29877        0.365573        0.194958 
        3.31446        0.363531        0.192658 
        3.33014        0.358307        0.190398 
        3.34585        0.355521         0.18817 
        3.36158        0.352637        0.185975 
        3.37727        0.349777        0.183822 
        3.39294        0.347626        0.181704 
        3.40867         0.34269        0.179613 
        3.42439        0.340637        0.177555 
        3.44008        0.337583        0.175534 
        3.45578        0.334546        0.173543 
        3.47153        0.332559        0.171578 
        3.48724        0.329547        0.169647 
        3.50292        0.326509         0.16775 
        3.51859        0.324208        0.165883 
        3.53431        0.321136        0.164039 
        3.55007        0.318925        0.162218 
        3.56577        0.316014        0.160432 
        3.58146        0.313475        0.158674 
        3.59719        0.311213        0.156938 
        3.61292         0.30865        0.155228 
        3.62859        0.306432        0.153551 
        3.64429        0.303696        0.151895 
        3.66003        0.300919        0.150258 
        3.67578        0.299401        0.148646 
        3.69146        0.296279        0.147064 
        3.70712        0.295116        0.145508 
        3.72284        0.293312        0.143968 
        3.73853        0.290899        0.142454 
        3.75422        0.288016         0.14096 
        3.76993         0.28594        0.139487 
        3.78564        0.283291        0.138035 
        3.80137        0.281411        0.136602 
        3.81707         0.27988        0.135192 
        3.83279          0.2776        0.133801 
        3.84853        0.275096        0.132427 
        3.86424        0.273854        0.131075 
        3.87992        0.271541        0.129744 
        3.89561        0.269513        0.128431 
        3.91134        0.267226        0.127134 
        3.92704        0.265055        0.125856 
        3.94273        0.264082        0.124597 
        3.95845         0.26157        0.123353 
        3.97418        0.260263        0.122126 
        3.98988        0.257528        0.120917 
        4.00554        0.254956        0.119727 
        4.02125        0.252892        0.118551 
        4.03698        0.250224        0.117388 
        4.05268        0.247308        0.116243 
        4.06839        0.245615        0.115113 
         4.0841        0.242779        0.113998 
        4.09983        0.240974        0.112897 
        4.11555        0.238026         0.11181 
        4.13124        0.236103        0.110741 
        4.14693        0.233685        0.109685 
        4.16266        0.231019         0.10864 
        4.17839        0.229145        0.107609 
        4.19408        0.227007        0.106594 
        4.20977        0.225599        0.105592 
        4.22551        0.223349          0.1046 
        4.24123        0.221086        0.103622 
        4.25691        0.219887        0.102659 
        4.27259        0.217738        0.101708 
        4.28831        0.216434        0.100767 
        4.30404        0.214288       0.0998373 
        4.31974        0.212909       0.0989212 
        4.33543        0.211225       0.0980171 
        4.35116        0.210267       0.0971221 
        4.36688        0.208608       0.0962387 
        4.38255        0.206424       0.0953695 
        4.39825        0.205751       0.0945091 
        4.41398         0.20436       0.0936577 
         4.4297        0.203088       0.0928176 
        4.44541        0.201625        0.091988 
        4.46111        0.200784       0.0911692 
        4.47683         0.19992       0.0903597 
        4.49251        0.198468       0.0895617 
        4.50819        0.197979       0.0887735 
         4.5239        0.196895       0.0879937 
        4.53962        0.195562       0.0872223 
        4.55535        0.194787       0.0864597 
        4.57106        0.194245       0.0857074 
        4.58678        0.192754       0.0849638 
         4.6025        0.192721       0.0842289 
        4.61821        0.192325       0.0835028 
        4.63391        0.191573       0.0827862 
         4.6496        0.190596       0.0820782 
        4.66532        0.190218       0.0813775 
        4.68103        0.189307       0.0806853 
        4.69673         0.18919       0.0800017 
        4.71241        0.188758       0.0793267 
        4.72811        0.188922       0.0786585 
        4.74384        0.188104        0.077997 
        4.75955        0.187667       0.0773442 
        4.77525        0.187641       0.0766992 
        4.79096         0.18725       0.0760607 
        4.80669        0.186881       0.0754293 
         4.8224        0.187101       0.0748057 
        4.83809        0.186671       0.0741897 
        4.85379        0.186652       0.0735804 
         4.8695        0.187279       0.0729774 
        4.88521        0.186725       0.0723814 
        4.90093        0.187122        0.071792 
        4.91663        0.186995       0.0712097 
        4.93234        0.186893       0.0706331 
        4.94807         0.18748       0.0700626 
        4.96377        0.187911       0.0694995 
        4.97943        0.188259       0.0689437 
        4.99514        0.187419       0.0683926 
        5.01086        0.189104       0.0678471 
        5.02654         0.18897       0.0673089 
        5.04227        0.189468       0.0667749 
          5.058        0.190552       0.0662465 
        5.07371        0.190331       0.0657249 
        5.08942        0.191533       0.0652088 
        5.10513        0.192127       0.0646981 
        5.12084        0.192474       0.0641927 
        5.13656        0.193116       0.0636928 
        5.15225         0.19401        0.063199 
        5.16796        0.195129       0.0627097 
        5.18369        0.195668       0.0622251 
         5.1994        0.196925       0.0617466 
        5.21509        0.196936       0.0612734 
        5.23079        0.198017       0.0608047 
        5.24649        0.199159       0.0603412 
        5.26217        0.200553       0.0598829 
        5.27788        0.201109       0.0594287 
        5.29359        0.202736       0.0589791 
        5.30933        0.203825       0.0585336 
        5.32504        0.204714       0.0580933 
        5.34073         0.20666       0.0576581 
        5.35646        0.207511       0.0572265 
        5.37218        0.208937       0.0567992 
        5.38789         0.20937       0.0563769 
        5.40357        0.211201       0.0559594 
        5.41929        0.212413       0.0555452 
        5.43502         0.21479       0.0551352 
         5.4507        0.215828       0.0547302 
        5.46639        0.217506       0.0543293 
        5.48212        0.218685       0.0539315 
        5.49786        0.220352       0.0535371 
        5.51353        0.223406       0.0531487 
        5.52921        0.223273       0.0527637 
        5.54495        0.225888       0.0523814 
        5.56066        0.227532       0.0520033 
        5.57637        0.229252        0.051629 
        5.59207        0.231408       0.0512587 
        5.60778        0.232842       0.0508919 
        5.62346        0.235678       0.0505291 
        5.63916        0.236764       0.0501696 
        5.65487        0.239222       0.0498134 
         5.6706        0.239764       0.0494602 
        5.68633        0.243641       0.0491103 
        5.70203        0.246542       0.0487645 
        5.71773        0.247241       0.0484221 
        5.73344         0.24967       0.0480828 
        5.74916        0.252505       0.0477464 
        5.76486        0.255031       0.0474138 
        5.78054        0.255995       0.0470847 
        5.79626          0.2583       0.0467579 
          5.812        0.261633       0.0464339 
         5.8277         0.26367       0.0461139 
        5.84339         0.26569       0.0457969 
        5.85911        0.269195       0.0454822 
        5.87484        0.270738       0.0451706 
        5.89053        0.273861       0.0448625 
        5.90623        0.275159       0.0445571 
        5.92195        0.277995       0.0442541 
        5.93767        0.280162        0.043954 
        5.95336        0.282433       0.0436572 
        5.96905        0.285665       0.0433633 
        5.98476         0.28853       0.0430716 
        6.00048        0.290137       0.0427825 
        6.01617        0.294678       0.0424965 
        6.03185        0.296232       0.0422134 
        6.04756        0.297705       0.0419323 
        6.06331        0.300527        0.041653 
        6.07903          0.3049        0.041377 
        6.09473        0.306707       0.0411036 
        6.11044        0.308969       0.0408325 
        6.12616        0.312476       0.0405639 
        6.14186        0.314741       0.0402979 
        6.15755        0.319277       0.0400344 
        6.17326        0.320503        0.039773 
        6.18898        0.322564       0.0395138 
        6.20467        0.323409       0.0392574 
        6.22036         0.32941       0.0390033 
         6.2361        0.329578       0.0387507 
         6.2518        0.333866       0.0385008 
        6.26748        0.335821       0.0382537 
        6.28319        0.340158        0.038008 
        6.29893        0.341583       0.0377643 
        6.31463        0.344536       0.0375231 
        6.33033        0.347199       0.0372841 
        6.34604        0.351124        0.037047 
        6.36177        0.351787       0.0368118 
        6.37747        0.354985        0.036579 
