# k  (h/Mpc)    Pcb(k)  (Mpc/h)^3    Pcb_linear(k) (Mpc/h)^3   ShotnoiseSubtracted = true
      0.0200456         13431.9         13703.3 
      0.0350414         9626.14         9961.85 
      0.0492313         7154.55         7238.09 
      0.0637834         6136.42         6016.96 
      0.0800726         4852.59         4775.51 
       0.096163         3383.14         3465.05 
       0.111083         2696.55         2763.81 
       0.126058         2486.31          2449.3 
       0.142273          2149.5          2075.1 
       0.158546         1817.94         1638.89 
        0.17375         1455.71         1380.76 
       0.188953         1410.68         1250.25 
       0.204907         1325.76         1106.22 
       0.220756         1132.97         935.927 
        0.23588         1000.77         814.175 
         0.2514         871.978          739.67 
       0.267535         856.557         669.274 
       0.283568         776.786          590.21 
       0.299022         727.263         525.846 
       0.314451         687.641         480.588 
       0.330372          633.68         440.886 
       0.346141         580.904         400.171 
       0.361624           558.7           363.7 
       0.377134         518.848         334.662 
       0.392932         496.285         309.656 
       0.408854         477.738         285.443 
       0.424564         451.171         263.097 
       0.440253         439.746         243.921 
       0.455999         414.468         227.247 
       0.471626         389.948         211.924 
        0.48727         377.599          197.59 
       0.502856         366.012         184.713 
       0.518488         362.495         173.224 
       0.534347         339.533         162.543 
       0.550082         322.213         152.694 
       0.565732          319.65         143.684 
       0.581496         301.868         135.432 
       0.597222         296.378         127.863 
       0.612804         286.995         120.904 
       0.628434         276.054         114.418 
       0.644267         267.902         108.354 
       0.660051         263.364         102.764 
       0.675724         258.723         97.6034 
       0.691403         251.246         92.7925 
       0.707174         241.682         88.2788 
       0.722871         239.057         84.0833 
        0.73838         234.674         80.2053 
       0.754018         228.585         76.5426 
       0.769845         220.841         73.0689 
        0.78569         220.238         69.8078 
       0.801365         212.759         66.7782 
       0.817031         206.357         63.9312 
       0.832809         204.168         61.2329 
       0.848511         198.837         58.7032 
       0.864097         196.318         56.3344 
       0.879701         192.347         54.0948 
       0.895507         187.477          51.951 
       0.911279         182.228         49.9284 
        0.92691         182.123         48.0308 
       0.942635         177.548         46.2217 
       0.958396         176.717         44.5024 
       0.974128         172.365         42.8741 
       0.989692         168.321         41.3437 
        1.00528         165.995          39.886 
        1.02113         164.965          38.476 
        1.03692         159.718         37.1397 
        1.05264         156.943         35.8733 
        1.06832         154.168         34.6682 
        1.08405          151.96         33.5154 
        1.09979         151.162         32.4145 
        1.11537         146.518         31.3743 
        1.13105         145.237         30.3736 
        1.14679         144.666         29.4129 
        1.16256         142.285          28.492 
        1.17828         139.257         27.6138 
        1.19395         137.282         26.7756 
         1.2097         135.855         25.9681 
        1.22537         134.013         25.1979 
          1.241         131.683         24.4614 
        1.25666         129.621         23.7526 
        1.27241          127.51         23.0687 
        1.28819         126.067         22.4106 
        1.30392          124.36         21.7802 
        1.31957         123.154         21.1769 
        1.33529         120.125         20.5943 
        1.35108         119.167         20.0315 
        1.36674         118.115         19.4937 
         1.3824         115.684         18.9762 
        1.39811          114.98         18.4759 
        1.41389         113.119         17.9917 
        1.42964         110.881         17.5258 
        1.44531         108.761         17.0786 
        1.46101         107.879         16.6462 
        1.47667         106.834         16.2301 
        1.49229         105.222         15.8293 
        1.50793         104.306         15.4417 
        1.52367         102.956         15.0646 
        1.53953         101.094         14.6975 
        1.55526         100.254         14.3457 
        1.57092         99.1975         14.0069 
        1.58662         97.2541         13.6782 
        1.60235         96.9158         13.3594 
        1.61809         95.0432         13.0507 
        1.63369         94.3384         12.7545 
        1.64941         93.5183         12.4654 
        1.66519         91.3611         12.1843 
        1.68085         90.8315         11.9138 
        1.69652          88.681         11.6515 
        1.71228         88.8338         11.3956 
        1.72806         87.4374         11.1472 
        1.74368         86.3768         10.9087 
        1.75933         85.0572         10.6767 
        1.77505         84.3015         10.4504 
        1.79081         82.9239         10.2303 
         1.8065         82.0926         10.0174 
        1.82218          80.645         9.81083 
        1.83797         79.8606         9.60867 
        1.85367          79.079         9.41334 
        1.86928         78.7999         9.22461 
        1.88497         77.0935         9.04004 
        1.90073          76.362         8.85984 
        1.91647         75.6377         8.68473 
        1.93218         74.5088         8.51473 
        1.94787         73.7914         8.34953 
        1.96363         72.6052         8.18807 
        1.97935         72.1845         8.03122 
        1.99499         71.0423         7.87937 
        2.01064         70.4973         7.73123 
         2.0264          69.106         7.58598 
        2.04216         68.4281         7.44453 
        2.05781         67.7116         7.30759 
        2.07353         66.6193         7.17361 
        2.08928         65.7647          7.0427 
        2.10499         65.3721         6.91541 
        2.12065         64.8377         6.79165 
        2.13633         64.0497         6.67082 
        2.15211         63.3964         6.55215 
        2.16785         62.7296          6.4367 
        2.18349         62.1131         6.32477 
        2.19916         61.2285         6.21526 
        2.21489         60.7064         6.10798 
        2.23063         60.2281         6.00317 
         2.2463         59.3684         5.90129 
        2.26194         58.5845         5.80203 
        2.27765         58.1768         5.70455 
        2.29341         57.5026         5.60905 
        2.30914         56.6027         5.51594 
        2.32486          55.795           5.425 
        2.34061         55.4095         5.33596 
        2.35635         54.8575         5.24899 
        2.37203         54.0462         5.16427 
        2.38768         53.5731          5.0816 
        2.40339         52.8901         5.00044 
        2.41914         52.6055         4.92086 
        2.43483         52.2189         4.84329 
         2.4505         51.6653         4.76753 
        2.46622         51.0495         4.69313 
        2.48195         50.4526         4.62032 
        2.49759         49.6475         4.54944 
        2.51328         49.2406         4.47986 
        2.52906         48.8045          4.4113 
        2.54479         48.2843         4.34443 
        2.56049          47.629         4.27908 
        2.57618         47.3173         4.21512 
        2.59189         46.7538         4.15238 
        2.60758         46.3929         4.09102 
        2.62325         45.7696         4.03097 
        2.63898         45.3658         3.97192 
        2.65468         44.7992         3.91417 
        2.67044         44.0885         3.85733 
        2.68618         43.9042         3.80175 
        2.70184         43.3313         3.74748 
        2.71755         43.1542         3.69414 
        2.73329         42.3919         3.64176 
        2.74897         42.0533         3.59056 
        2.76462         41.5622         3.54046 
        2.78034         41.3162         3.49111 
        2.79607         40.7881         3.44265 
        2.81179         40.4264         3.39517 
        2.82749         39.7753         3.34863 
        2.84321         39.5422         3.30291 
        2.85893         39.1246         3.25807 
        2.87462         38.6078         3.21413 
        2.89033         38.2848         3.17096 
        2.90605         37.9789         3.12855 
        2.92176         37.5789         3.08693 
        2.93747         37.2255          3.0461 
        2.95318         36.8156         3.00599 
        2.96891         36.2403         2.96659 
        2.98456         36.1075         2.92806 
        3.00023         35.6802         2.89017 
        3.01596         35.2809         2.85283 
        3.03164         34.9771         2.81626 
        3.04738         34.7203         2.78022 
         3.0631         34.2049         2.74482 
        3.07883         33.9196         2.71004 
        3.09456         33.6283         2.67586 
        3.11026         33.2682         2.64233 
        3.12596         32.9357         2.60938 
        3.14163         32.5863         2.57706 
        3.15734         32.2665         2.54522 
        3.17308         31.9711         2.51383 
        3.18879         31.7018         2.48307 
        3.20447         31.3402         2.45286 
         3.2202         31.0142         2.42306 
         3.2359         30.7935         2.39381 
        3.25157          30.521         2.36511 
        3.26729         30.2305         2.33679 
        3.28304         29.8925         2.30889 
        3.29877         29.4935         2.28147 
        3.31446         29.3363         2.25456 
        3.33014         29.0402         2.22811 
        3.34585         28.8411         2.20204 
        3.36158          28.447         2.17635 
        3.37727         28.1866         2.15115 
        3.39294         27.9548         2.12637 
        3.40867         27.6717          2.1019 
        3.42439         27.4192         2.07782 
        3.44008         27.1686         2.05416 
        3.45578         26.8534         2.03086 
        3.47153         26.6313         2.00787 
        3.48724         26.3345         1.98527 
        3.50292         26.1356         1.96307 
        3.51859         25.8593         1.94123 
        3.53431         25.7272         1.91964 
        3.55007         25.4238         1.89834 
        3.56577         25.1618         1.87744 
        3.58146         25.0381         1.85686 
        3.59719         24.7145         1.83654 
        3.61292          24.516         1.81654 
        3.62859         24.2834         1.79691 
        3.64429         24.0585         1.77753 
        3.66003         23.8086         1.75838 
        3.67578          23.662         1.73951 
        3.69146         23.4034           1.721 
        3.70712         23.1575         1.70279 
        3.72284         23.0088         1.68477 
        3.73853         22.7851         1.66705 
        3.75422         22.5594         1.64957 
        3.76993         22.3832         1.63233 
        3.78564         22.0987         1.61534 
        3.80137          21.951         1.59857 
        3.81707          21.801         1.58207 
        3.83279         21.5068         1.56579 
        3.84853         21.3282         1.54971 
        3.86424         21.1833         1.53389 
        3.87992         21.0094         1.51831 
        3.89561         20.8013         1.50295 
        3.91134         20.6672         1.48777 
        3.92704         20.4605         1.47281 
        3.94273          20.274         1.45808 
        3.95845          20.074         1.44352 
        3.97418         19.9321         1.42916 
        3.98988         19.7162         1.41501 
        4.00554         19.5931         1.40109 
        4.02125         19.3894         1.38732 
        4.03698         19.1507         1.37372 
        4.05268         19.0416         1.36032 
        4.06839         18.8247          1.3471 
         4.0841          18.779         1.33405 
        4.09983         18.5334         1.32116 
        4.11555         18.3917         1.30845 
        4.13124         18.2218         1.29593 
        4.14693         18.0465         1.28357 
        4.16266          17.885         1.27134 
        4.17839         17.7525         1.25928 
        4.19408         17.5893         1.24741 
        4.20977         17.4678         1.23568 
        4.22551         17.3302         1.22407 
        4.24123         17.1691         1.21262 
        4.25691         17.0779         1.20136 
        4.27259         16.9003         1.19023 
        4.28831         16.7272         1.17922 
        4.30404         16.5982         1.16833 
        4.31974         16.4398         1.15761 
        4.33543         16.3081         1.14703 
        4.35116         16.1927         1.13656 
        4.36688         16.0308         1.12622 
        4.38255         15.9334         1.11605 
        4.39825         15.8305         1.10598 
        4.41398         15.6526         1.09602 
         4.4297         15.5334         1.08619 
        4.44541         15.4247         1.07648 
        4.46111         15.3002          1.0669 
        4.47683         15.1573         1.05742 
        4.49251         15.0806         1.04808 
        4.50819          14.915         1.03886 
         4.5239          14.827         1.02974 
        4.53962         14.6614         1.02071 
        4.55535         14.5757         1.01178 
        4.57106         14.4724         1.00298 
        4.58678          14.342        0.994279 
         4.6025         14.1993        0.985678 
        4.61821         14.0952        0.977181 
        4.63391         14.0252        0.968795 
         4.6496         13.8504        0.960511 
        4.66532         13.7348        0.952311 
        4.68103         13.6321         0.94421 
        4.69673          13.588         0.93621 
        4.71241         13.4408        0.928312 
        4.72811         13.3408        0.920491 
        4.74384         13.2228        0.912751 
        4.75955         13.1193        0.905111 
        4.77525         13.0437        0.897563 
        4.79096         12.9483        0.890092 
        4.80669         12.8373        0.882702 
         4.8224         12.7106        0.875404 
        4.83809         12.6444        0.868197 
        4.85379          12.516        0.861066 
         4.8695         12.4606        0.854009 
        4.88521         12.3399        0.847035 
        4.90093          12.231        0.840137 
        4.91663         12.1706        0.833322 
        4.93234         12.0499        0.826576 
        4.94807         11.9673          0.8199 
        4.96377         11.8747         0.81331 
        4.97943         11.7861        0.806806 
        4.99514         11.7023        0.800356 
        5.01086         11.6044        0.793972 
        5.02654           11.51        0.787674 
        5.04227         11.4461        0.781426 
          5.058          11.345        0.775242 
        5.07371         11.2786        0.769138 
        5.08942         11.1542        0.763098 
        5.10513         11.0958        0.757122 
        5.12084         11.0353        0.751208 
        5.13656         10.9319        0.745357 
        5.15225         10.8638        0.739579 
        5.16796         10.7776        0.733853 
        5.18369         10.6791        0.728182 
         5.1994         10.6196        0.722582 
        5.21509         10.5324        0.717045 
        5.23079         10.4443         0.71156 
        5.24649         10.4154        0.706136 
        5.26217          10.276        0.700773 
        5.27788         10.2278        0.695458 
        5.29359         10.1355        0.690196 
        5.30933           10.09        0.684982 
        5.32504         10.0042         0.67983 
        5.34073         9.93907        0.674737 
        5.35646         9.85383        0.669686 
        5.37218          9.7759        0.664685 
        5.38789         9.71632        0.659744 
        5.40357         9.64069        0.654858 
        5.41929         9.57294        0.650011 
        5.43502         9.51067        0.645213 
         5.4507         9.43008        0.640474 
        5.46639         9.35304        0.635782 
        5.48212         9.29767        0.631127 
        5.49786         9.24308        0.626512 
        5.51353         9.16678        0.621966 
        5.52921         9.10869        0.617461 
        5.54495         9.03754        0.612987 
        5.56066         8.95545        0.608562 
        5.57637         8.90532        0.604182 
        5.59207         8.84272        0.599848 
        5.60778         8.77796        0.595556 
        5.62346          8.7084        0.591311 
        5.63916         8.67226        0.587104 
        5.65487         8.59564        0.582935 
         5.6706         8.56084        0.578802 
        5.68633          8.4762        0.574707 
        5.70203         8.42971        0.570661 
        5.71773         8.36207        0.566654 
        5.73344         8.30954        0.562683 
        5.74916         8.24319        0.558747 
        5.76486         8.21856        0.554854 
        5.78054         8.13908        0.551004 
        5.79626          8.0806        0.547179 
          5.812         8.03488        0.543387 
         5.8277         7.97455        0.539642 
        5.84339         7.92853        0.535932 
        5.85911         7.86235         0.53225 
        5.87484         7.81852        0.528603 
        5.89053         7.76838        0.524998 
        5.90623          7.7015        0.521424 
        5.92195         7.65823        0.517878 
        5.93767         7.61025        0.514367 
        5.95336         7.55456        0.510893 
        5.96905         7.50131        0.507453 
        5.98476         7.46361         0.50404 
        6.00048         7.40633        0.500657 
        6.01617         7.35836         0.49731 
        6.03185         7.30175        0.493998 
        6.04756         7.26097        0.490707 
        6.06331         7.22299         0.48744 
        6.07903          7.1767        0.484209 
        6.09473          7.1178         0.48101 
        6.11044         7.06247        0.477838 
        6.12616         7.02943        0.474694 
        6.14186         6.99227        0.471582 
        6.15755         6.92612        0.468498 
        6.17326         6.87807        0.465439 
        6.18898         6.84555        0.462406 
        6.20467         6.79791        0.459405 
        6.22036         6.74404        0.456431 
         6.2361         6.71097        0.453476 
         6.2518         6.65513        0.450551 
        6.26748         6.61769        0.447659 
        6.28319         6.56836        0.444784 
        6.29893         6.53829        0.441932 
        6.31463         6.49521         0.43911 
        6.33033         6.44294        0.436313 
        6.34604         6.41415        0.433538 
        6.36177          6.3694        0.430785 
        6.37747         6.33831        0.428061 
