# k  (h/Mpc)    Pcb(k)  (Mpc/h)^3    Pcb_linear(k) (Mpc/h)^3   ShotnoiseSubtracted = true
      0.0200456         21738.7         22121.5 
      0.0350414         16586.5         16081.6 
      0.0492313         11433.3         11684.6 
      0.0637834         9217.22         9713.28 
      0.0800726         7233.63         7709.19 
       0.096163         5813.24         5593.69 
       0.111083         4734.98         4461.67 
       0.126058         3913.73         3953.95 
       0.142273         3428.79         3349.86 
       0.158546         2814.39         2645.69 
        0.17375         2515.54         2228.99 
       0.188953         2384.62          2018.3 
       0.204907         2051.61         1785.79 
       0.220756         1855.42         1510.88 
        0.23588         1656.74         1314.34 
         0.2514         1500.59         1194.06 
       0.267535         1448.75         1080.42 
       0.283568         1290.98         952.786 
       0.299022         1231.58         848.883 
       0.314451         1282.83         775.822 
       0.330372         1133.12         711.729 
       0.346141         1041.23         646.003 
       0.361624         999.739         587.128 
       0.377134         958.767          540.25 
       0.392932         915.189         499.883 
       0.408854         877.571         460.796 
       0.424564         858.998         424.722 
       0.440253         796.338         393.766 
       0.455999         761.886          366.85 
       0.471626         776.067         342.113 
        0.48727         732.664         318.974 
       0.502856         702.325         298.186 
       0.518488         682.943         279.638 
       0.534347          655.18         262.395 
       0.550082         625.161         246.496 
       0.565732         616.969         231.951 
       0.581496         604.252          218.63 
       0.597222         591.206         206.412 
       0.612804         577.489         195.178 
       0.628434         553.901         184.707 
       0.644267         538.525         174.917 
       0.660051         532.683         165.894 
       0.675724         521.898         157.563 
       0.691403         507.782         149.797 
       0.707174         492.168          142.51 
       0.722871         486.578         135.737 
        0.73838         476.774         129.477 
       0.754018         464.529         123.564 
       0.769845         459.428         117.956 
        0.78569         449.955         112.692 
       0.801365         434.754         107.801 
       0.817031         431.669         103.205 
       0.832809          425.15         98.8493 
       0.848511         417.942         94.7655 
       0.864097         408.177         90.9417 
       0.879701         407.016         87.3261 
       0.895507         391.532         83.8654 
       0.911279         385.958         80.6003 
        0.92691         382.172         77.5369 
       0.942635         378.019         74.6165 
       0.958396         365.486          71.841 
       0.974128           361.4         69.2124 
       0.989692         350.447         66.7418 
        1.00528         348.203         64.3887 
        1.02113          342.41         62.1125 
        1.03692         337.098         59.9553 
        1.05264          332.06         57.9109 
        1.06832         326.039         55.9654 
        1.08405         323.624         54.1045 
        1.09979         317.375         52.3274 
        1.11537         309.167          50.648 
        1.13105         305.737         49.0326 
        1.14679         301.121         47.4817 
        1.16256          299.38         45.9952 
        1.17828         294.445         44.5774 
        1.19395         287.084         43.2243 
         1.2097         286.347         41.9208 
        1.22537         281.397         40.6774 
          1.241         275.061         39.4885 
        1.25666         272.776         38.3442 
        1.27241          268.92         37.2401 
        1.28819         263.147         36.1778 
        1.30392         263.048         35.1601 
        1.31957         255.332         34.1862 
        1.33529         252.354         33.2458 
        1.35108         251.148         32.3371 
        1.36674         244.224          31.469 
         1.3824         242.681         30.6337 
        1.39811         240.322         29.8259 
        1.41389         233.917         29.0443 
        1.42964         231.395         28.2922 
        1.44531         229.319         27.5704 
        1.46101         225.372         26.8723 
        1.47667         222.746         26.2005 
        1.49229         219.647         25.5535 
        1.50793         216.674         24.9278 
        1.52367         213.489          24.319 
        1.53953         209.506         23.7265 
        1.55526         208.027         23.1585 
        1.57092         206.299         22.6115 
        1.58662         201.531         22.0809 
        1.60235         199.526         21.5664 
        1.61809         197.257          21.068 
        1.63369         193.558         20.5899 
        1.64941         191.097         20.1231 
        1.66519         188.815         19.6693 
        1.68085          185.61         19.2326 
        1.69652         183.987         18.8091 
        1.71228         180.977          18.396 
        1.72806         179.165          17.995 
        1.74368         176.985           17.61 
        1.75933         175.784         17.2356 
        1.77505          173.11         16.8702 
        1.79081         169.456         16.5149 
         1.8065         168.254         16.1713 
        1.82218         164.574         15.8378 
        1.83797         163.661         15.5115 
        1.85367         161.256         15.1961 
        1.86928             159         14.8914 
        1.88497         157.833         14.5935 
        1.90073         156.102         14.3026 
        1.91647         153.039         14.0199 
        1.93218         151.161         13.7455 
        1.94787         149.199         13.4788 
        1.96363         148.672         13.2182 
        1.97935         146.783         12.9649 
        1.99499         144.536         12.7198 
        2.01064         141.563         12.4807 
         2.0264         141.063         12.2462 
        2.04216         138.892         12.0178 
        2.05781         136.483         11.7968 
        2.07353         135.535         11.5805 
        2.08928         133.829         11.3691 
        2.10499         132.573         11.1637 
        2.12065         131.072         10.9639 
        2.13633         129.273         10.7688 
        2.15211         127.166         10.5773 
        2.16785         125.885         10.3909 
        2.18349          124.41         10.2102 
        2.19916         122.922         10.0334 
        2.21489         121.528         9.86022 
        2.23063         119.776         9.69102 
         2.2463         118.265         9.52655 
        2.26194         117.323         9.36632 
        2.27765         115.566         9.20895 
        2.29341         114.545         9.05479 
        2.30914         113.385         8.90448 
        2.32486         111.323         8.75767 
        2.34061         110.298         8.61393 
        2.35635         109.405         8.47354 
        2.37203         107.478         8.33678 
        2.38768         106.801         8.20331 
        2.40339         105.104         8.07229 
        2.41914          103.96         7.94383 
        2.43483         103.291         7.81861 
         2.4505         101.732         7.69631 
        2.46622         100.444         7.57621 
        2.48195         99.6621         7.45866 
        2.49759         98.1756         7.34424 
        2.51328         97.4019         7.23192 
        2.52906         96.1551         7.12124 
        2.54479          94.906         7.01329 
        2.56049         93.6805         6.90779 
        2.57618         92.7509         6.80455 
        2.59189         91.9948         6.70327 
        2.60758         90.4312         6.60421 
        2.62325         90.1311         6.50727 
        2.63898         88.9593         6.41194 
        2.65468         87.9638         6.31872 
        2.67044         86.6716         6.22696 
        2.68618         85.7082         6.13723 
        2.70184         84.7141         6.04963 
        2.71755         84.1117         5.96352 
        2.73329          82.732         5.87895 
        2.74897         82.0594          5.7963 
        2.76462         81.4371         5.71543 
        2.78034         79.9165         5.63576 
        2.79607         79.1255         5.55753 
        2.81179         78.5616         5.48088 
        2.82749         77.7441         5.40575 
        2.84321         76.6776         5.33195 
        2.85893         75.7239         5.25955 
        2.87462          75.081         5.18862 
        2.89033          74.303         5.11894 
        2.90605         73.6553         5.05047 
        2.92176         72.8307         4.98329 
        2.93747         72.1972         4.91736 
        2.95318         70.9649         4.85262 
        2.96891         70.5754         4.78901 
        2.98456         69.6719         4.72683 
        3.00023         68.9904         4.66565 
        3.01596         68.4949         4.60537 
        3.03164         67.6273         4.54633 
        3.04738         67.3325         4.48815 
         3.0631         66.1544         4.43101 
        3.07883         65.6583         4.37486 
        3.09456         64.8339         4.31969 
        3.11026         64.3029         4.26556 
        3.12596         63.5834         4.21236 
        3.14163         62.8824         4.16019 
        3.15734         62.1083         4.10879 
        3.17308         61.6705         4.05812 
        3.18879         61.0538         4.00846 
        3.20447         60.6129         3.95969 
         3.2202         59.7487         3.91159 
         3.2359         59.0825         3.86437 
        3.25157         58.7452         3.81804 
        3.26729         58.0639         3.77233 
        3.28304         57.3235         3.72728 
        3.29877         56.9043         3.68302 
        3.31446         56.3546         3.63958 
        3.33014         55.8049         3.59688 
        3.34585         55.2017         3.55479 
        3.36158          54.851         3.51332 
        3.37727         54.1039         3.47264 
        3.39294         53.6718         3.43264 
        3.40867          53.189         3.39313 
        3.42439          52.568         3.35426 
        3.44008         51.9862         3.31607 
        3.45578         51.6198         3.27845 
        3.47153         51.0814         3.24134 
        3.48724         50.5776         3.20486 
        3.50292         50.1227         3.16902 
        3.51859         49.6336         3.13375 
        3.53431         49.0098         3.09891 
        3.55007         48.5792         3.06452 
        3.56577         48.1362         3.03078 
        3.58146         47.6076         2.99756 
        3.59719         47.2006         2.96477 
        3.61292         46.6719         2.93247 
        3.62859         46.4042         2.90078 
        3.64429         46.0224          2.8695 
        3.66003          45.618         2.83858 
        3.67578         45.1418         2.80813 
        3.69146         44.7116         2.77824 
        3.70712         44.3073         2.74884 
        3.72284         43.9255         2.71975 
        3.73853         43.4683         2.69114 
        3.75422         43.0406         2.66293 
        3.76993         42.6918          2.6351 
        3.78564         42.3144         2.60767 
        3.80137         42.0096         2.58059 
        3.81707         41.4298         2.55396 
        3.83279         41.1879         2.52767 
        3.84853         40.7529         2.50172 
        3.86424         40.2923         2.47618 
        3.87992           40.03         2.45103 
        3.89561         39.7057         2.42624 
        3.91134         39.3724         2.40173 
        3.92704         38.9999         2.37759 
        3.94273         38.6312         2.35381 
        3.95845         38.3006         2.33031 
        3.97418         37.9573         2.30712 
        3.98988         37.5452         2.28428 
        4.00554          37.294         2.26181 
        4.02125         37.0269         2.23958 
        4.03698         36.6065         2.21762 
        4.05268          36.415         2.19599 
        4.06839         35.9516         2.17464 
         4.0841         35.7642         2.15358 
        4.09983           35.38         2.13277 
        4.11555          35.099         2.11225 
        4.13124         34.7147         2.09205 
        4.14693         34.4377         2.07209 
        4.16266         34.1509         2.05235 
        4.17839         33.8591         2.03288 
        4.19408         33.6184         2.01371 
        4.20977         33.3433         1.99477 
        4.22551         32.9722         1.97604 
        4.24123         32.7371         1.95756 
        4.25691         32.4397         1.93937 
        4.27259         32.2244          1.9214 
        4.28831         31.8678         1.90363 
        4.30404         31.6439         1.88606 
        4.31974         31.3473         1.86876 
        4.33543         31.1267         1.85168 
        4.35116         30.8438         1.83477 
        4.36688         30.5533         1.81808 
        4.38255         30.3787         1.80166 
        4.39825         30.0316         1.78541 
        4.41398         29.8139         1.76932 
         4.4297         29.5997         1.75345 
        4.44541         29.4331         1.73778 
        4.46111         29.0646         1.72231 
        4.47683         28.8463         1.70702 
        4.49251         28.6615         1.69194 
        4.50819         28.4425         1.67705 
         4.5239         28.1254         1.66232 
        4.53962         27.9769         1.64775 
        4.55535         27.6976         1.63334 
        4.57106         27.4746         1.61913 
        4.58678         27.2989         1.60508 
         4.6025         27.0453          1.5912 
        4.61821         26.8783         1.57748 
        4.63391         26.5128         1.56394 
         4.6496         26.3806         1.55057 
        4.66532         26.2158         1.53733 
        4.68103          25.941         1.52425 
        4.69673         25.7541         1.51134 
        4.71241         25.5928         1.49859 
        4.72811         25.3463         1.48597 
        4.74384         25.1303         1.47347 
        4.75955         24.9786         1.46114 
        4.77525         24.7714         1.44895 
        4.79096         24.5275         1.43689 
        4.80669         24.4029         1.42496 
         4.8224         24.1739         1.41318 
        4.83809         23.9238         1.40155 
        4.85379         23.7528         1.39003 
         4.8695         23.6169         1.37864 
        4.88521         23.3653         1.36738 
        4.90093         23.2511         1.35625 
        4.91663         23.0275         1.34525 
        4.93234         22.8697         1.33436 
        4.94807         22.6904         1.32358 
        4.96377         22.5489         1.31294 
        4.97943         22.3137         1.30244 
        4.99514         22.1795         1.29203 
        5.01086         22.0195         1.28172 
        5.02654         21.8567         1.27156 
        5.04227         21.6988         1.26147 
          5.058         21.4878         1.25149 
        5.07371         21.2966         1.24163 
        5.08942         21.1506         1.23188 
        5.10513         21.0514         1.22224 
        5.12084         20.8855         1.21269 
        5.13656         20.6706         1.20324 
        5.15225         20.5532         1.19392 
        5.16796         20.3796         1.18467 
        5.18369         20.2188         1.17552 
         5.1994         20.0857         1.16648 
        5.21509         19.9104         1.15754 
        5.23079         19.7965         1.14868 
        5.24649         19.6336         1.13993 
        5.26217         19.5195         1.13127 
        5.27788         19.3504         1.12269 
        5.29359         19.1983          1.1142 
        5.30933         19.0396         1.10578 
        5.32504         18.9174         1.09746 
        5.34073         18.7848         1.08924 
        5.35646         18.6527         1.08109 
        5.37218         18.4764         1.07301 
        5.38789         18.3481         1.06504 
        5.40357         18.2187         1.05715 
        5.41929         18.0977         1.04932 
        5.43502         17.9452         1.04158 
         5.4507         17.8178         1.03393 
        5.46639         17.6783         1.02635 
        5.48212         17.5844         1.01884 
        5.49786         17.4646         1.01139 
        5.51353         17.3633         1.00405 
        5.52921         17.2103        0.996778 
        5.54495         17.0948        0.989556 
        5.56066         16.9421        0.982413 
        5.57637         16.8383        0.975342 
        5.59207         16.7139        0.968346 
        5.60778         16.6043        0.961416 
        5.62346         16.4799        0.954564 
        5.63916         16.3654        0.947772 
        5.65487         16.2438        0.941042 
         5.6706         16.1126         0.93437 
        5.68633         16.0175         0.92776 
        5.70203         15.9026        0.921228 
        5.71773         15.7904        0.914759 
        5.73344         15.6846         0.90835 
        5.74916         15.5731        0.901995 
        5.76486         15.4664         0.89571 
        5.78054         15.3595        0.889495 
        5.79626         15.2211        0.883321 
          5.812         15.1555        0.877199 
         5.8277         15.0243        0.871154 
        5.84339         14.9241        0.865165 
        5.85911         14.8192        0.859221 
        5.87484         14.7125        0.853334 
        5.89053         14.5835        0.847513 
        5.90623         14.5362        0.841745 
        5.92195          14.394         0.83602 
        5.93767         14.3026        0.830351 
        5.95336          14.222        0.824744 
        5.96905         14.1302        0.819191 
        5.98476         14.0492        0.813681 
        6.00048          13.931         0.80822 
        6.01617         13.8569        0.802817 
        6.03185         13.7218        0.797469 
        6.04756         13.6345        0.792157 
        6.06331         13.5703        0.786883 
        6.07903         13.4543        0.781667 
        6.09473         13.3656        0.776503 
        6.11044         13.2653        0.771382 
        6.12616         13.1813        0.766307 
        6.14186         13.0987        0.761283 
        6.15755         13.0064        0.756304 
        6.17326         12.9155        0.751366 
        6.18898          12.827         0.74647 
        6.20467         12.7236        0.741626 
        6.22036         12.6378        0.736825 
         6.2361         12.5573        0.732054 
         6.2518         12.4917        0.727333 
        6.26748         12.4114        0.722664 
        6.28319         12.3468        0.718023 
        6.29893         12.2515        0.713418 
        6.31463         12.1668        0.708862 
        6.33033         12.0906        0.704347 
        6.34604         11.9863        0.699868 
        6.36177         11.9245        0.695424 
        6.37747         11.8598        0.691027 
