# k  (h/Mpc)    Pcb(k)  (Mpc/h)^3    Pcb_linear(k) (Mpc/h)^3   ShotnoiseSubtracted = true
      0.0200456         23030.2         23443.5 
      0.0350414         17585.7         17042.6 
      0.0492313         12098.3         12382.8 
      0.0637834         9751.11         10293.7 
      0.0800726         7649.34         8169.88 
       0.096163          6163.6         5927.96 
       0.111083         5020.59          4728.3 
       0.126058          4148.3         4190.23 
       0.142273         3640.12         3550.05 
       0.158546         2987.06         2803.79 
        0.17375         2677.31         2362.19 
       0.188953         2544.79         2138.91 
       0.204907         2190.66          1892.5 
       0.220756         1983.73         1601.17 
        0.23588         1771.91         1392.88 
         0.2514         1608.13         1265.42 
       0.267535         1550.47         1144.99 
       0.283568         1385.49         1009.72 
       0.299022         1321.11         899.611 
       0.314451         1378.09         822.184 
       0.330372         1223.83         754.261 
       0.346141         1124.37         684.607 
       0.361624         1079.51         622.214 
       0.377134         1037.27         572.535 
       0.392932         988.006         529.756 
       0.408854         949.279         488.332 
       0.424564          929.96         450.103 
       0.440253         864.962         417.298 
       0.455999         827.549         388.772 
       0.471626          841.83         362.557 
        0.48727         795.512         338.035 
       0.502856         766.868         316.005 
       0.518488         742.593         296.349 
       0.534347          715.56         278.076 
       0.550082         682.842         261.227 
       0.565732         672.715         245.812 
       0.581496         658.924         231.695 
       0.597222         646.441         218.747 
       0.612804         630.901         206.842 
       0.628434         605.505         195.745 
       0.644267         589.553          185.37 
       0.660051          583.53         175.808 
       0.675724          572.18         166.979 
       0.691403         554.971         158.748 
       0.707174         539.456         151.026 
       0.722871         534.709         143.849 
        0.73838         522.399         137.214 
       0.754018         510.732         130.948 
       0.769845         504.294         125.005 
        0.78569         493.677         119.426 
       0.801365         477.712         114.243 
       0.817031         473.786         109.373 
       0.832809         466.569         104.756 
       0.848511         459.204         100.429 
       0.864097          449.42         96.3762 
       0.879701         449.206         92.5446 
       0.895507         431.653         88.8771 
       0.911279         426.277         85.4169 
        0.92691         421.286         82.1704 
       0.942635         416.326         79.0755 
       0.958396         403.557         76.1342 
       0.974128          398.18         73.3485 
       0.989692         387.526         70.7302 
        1.00528          383.88         68.2365 
        1.02113         377.474         65.8243 
        1.03692         372.073         63.5382 
        1.05264         366.968         61.3716 
        1.06832         359.085         59.3098 
        1.08405         357.811         57.3377 
        1.09979         350.136         55.4544 
        1.11537          341.25         53.6747 
        1.13105         337.616         51.9628 
        1.14679         332.013         50.3192 
        1.16256         330.299         48.7438 
        1.17828         325.017         47.2413 
        1.19395         317.005         45.8074 
         1.2097         315.081         44.4259 
        1.22537         310.134         43.1083 
          1.241         303.529         41.8483 
        1.25666         300.731         40.6357 
        1.27241         296.905         39.4656 
        1.28819         289.755         38.3397 
        1.30392         289.939         37.2613 
        1.31957         281.985         36.2292 
        1.33529         278.426         35.2325 
        1.35108         277.138         34.2696 
        1.36674         269.747         33.3496 
         1.3824         267.158         32.4643 
        1.39811         264.133         31.6083 
        1.41389         258.265           30.78 
        1.42964         255.089         29.9829 
        1.44531         252.369         29.2179 
        1.46101         247.928         28.4781 
        1.47667         245.364         27.7662 
        1.49229         242.032         27.0806 
        1.50793         238.511         26.4174 
        1.52367         234.877         25.7722 
        1.53953         231.101         25.1443 
        1.55526         228.765         24.5424 
        1.57092         226.927         23.9627 
        1.58662         221.876         23.4005 
        1.60235         219.374         22.8552 
        1.61809         217.409          22.327 
        1.63369         213.316         21.8203 
        1.64941          210.36         21.3257 
        1.66519         207.806         20.8447 
        1.68085         204.168         20.3819 
        1.69652         202.292         19.9332 
        1.71228         199.256         19.4954 
        1.72806         197.125         19.0704 
        1.74368         194.811         18.6624 
        1.75933         193.474         18.2655 
        1.77505         190.496         17.8784 
        1.79081         187.012         17.5018 
         1.8065         185.983         17.1377 
        1.82218         181.375         16.7843 
        1.83797         180.206         16.4384 
        1.85367         177.631         16.1042 
        1.86928         175.042         15.7813 
        1.88497         173.476         15.4656 
        1.90073         171.879         15.1573 
        1.91647         168.662         14.8577 
        1.93218         166.203         14.5669 
        1.94787         164.211         14.2843 
        1.96363         163.507         14.0081 
        1.97935         161.584         13.7397 
        1.99499         159.039         13.4799 
        2.01064         155.746         13.2265 
         2.0264         155.424          12.978 
        2.04216          152.68          12.736 
        2.05781         150.189         12.5017 
        2.07353         149.463         12.2725 
        2.08928         147.587         12.0486 
        2.10499         146.001         11.8308 
        2.12065         144.371         11.6191 
        2.13633         142.265         11.4124 
        2.15211         140.092         11.2093 
        2.16785         138.786         11.0118 
        2.18349         137.291         10.8203 
        2.19916         135.327          10.633 
        2.21489         133.641         10.4495 
        2.23063         132.136         10.2701 
         2.2463         130.288         10.0958 
        2.26194         129.321         9.92604 
        2.27765         127.176         9.75926 
        2.29341         126.221         9.59589 
        2.30914         124.812          9.4366 
        2.32486         122.753         9.28102 
        2.34061         121.266         9.12869 
        2.35635         120.453         8.97991 
        2.37203         118.465         8.83497 
        2.38768         117.675         8.69353 
        2.40339         115.455         8.55468 
        2.41914         114.441         8.41854 
        2.43483         113.548         8.28585 
         2.4505         112.153         8.15624 
        2.46622         110.397         8.02896 
        2.48195         109.466         7.90438 
        2.49759         107.799         7.78312 
        2.51328         106.816         7.66409 
        2.52906         105.845          7.5468 
        2.54479         104.415          7.4324 
        2.56049         103.041         7.32059 
        2.57618         102.021         7.21118 
        2.59189         101.326         7.10385 
        2.60758           99.66         6.99887 
        2.62325         99.0971         6.89613 
        2.63898         97.8714         6.79511 
        2.65468         96.9212         6.69632 
        2.67044         95.8416         6.59907 
        2.68618         94.3769         6.50398 
        2.70184         93.3888         6.41115 
        2.71755         92.7858         6.31989 
        2.73329         91.1781         6.23027 
        2.74897         90.3572         6.14269 
        2.76462         89.9899         6.05698 
        2.78034         88.4262         5.97255 
        2.79607         87.2917         5.88964 
        2.81179         86.6381         5.80841 
        2.82749         85.9012         5.72879 
        2.84321          84.534         5.65058 
        2.85893          83.314         5.57386 
        2.87462         82.9139         5.49869 
        2.89033         81.8752         5.42484 
        2.90605         81.0489         5.35228 
        2.92176         80.3969         5.28108 
        2.93747         79.4712         5.21122 
        2.95318         78.2375         5.14261 
        2.96891         77.7945          5.0752 
        2.98456         76.6804          5.0093 
        3.00023          76.002         4.94447 
        3.01596         75.3708         4.88059 
        3.03164         74.4657         4.81801 
        3.04738            74.1         4.75636 
         3.0631         72.8427          4.6958 
        3.07883         72.3065         4.63629 
        3.09456         71.3432         4.57783 
        3.11026         70.9312         4.52046 
        3.12596         69.9961         4.46409 
        3.14163         69.3511          4.4088 
        3.15734         68.3454         4.35432 
        3.17308         67.9484         4.30063 
        3.18879         67.2514           4.248 
        3.20447         66.6748         4.19632 
         3.2202         65.6321         4.14534 
         3.2359         65.0511          4.0953 
        3.25157          64.673          4.0462 
        3.26729         63.8722         3.99776 
        3.28304         63.0117         3.95001 
        3.29877         62.6341         3.90311 
        3.31446          61.759         3.85708 
        3.33014         61.3386         3.81182 
        3.34585         60.7428         3.76723 
        3.36158         60.3026         3.72327 
        3.37727         59.6894         3.68016 
        3.39294         59.0087         3.63777 
        3.40867         58.5304          3.5959 
        3.42439         57.8879         3.55471 
        3.44008         57.2823         3.51424 
        3.45578         56.7423         3.47437 
        3.47153         56.2393         3.43503 
        3.48724          55.747         3.39637 
        3.50292         55.1563          3.3584 
        3.51859         54.6953         3.32102 
        3.53431         54.0322          3.2841 
        3.55007         53.4287         3.24765 
        3.56577         52.9362          3.2119 
        3.58146         52.4047         3.17669 
        3.59719         52.0111         3.14194 
        3.61292         51.3388         3.10771 
        3.62859         51.0011         3.07413 
        3.64429         50.5921         3.04098 
        3.66003         50.1836         3.00821 
        3.67578         49.5777         2.97594 
        3.69146         49.1799         2.94426 
        3.70712         48.8188         2.91311 
        3.72284         48.2945         2.88228 
        3.73853          47.848         2.85196 
        3.75422         47.3668         2.82206 
        3.76993         46.9857         2.79257 
        3.78564         46.5502          2.7635 
        3.80137         46.1754         2.73481 
        3.81707         45.6435         2.70658 
        3.83279         45.3059         2.67873 
        3.84853         44.8294         2.65122 
        3.86424         44.4164         2.62415 
        3.87992         43.9785          2.5975 
        3.89561         43.6821         2.57122 
        3.91134         43.2541         2.54525 
        3.92704         42.8603         2.51967 
        3.94273         42.5374         2.49447 
        3.95845         42.0389         2.46956 
        3.97418         41.7364         2.44499 
        3.98988         41.3712         2.42079 
        4.00554         40.8941         2.39698 
        4.02125         40.6882         2.37342 
        4.03698          40.205         2.35014 
        4.05268         40.0087         2.32722 
        4.06839         39.6166          2.3046 
         4.0841         39.3265         2.28228 
        4.09983          38.879         2.26023 
        4.11555         38.6219         2.23847 
        4.13124         38.1274         2.21707 
        4.14693         37.9039         2.19592 
        4.16266         37.5942           2.175 
        4.17839         37.1877         2.15437 
        4.19408         36.9137         2.13405 
        4.20977         36.6185         2.11398 
        4.22551         36.2727         2.09412 
        4.24123         36.0185         2.07454 
        4.25691         35.6658         2.05526 
        4.27259         35.3664         2.03622 
        4.28831         35.1114         2.01739 
        4.30404         34.8247         1.99877 
        4.31974         34.5181         1.98043 
        4.33543         34.1954         1.96233 
        4.35116         33.8954         1.94441 
        4.36688         33.5967         1.92673 
        4.38255         33.4041         1.90932 
        4.39825         33.1086          1.8921 
        4.41398         32.8054         1.87505 
         4.4297          32.508         1.85824 
        4.44541         32.3528         1.84163 
        4.46111         31.9264         1.82523 
        4.47683         31.7954         1.80903 
        4.49251         31.5358         1.79305 
        4.50819         31.2356         1.77727 
         4.5239         30.9105         1.76166 
        4.53962         30.7171         1.74621 
        4.55535         30.4615         1.73095 
        4.57106         30.1301         1.71589 
        4.58678         29.9691           1.701 
         4.6025          29.765         1.68629 
        4.61821         29.5178         1.67175 
        4.63391         29.2591          1.6574 
         4.6496         28.9779         1.64323 
        4.66532         28.7811          1.6292 
        4.68103         28.5516         1.61534 
        4.69673         28.3488         1.60166 
        4.71241          28.123         1.58814 
        4.72811          27.903         1.57476 
        4.74384         27.7482         1.56152 
        4.75955         27.5373         1.54845 
        4.77525          27.208         1.53554 
        4.79096         26.9896         1.52276 
        4.80669         26.8242         1.51012 
         4.8224         26.6535         1.49763 
        4.83809          26.353          1.4853 
        4.85379         26.1974          1.4731 
         4.8695         25.9934         1.46103 
        4.88521         25.7553          1.4491 
        4.90093         25.6271          1.4373 
        4.91663         25.4105         1.42564 
        4.93234         25.1314          1.4141 
        4.94807         24.9408         1.40267 
        4.96377          24.791          1.3914 
        4.97943          24.637         1.38027 
        4.99514         24.4823         1.36924 
        5.01086         24.2451         1.35832 
        5.02654         24.0385         1.34754 
        5.04227          23.878         1.33685 
          5.058          23.642         1.32627 
        5.07371         23.4689         1.31583 
        5.08942         23.2576          1.3055 
        5.10513         23.1894         1.29528 
        5.12084         22.9855         1.28516 
        5.13656         22.8197         1.27515 
        5.15225         22.6959         1.26526 
        5.16796         22.4728         1.25547 
        5.18369         22.2878         1.24577 
         5.1994         22.0704         1.23618 
        5.21509         21.9526         1.22671 
        5.23079         21.7779         1.21733 
        5.24649         21.6301         1.20805 
        5.26217           21.46         1.19887 
        5.27788         21.3274         1.18978 
        5.29359         21.1363         1.18078 
        5.30933         20.9607         1.17186 
        5.32504         20.8264         1.16305 
        5.34073         20.6418         1.15433 
        5.35646         20.5073         1.14569 
        5.37218         20.3709         1.13714 
        5.38789         20.2228         1.12868 
        5.40357         20.0565         1.12032 
        5.41929         19.9485         1.11203 
        5.43502         19.7972         1.10382 
         5.4507         19.5996         1.09572 
        5.46639         19.4634         1.08769 
        5.48212         19.3324         1.07972 
        5.49786         19.1989         1.07183 
        5.51353         19.0779         1.06405 
        5.52921         18.9252         1.05634 
        5.54495         18.7867         1.04869 
        5.56066         18.6534         1.04112 
        5.57637          18.507         1.03363 
        5.59207          18.364         1.02621 
        5.60778         18.3241         1.01887 
        5.62346         18.1348         1.01161 
        5.63916         18.0078         1.00441 
        5.65487         17.8423        0.997278 
         5.6706         17.7602        0.990207 
        5.68633         17.6426        0.983202 
        5.70203         17.5074        0.976279 
        5.71773         17.3987        0.969424 
        5.73344         17.2813        0.962632 
        5.74916         17.1421        0.955897 
        5.76486         17.0166        0.949237 
        5.78054         16.8781         0.94265 
        5.79626         16.7875        0.936107 
          5.812         16.6846         0.92962 
         5.8277          16.522        0.923213 
        5.84339         16.4176        0.916866 
        5.85911          16.331        0.910567 
        5.87484          16.178        0.904328 
        5.89053         16.0554         0.89816 
        5.90623          15.977        0.892046 
        5.92195         15.8459        0.885979 
        5.93767         15.7602        0.879972 
        5.95336         15.6456         0.87403 
        5.96905         15.5312        0.868145 
        5.98476         15.4423        0.862306 
        6.00048         15.3235        0.856518 
        6.01617         15.2509        0.850792 
        6.03185         15.1237        0.845125 
        6.04756         15.0258        0.839496 
        6.06331         14.9311        0.833906 
        6.07903         14.7954        0.828378 
        6.09473         14.7072        0.822906 
        6.11044         14.6151        0.817479 
        6.12616         14.5343        0.812101 
        6.14186         14.4427        0.806776 
        6.15755         14.3122          0.8015 
        6.17326         14.2171        0.796267 
        6.18898         14.1201        0.791078 
        6.20467         14.0086        0.785945 
        6.22036         13.9261        0.780857 
         6.2361           13.82        0.775801 
         6.2518         13.7408        0.770798 
        6.26748         13.6781        0.765849 
        6.28319         13.5658        0.760931 
        6.29893         13.4853        0.756051 
        6.31463         13.4078        0.751223 
        6.33033         13.3208        0.746438 
        6.34604         13.2098        0.741692 
        6.36177         13.1304        0.736982 
        6.37747         13.0466        0.732322 
