# k  (h/Mpc)    Pcb(k)  (Mpc/h)^3    Pcb_linear(k) (Mpc/h)^3   ShotnoiseSubtracted = true
      0.0200456         14053.9         14341.8 
      0.0350414           10064           10426 
      0.0492313         7482.14         7575.33 
      0.0637834         6422.62         6297.31 
      0.0800726            5078         4998.02 
       0.096163         3538.15          3626.5 
       0.111083         2821.67         2892.59 
       0.126058         2602.02         2563.42 
       0.142273         2249.96         2171.78 
       0.158546         1908.45         1715.25 
        0.17375          1527.5          1445.1 
       0.188953         1481.84          1308.5 
       0.204907          1392.8         1157.76 
       0.220756         1191.92         979.534 
        0.23588         1053.78          852.11 
         0.2514         917.728         774.133 
       0.267535         903.347         700.458 
       0.283568         819.225          617.71 
       0.299022         767.826         550.347 
       0.314451         727.059          502.98 
       0.330372         669.853         461.428 
       0.346141         615.849         418.816 
       0.361624         592.308         380.646 
       0.377134         549.942         350.255 
       0.392932         526.911         324.084 
       0.408854         507.786         298.743 
       0.424564          478.62         275.355 
       0.440253         467.418         255.286 
       0.455999         440.861         237.836 
       0.471626         415.811         221.798 
        0.48727         402.271         206.797 
       0.502856         390.192          193.32 
       0.518488         386.481         181.295 
       0.534347         361.641         170.116 
       0.550082         344.027         159.808 
       0.565732         341.935         150.378 
       0.581496         322.498         141.742 
       0.597222         317.027         133.821 
       0.612804         307.252         126.538 
       0.628434         295.513         119.749 
       0.644267         286.994         113.402 
       0.660051         281.576         107.552 
       0.675724         276.959         102.151 
       0.691403         268.826          97.116 
       0.707174         258.876          92.392 
       0.722871         255.888          88.001 
        0.73838         251.516         83.9423 
       0.754018         244.933          80.109 
       0.769845         236.603         76.4734 
        0.78569         236.284         73.0604 
       0.801365         228.082         69.8896 
       0.817031         221.255         66.9099 
       0.832809         219.115         64.0859 
       0.848511         213.286         61.4383 
       0.864097         210.588         58.9592 
       0.879701         206.653         56.6152 
       0.895507         201.489         54.3716 
       0.911279          195.51         52.2548 
        0.92691         195.581         50.2687 
       0.942635         190.621         48.3753 
       0.958396         189.409         46.5759 
       0.974128         185.018         44.8717 
       0.989692         180.704           43.27 
        1.00528         178.404         41.7444 
        1.02113         177.151         40.2688 
        1.03692         171.942         38.8702 
        1.05264         168.669         37.5448 
        1.06832         165.782         36.2835 
        1.08405         163.264          35.077 
        1.09979         162.209         33.9248 
        1.11537         157.561         32.8361 
        1.13105         155.753         31.7888 
        1.14679         155.445         30.7833 
        1.16256         152.755         29.8196 
        1.17828         149.563         28.9004 
        1.19395         147.395         28.0232 
         1.2097         146.242          27.178 
        1.22537         143.705          26.372 
          1.241         141.606         25.6011 
        1.25666         139.334         24.8593 
        1.27241         136.966         24.1435 
        1.28819         135.487         23.4548 
        1.30392         133.535          22.795 
        1.31957          132.47         22.1636 
        1.33529          129.02         21.5539 
        1.35108         128.206         20.9648 
        1.36674         126.991          20.402 
         1.3824         124.454         19.8604 
        1.39811         123.886         19.3367 
        1.41389         121.689           18.83 
        1.42964         119.157         18.3423 
        1.44531         117.058         17.8744 
        1.46101         116.007         17.4218 
        1.47667         114.712         16.9863 
        1.49229         113.138         16.5669 
        1.50793         112.179         16.1612 
        1.52367         110.772         15.7665 
        1.53953          108.64         15.3823 
        1.55526         107.708         15.0141 
        1.57092         106.487         14.6595 
        1.58662         104.539         14.3155 
        1.60235         104.115         13.9819 
        1.61809         102.044         13.6588 
        1.63369         101.299         13.3488 
        1.64941         100.432         13.0462 
        1.66519         98.2463          12.752 
        1.68085         97.7281         12.4689 
        1.69652          95.292         12.1943 
        1.71228         95.5039         11.9265 
        1.72806         94.0936         11.6665 
        1.74368         92.8878         11.4169 
        1.75933         91.5299         11.1741 
        1.77505         90.6063         10.9373 
        1.79081         89.2151         10.7069 
         1.8065         88.2597         10.4842 
        1.82218         86.6325          10.268 
        1.83797         85.7163         10.0564 
        1.85367         84.8976         9.85193 
        1.86928         84.4593         9.65441 
        1.88497         82.7088         9.46124 
        1.90073         82.1582         9.27265 
        1.91647         81.1221         9.08938 
        1.93218         79.9769         8.91146 
        1.94787         79.3055         8.73856 
        1.96363          77.949         8.56958 
        1.97935         77.3307         8.40542 
        1.99499         76.3216          8.2465 
        2.01064         75.6097         8.09146 
         2.0264         74.1608         7.93943 
        2.04216         73.4137          7.7914 
        2.05781         72.6202         7.64807 
        2.07353         71.3697         7.50785 
        2.08928         70.4511         7.37084 
        2.10499          69.969         7.23762 
        2.12065         69.5133          7.1081 
        2.13633         68.5967         6.98163 
        2.15211         67.8071         6.85744 
        2.16785         67.0743         6.73661 
        2.18349         66.3493         6.61946 
        2.19916         65.4564         6.50485 
        2.21489         64.8053         6.39257 
        2.23063         64.3324         6.28287 
         2.2463         63.3545         6.17625 
        2.26194         62.7496         6.07236 
        2.27765         62.1725         5.97034 
        2.29341          61.388         5.87039 
        2.30914         60.4462         5.77294 
        2.32486         59.6521         5.67776 
        2.34061         59.1448         5.58457 
        2.35635         58.6257         5.49356 
        2.37203         57.6905         5.40489 
        2.38768         57.1409         5.31837 
        2.40339         56.4256         5.23342 
        2.41914         56.0759         5.15014 
        2.43483         55.7274         5.06896 
         2.4505         55.0566         4.98967 
        2.46622         54.4061          4.9118 
        2.48195         53.7582         4.83559 
        2.49759         52.8938         4.76141 
        2.51328         52.4668         4.68859 
        2.52906         52.0562         4.61684 
        2.54479         51.4227         4.54685 
        2.56049         50.7658         4.47845 
        2.57618         50.3771         4.41152 
        2.59189         49.8124         4.34586 
        2.60758         49.4582         4.28163 
        2.62325         48.7794         4.21879 
        2.63898         48.3531         4.15698 
        2.65468         47.8024         4.09655 
        2.67044         47.0295         4.03706 
        2.68618         46.8024         3.97888 
        2.70184         46.1119         3.92209 
        2.71755         45.9864         3.86626 
        2.73329         45.1607         3.81144 
        2.74897         44.7903         3.75786 
        2.76462         44.2951         3.70542 
        2.78034         44.0163         3.65377 
        2.79607         43.4062         3.60305 
        2.81179         43.0135         3.55336 
        2.82749         42.3469         3.50465 
        2.84321         42.0893         3.45681 
        2.85893         41.6334         3.40987 
        2.87462         41.0974         3.36388 
        2.89033         40.7444          3.3187 
        2.90605         40.3697         3.27432 
        2.92176         39.9797         3.23076 
        2.93747         39.5735         3.18802 
        2.95318         39.1566         3.14605 
        2.96891         38.5514         3.10481 
        2.98456         38.3975         3.06449 
        3.00023         37.9618         3.02483 
        3.01596         37.5729         2.98575 
        3.03164         37.1397         2.94747 
        3.04738         36.9349         2.90975 
         3.0631         36.3754         2.87271 
        3.07883           36.08          2.8363 
        3.09456         35.7342         2.80054 
        3.11026         35.3362         2.76544 
        3.12596         35.0476         2.73095 
        3.14163         34.6496         2.69713 
        3.15734         34.2104         2.66381 
        3.17308         34.0276         2.63096 
        3.18879          33.752         2.59876 
        3.20447         33.2819         2.56714 
         3.2202         32.9068         2.53596 
         3.2359          32.697         2.50534 
        3.25157         32.3675         2.47531 
        3.26729         32.1088         2.44567 
        3.28304         31.7326         2.41647 
        3.29877         31.4004         2.38777 
        3.31446         31.1752         2.35961 
        3.33014         30.8342         2.33192 
        3.34585         30.5943         2.30464 
        3.36158         30.2494         2.27775 
        3.37727         29.9303         2.25138 
        3.39294         29.6522         2.22545 
        3.40867         29.3811         2.19983 
        3.42439         29.1236         2.17463 
        3.44008         28.9144         2.14987 
        3.45578         28.4524         2.12548 
        3.47153         28.2468         2.10142 
        3.48724         27.9785         2.07777 
        3.50292         27.7016         2.05454 
        3.51859         27.4671         2.03167 
        3.53431         27.3047         2.00909 
        3.55007         26.9841         1.98679 
        3.56577         26.7204         1.96491 
        3.58146         26.5417         1.94338 
        3.59719         26.2088         1.92212 
        3.61292         25.9926         1.90118 
        3.62859         25.7655         1.88063 
        3.64429         25.4813         1.86035 
        3.66003         25.2486         1.84031 
        3.67578         25.1134         1.82056 
        3.69146         24.8307         1.80119 
        3.70712         24.5747         1.78212 
        3.72284         24.4358         1.76327 
        3.73853          24.203         1.74472 
        3.75422         23.9356         1.72643 
        3.76993         23.7635         1.70838 
        3.78564         23.4431          1.6906 
        3.80137         23.3079         1.67305 
        3.81707         23.1213         1.65578 
        3.83279         22.8012         1.63874 
        3.84853         22.5714         1.62191 
        3.86424         22.4173         1.60536 
        3.87992         22.2415         1.58905 
        3.89561         22.0541         1.57298 
        3.91134         21.8813         1.55709 
        3.92704           21.67         1.54144 
        3.94273         21.4413         1.52602 
        3.95845          21.276         1.51078 
        3.97418         21.1214         1.49575 
        3.98988         20.9068         1.48094 
        4.00554         20.7647         1.46638 
        4.02125         20.5703         1.45196 
        4.03698         20.2946         1.43772 
        4.05268         20.1656          1.4237 
        4.06839         19.9668         1.40986 
         4.0841          19.885         1.39621 
        4.09983         19.6695         1.38272 
        4.11555         19.5018         1.36941 
        4.13124         19.2687         1.35631 
        4.14693          19.083         1.34338 
        4.16266         18.9495         1.33058 
        4.17839         18.7793         1.31796 
        4.19408         18.5935         1.30553 
        4.20977         18.5113         1.29325 
        4.22551         18.3399          1.2811 
        4.24123         18.1552         1.26912 
        4.25691         18.0544         1.25733 
        4.27259         17.8553         1.24568 
        4.28831         17.7032         1.23416 
        4.30404         17.5517         1.22277 
        4.31974         17.3743         1.21155 
        4.33543         17.2655         1.20048 
        4.35116         17.1308         1.18952 
        4.36688         16.9469          1.1787 
        4.38255         16.8339         1.16805 
        4.39825         16.7275         1.15751 
        4.41398         16.5489         1.14708 
         4.4297         16.4193          1.1368 
        4.44541         16.3118         1.12664 
        4.46111         16.1564         1.11661 
        4.47683         16.0077         1.10669 
        4.49251         15.9316         1.09692 
        4.50819         15.7473         1.08727 
         4.5239         15.6578         1.07771 
        4.53962         15.4928         1.06827 
        4.55535         15.3945         1.05893 
        4.57106         15.2544         1.04971 
        4.58678         15.1776         1.04061 
         4.6025         15.0037          1.0316 
        4.61821         14.8851         1.02271 
        4.63391          14.792         1.01393 
         4.6496          14.631         1.00526 
        4.66532         14.4956        0.996682 
        4.68103            14.4        0.988203 
        4.69673         14.3453        0.979831 
        4.71241         14.2005        0.971565 
        4.72811         14.0725         0.96338 
        4.74384         13.9666        0.955279 
        4.75955          13.854        0.947283 
        4.77525         13.7657        0.939383 
        4.79096          13.659        0.931564 
        4.80669         13.5456         0.92383 
         4.8224          13.418        0.916192 
        4.83809         13.3335        0.908649 
        4.85379         13.2097        0.901186 
         4.8695         13.1528          0.8938 
        4.88521         13.0083        0.886501 
        4.90093         12.9064        0.879282 
        4.91663         12.8508         0.87215 
        4.93234         12.6944        0.865089 
        4.94807         12.6302        0.858101 
        4.96377         12.5182        0.851204 
        4.97943         12.4372        0.844397 
        4.99514         12.3183        0.837647 
        5.01086         12.2502        0.830966 
        5.02654         12.1367        0.824374 
        5.04227         12.0648        0.817835 
          5.058         11.9837        0.811363 
        5.07371         11.8883        0.804974 
        5.08942         11.7777        0.798653 
        5.10513         11.6907        0.792399 
        5.12084         11.6174        0.786209 
        5.13656         11.5255        0.780086 
        5.15225         11.4325        0.774038 
        5.16796         11.3712        0.768046 
        5.18369         11.2561        0.762111 
         5.1994         11.1978        0.756249 
        5.21509         11.1007        0.750454 
        5.23079         11.0366        0.744714 
        5.24649         10.9689        0.739037 
        5.26217          10.841        0.733424 
        5.27788         10.7718        0.727861 
        5.29359         10.7134        0.722355 
        5.30933         10.6379        0.716898 
        5.32504         10.5606        0.711506 
        5.34073         10.4633        0.706175 
        5.35646         10.4013        0.700889 
        5.37218         10.3236        0.695655 
        5.38789         10.2432        0.690483 
        5.40357         10.1731         0.68537 
        5.41929         10.0832        0.680297 
        5.43502         10.0522        0.675275 
         5.4507         9.94902        0.670316 
        5.46639         9.87952        0.665405 
        5.48212         9.81455        0.660533 
        5.49786         9.74156        0.655703 
        5.51353         9.66375        0.650946 
        5.52921         9.59963         0.64623 
        5.54495         9.52238        0.641548 
        5.56066         9.45006        0.636917 
        5.57637         9.38755        0.632333 
        5.59207         9.33083        0.627797 
        5.60778         9.25164        0.623305 
        5.62346         9.18822        0.618862 
        5.63916         9.13241        0.614459 
        5.65487         9.06386        0.610096 
         5.6706         9.01262         0.60577 
        5.68633         8.93428        0.601485 
        5.70203         8.89215         0.59725 
        5.71773         8.81607        0.593056 
        5.73344         8.75894        0.588901 
        5.74916         8.67571        0.584781 
        5.76486         8.66255        0.580706 
        5.78054         8.57118        0.576677 
        5.79626         8.50184        0.572674 
          5.812         8.46414        0.568705 
         5.8277         8.39902        0.564786 
        5.84339         8.34745        0.560903 
        5.85911         8.28168        0.557049 
        5.87484         8.23189        0.553233 
        5.89053         8.17271        0.549459 
        5.90623         8.11085        0.545719 
        5.92195         8.07103        0.542008 
        5.93767         8.01879        0.538332 
        5.95336         7.95617        0.534697 
        5.96905         7.88517        0.531097 
        5.98476         7.85839        0.527525 
        6.00048         7.80397        0.523985 
        6.01617         7.75167        0.520481 
        6.03185         7.69093        0.517014 
        6.04756           7.637        0.513571 
        6.06331         7.60109        0.510151 
        6.07903         7.55857         0.50677 
        6.09473         7.48025        0.503422 
        6.11044         7.44725        0.500102 
        6.12616          7.3981        0.496812 
        6.14186         7.34951        0.493554 
        6.15755         7.28941        0.490327 
        6.17326         7.24813        0.487125 
        6.18898         7.20922        0.483951 
        6.20467         7.15521         0.48081 
        6.22036         7.10723        0.477698 
         6.2361         7.07031        0.474605 
         6.2518          7.0119        0.471544 
        6.26748         6.96035        0.468517 
        6.28319         6.92103        0.465508 
        6.29893         6.88976        0.462523 
        6.31463         6.84618        0.459569 
        6.33033         6.79629        0.456642 
        6.34604         6.75274        0.453738 
        6.36177         6.70099        0.450857 
        6.37747         6.67711        0.448006 
