# k  (h/Mpc)    Pcb(k)  (Mpc/h)^3    Pcb_linear(k) (Mpc/h)^3   ShotnoiseSubtracted = true
      0.0200456         14121.5         14341.8 
      0.0350414         10717.4           10426 
      0.0492313          7480.8         7575.33 
      0.0637834         6045.65         6297.31 
      0.0800726            4758         4998.02 
       0.096163         3756.83          3626.5 
       0.111083         3055.67         2892.59 
       0.126058         2539.52         2563.42 
       0.142273         2199.41         2171.78 
       0.158546         1806.77         1715.25 
        0.17375         1588.75          1445.1 
       0.188953         1480.79          1308.5 
       0.204907         1267.37         1157.76 
       0.220756          1138.4         979.534 
        0.23588          1013.4          852.11 
         0.2514         908.738         774.133 
       0.267535         881.908         700.458 
       0.283568         773.764          617.71 
       0.299022          738.82         550.347 
       0.314451         754.065          502.98 
       0.330372         649.769         461.428 
       0.346141         600.994         418.816 
       0.361624          575.33         380.646 
       0.377134         542.548         350.255 
       0.392932         524.252         324.084 
       0.408854         499.333         298.743 
       0.424564         484.199         275.355 
       0.440253         440.284         255.286 
       0.455999          421.87         237.836 
       0.471626         426.478         221.798 
        0.48727         403.548         206.797 
       0.502856         373.403          193.32 
       0.518488         373.455         181.295 
       0.534347         348.457         170.116 
       0.550082         336.478         159.808 
       0.565732         334.638         150.378 
       0.581496         321.487         141.742 
       0.597222         312.336         133.821 
       0.612804         304.479         126.538 
       0.628434         292.773         119.749 
       0.644267         280.772         113.402 
       0.660051         276.677         107.552 
       0.675724         273.017         102.151 
       0.691403         265.998          97.116 
       0.707174         256.259          92.392 
       0.722871         252.452          88.001 
        0.73838         249.938         83.9423 
       0.754018         238.549          80.109 
       0.769845          238.07         76.4734 
        0.78569         232.227         73.0604 
       0.801365         225.923         69.8896 
       0.817031         221.646         66.9099 
       0.832809         218.021         64.0859 
       0.848511         212.495         61.4383 
       0.864097         207.623         58.9592 
       0.879701         206.649         56.6152 
       0.895507         201.712         54.3716 
       0.911279         195.884         52.2548 
        0.92691          193.53         50.2687 
       0.942635         191.797         48.3753 
       0.958396          187.38         46.5759 
       0.974128         184.035         44.8717 
       0.989692         178.391           43.27 
        1.00528         177.651         41.7444 
        1.02113         174.163         40.2688 
        1.03692         171.062         38.8702 
        1.05264         168.585         37.5448 
        1.06832         167.355         36.2835 
        1.08405         163.104          35.077 
        1.09979         162.153         33.9248 
        1.11537         158.832         32.8361 
        1.13105         156.632         31.7888 
        1.14679         154.611         30.7833 
        1.16256         152.131         29.8196 
        1.17828         150.429         28.9004 
        1.19395         146.698         28.0232 
         1.2097         145.893          27.178 
        1.22537         144.168          26.372 
          1.241         141.425         25.6011 
        1.25666         138.923         24.8593 
        1.27241         135.794         24.1435 
        1.28819          134.97         23.4548 
        1.30392         132.847          22.795 
        1.31957         130.285         22.1636 
        1.33529         128.989         21.5539 
        1.35108         127.398         20.9648 
        1.36674         125.157          20.402 
         1.3824         124.785         19.8604 
        1.39811         121.614         19.3367 
        1.41389         120.573           18.83 
        1.42964         118.265         18.3423 
        1.44531         117.276         17.8744 
        1.46101         115.007         17.4218 
        1.47667         114.854         16.9863 
        1.49229         113.343         16.5669 
        1.50793         111.145         16.1612 
        1.52367         109.807         15.7665 
        1.53953         108.442         15.3823 
        1.55526          107.34         15.0141 
        1.57092         106.272         14.6595 
        1.58662         104.667         14.3155 
        1.60235         102.942         13.9819 
        1.61809         102.367         13.6588 
        1.63369         100.396         13.3488 
        1.64941         100.273         13.0462 
        1.66519         98.3873          12.752 
        1.68085          96.929         12.4689 
        1.69652          95.619         12.1943 
        1.71228         94.7378         11.9265 
        1.72806          93.728         11.6665 
        1.74368         92.0662         11.4169 
        1.75933         91.4695         11.1741 
        1.77505         90.3001         10.9373 
        1.79081         88.9117         10.7069 
         1.8065         88.0566         10.4842 
        1.82218         86.8425          10.268 
        1.83797         86.4575         10.0564 
        1.85367         84.5961         9.85193 
        1.86928          84.133         9.65441 
        1.88497         83.1939         9.46124 
        1.90073         82.3224         9.27265 
        1.91647         80.8329         9.08938 
        1.93218         79.9417         8.91146 
        1.94787         79.0055         8.73856 
        1.96363         78.1224         8.56958 
        1.97935         77.4875         8.40542 
        1.99499         76.5885          8.2465 
        2.01064         75.3422         8.09146 
         2.0264         74.4199         7.93943 
        2.04216         73.5032          7.7914 
        2.05781         72.8459         7.64807 
        2.07353         71.9537         7.50785 
        2.08928         71.0422         7.37084 
        2.10499         70.1729         7.23762 
        2.12065         69.7201          7.1081 
        2.13633         68.9913         6.98163 
        2.15211         67.8835         6.85744 
        2.16785         66.7684         6.73661 
        2.18349         66.2534         6.61946 
        2.19916         65.5028         6.50485 
        2.21489         64.6167         6.39257 
        2.23063         63.8913         6.28287 
         2.2463         63.3551         6.17625 
        2.26194         62.7373         6.07236 
        2.27765         61.8883         5.97034 
        2.29341         61.1692         5.87039 
        2.30914         60.4158         5.77294 
        2.32486         59.4989         5.67776 
        2.34061         59.1782         5.58457 
        2.35635         58.3552         5.49356 
        2.37203         57.7541         5.40489 
        2.38768         57.2042         5.31837 
        2.40339         56.5487         5.23342 
        2.41914         55.7828         5.15014 
        2.43483         55.3021         5.06896 
         2.4505         54.7797         4.98967 
        2.46622         54.1963          4.9118 
        2.48195         53.4932         4.83559 
        2.49759         52.9226         4.76141 
        2.51328         52.5204         4.68859 
        2.52906         51.7498         4.61684 
        2.54479         51.2529         4.54685 
        2.56049         50.4362         4.47845 
        2.57618         50.0427         4.41152 
        2.59189         49.6824         4.34586 
        2.60758         48.8452         4.28163 
        2.62325          48.463         4.21879 
        2.63898         48.0084         4.15698 
        2.65468          47.528         4.09655 
        2.67044         46.9808         4.03706 
        2.68618         46.6267         3.97888 
        2.70184         45.7922         3.92209 
        2.71755         45.4971         3.86626 
        2.73329         44.9911         3.81144 
        2.74897         44.7299         3.75786 
        2.76462         44.0942         3.70542 
        2.78034         43.6387         3.65377 
        2.79607         43.1142         3.60305 
        2.81179         42.7732         3.55336 
        2.82749         42.2759         3.50465 
        2.84321         41.9487         3.45681 
        2.85893         41.3535         3.40987 
        2.87462         40.7938         3.36388 
        2.89033         40.5571          3.3187 
        2.90605         40.0006         3.27432 
        2.92176         39.7643         3.23076 
        2.93747         39.4025         3.18802 
        2.95318         39.0468         3.14605 
        2.96891         38.4854         3.10481 
        2.98456         38.2526         3.06449 
        3.00023         37.8021         3.02483 
        3.01596         37.4527         2.98575 
        3.03164         37.0477         2.94747 
        3.04738         36.6083         2.90975 
         3.0631         36.4616         2.87271 
        3.07883         35.9926          2.8363 
        3.09456         35.4943         2.80054 
        3.11026         35.1377         2.76544 
        3.12596         34.8458         2.73095 
        3.14163         34.5041         2.69713 
        3.15734         34.2279         2.66381 
        3.17308         33.9116         2.63096 
        3.18879         33.4509         2.59876 
        3.20447         33.0998         2.56714 
         3.2202         32.8832         2.53596 
         3.2359         32.5997         2.50534 
        3.25157          32.302         2.47531 
        3.26729         31.9159         2.44567 
        3.28304         31.6627         2.41647 
        3.29877         31.1718         2.38777 
        3.31446         30.9862         2.35961 
        3.33014         30.6314         2.33192 
        3.34585         30.3747         2.30464 
        3.36158         30.0942         2.27775 
        3.37727         29.8257         2.25138 
        3.39294         29.5337         2.22545 
        3.40867         29.2548         2.19983 
        3.42439         29.0391         2.17463 
        3.44008          28.733         2.14987 
        3.45578         28.5042         2.12548 
        3.47153         28.1816         2.10142 
        3.48724         27.9282         2.07777 
        3.50292         27.7105         2.05454 
        3.51859         27.3394         2.03167 
        3.53431         27.1065         2.00909 
        3.55007          26.854         1.98679 
        3.56577         26.5499         1.96491 
        3.58146         26.3665         1.94338 
        3.59719         26.1594         1.92212 
        3.61292         25.9401         1.90118 
        3.62859         25.6946         1.88063 
        3.64429         25.3836         1.86035 
        3.66003         25.2614         1.84031 
        3.67578         24.9672         1.82056 
        3.69146         24.8397         1.80119 
        3.70712         24.5652         1.78212 
        3.72284         24.3981         1.76327 
        3.73853         24.1722         1.74472 
        3.75422         23.8346         1.72643 
        3.76993         23.6424         1.70838 
        3.78564         23.4529          1.6906 
        3.80137         23.1857         1.67305 
        3.81707           23.04         1.65578 
        3.83279         22.8546         1.63874 
        3.84853         22.6435         1.62191 
        3.86424         22.4096         1.60536 
        3.87992         22.2028         1.58905 
        3.89561          22.098         1.57298 
        3.91134         21.7928         1.55709 
        3.92704         21.6866         1.54144 
        3.94273         21.4126         1.52602 
        3.95845         21.3054         1.51078 
        3.97418         21.0458         1.49575 
        3.98988         20.8766         1.48094 
        4.00554         20.7552         1.46638 
        4.02125         20.5285         1.45196 
        4.03698          20.351         1.43772 
        4.05268         20.1825          1.4237 
        4.06839         20.0397         1.40986 
         4.0841          19.844         1.39621 
        4.09983         19.6012         1.38272 
        4.11555         19.4279         1.36941 
        4.13124         19.3685         1.35631 
        4.14693         19.1324         1.34338 
        4.16266         19.0356         1.33058 
        4.17839         18.8431         1.31796 
        4.19408          18.634         1.30553 
        4.20977         18.5419         1.29325 
        4.22551         18.3419          1.2811 
        4.24123         18.1984         1.26912 
        4.25691         18.0095         1.25733 
        4.27259         17.9031         1.24568 
        4.28831         17.7529         1.23416 
        4.30404         17.6084         1.22277 
        4.31974         17.5009         1.21155 
        4.33543         17.3387         1.20048 
        4.35116         17.1405         1.18952 
        4.36688         17.0334          1.1787 
        4.38255          16.867         1.16805 
        4.39825         16.7141         1.15751 
        4.41398         16.6244         1.14708 
         4.4297         16.4968          1.1368 
        4.44541         16.2909         1.12664 
        4.46111         16.1926         1.11661 
        4.47683         16.0422         1.10669 
        4.49251         15.9709         1.09692 
        4.50819         15.8098         1.08727 
         4.5239         15.6507         1.07771 
        4.53962         15.5557         1.06827 
        4.55535         15.3855         1.05893 
        4.57106         15.3279         1.04971 
        4.58678         15.1515         1.04061 
         4.6025         15.0364          1.0316 
        4.61821         14.9461         1.02271 
        4.63391         14.7922         1.01393 
         4.6496         14.6559         1.00526 
        4.66532         14.5476        0.996682 
        4.68103         14.4572        0.988203 
        4.69673         14.3393        0.979831 
        4.71241         14.2181        0.971565 
        4.72811         14.0846         0.96338 
        4.74384         13.9956        0.955279 
        4.75955         13.8855        0.947283 
        4.77525         13.7564        0.939383 
        4.79096         13.6349        0.931564 
        4.80669         13.5585         0.92383 
         4.8224         13.4305        0.916192 
        4.83809         13.3602        0.908649 
        4.85379         13.2383        0.901186 
         4.8695          13.131          0.8938 
        4.88521         13.0329        0.886501 
        4.90093         12.9597        0.879282 
        4.91663         12.8693         0.87215 
        4.93234         12.7781        0.865089 
        4.94807         12.6735        0.858101 
        4.96377         12.5707        0.851204 
        4.97943         12.4785        0.844397 
        4.99514         12.3653        0.837647 
        5.01086         12.2636        0.830966 
        5.02654         12.1768        0.824374 
        5.04227         12.0506        0.817835 
          5.058         11.9868        0.811363 
        5.07371         11.8941        0.804974 
        5.08942         11.8135        0.798653 
        5.10513         11.7229        0.792399 
        5.12084          11.623        0.786209 
        5.13656         11.5651        0.780086 
        5.15225         11.4753        0.774038 
        5.16796         11.3873        0.768046 
        5.18369         11.2788        0.762111 
         5.1994         11.2077        0.756249 
        5.21509          11.148        0.750454 
        5.23079         11.0242        0.744714 
        5.24649         10.9525        0.739037 
        5.26217         10.8632        0.733424 
        5.27788          10.802        0.727861 
        5.29359         10.7144        0.722355 
        5.30933          10.645        0.716898 
        5.32504         10.5657        0.711506 
        5.34073         10.5019        0.706175 
        5.35646         10.4352        0.700889 
        5.37218         10.3224        0.695655 
        5.38789         10.2544        0.690483 
        5.40357         10.1971         0.68537 
        5.41929         10.1395        0.680297 
        5.43502         10.0497        0.675275 
         5.4507         9.95435        0.670316 
        5.46639         9.91188        0.665405 
        5.48212         9.81878        0.660533 
        5.49786          9.7515        0.655703 
        5.51353         9.68874        0.650946 
        5.52921         9.61888         0.64623 
        5.54495         9.55119        0.641548 
        5.56066         9.47992        0.636917 
        5.57637         9.39303        0.632333 
        5.59207         9.35816        0.627797 
        5.60778         9.26942        0.623305 
        5.62346          9.2124        0.618862 
        5.63916         9.15474        0.614459 
        5.65487         9.09234        0.610096 
         5.6706         9.00816         0.60577 
        5.68633         8.95478        0.601485 
        5.70203         8.88585         0.59725 
        5.71773         8.83256        0.593056 
        5.73344         8.79633        0.588901 
        5.74916         8.71431        0.584781 
        5.76486          8.6613        0.580706 
        5.78054         8.59115        0.576677 
        5.79626         8.51504        0.572674 
          5.812         8.48159        0.568705 
         5.8277         8.43866        0.564786 
        5.84339          8.3599        0.560903 
        5.85911         8.30564        0.557049 
        5.87484         8.25138        0.553233 
        5.89053         8.18422        0.549459 
        5.90623         8.12562        0.545719 
        5.92195         8.09051        0.542008 
        5.93767         8.02246        0.538332 
        5.95336         7.99121        0.534697 
        5.96905         7.91382        0.531097 
        5.98476         7.86526        0.527525 
        6.00048         7.80839        0.523985 
        6.01617         7.75192        0.520481 
        6.03185         7.71129        0.517014 
        6.04756         7.66015        0.513571 
        6.06331         7.60924        0.510151 
        6.07903          7.5585         0.50677 
        6.09473         7.50001        0.503422 
        6.11044         7.47554        0.500102 
        6.12616           7.415        0.496812 
        6.14186         7.36399        0.493554 
        6.15755         7.30562        0.490327 
        6.17326         7.27571        0.487125 
        6.18898         7.21659        0.483951 
        6.20467         7.15391         0.48081 
        6.22036         7.13246        0.477698 
         6.2361         7.06768        0.474605 
         6.2518         7.03344        0.471544 
        6.26748         6.97104        0.468517 
        6.28319         6.94363        0.465508 
        6.29893         6.89791        0.462523 
        6.31463         6.84485        0.459569 
        6.33033         6.81856        0.456642 
        6.34604         6.76655        0.453738 
        6.36177         6.70702        0.450857 
        6.37747         6.67695        0.448006 
