# k  (h/Mpc)    Pcb(k)  (Mpc/h)^3    Pcb_linear(k) (Mpc/h)^3   ShotnoiseSubtracted = true
      0.0200456         9451.84         9587.87 
      0.0350414         7142.99         6970.06 
      0.0492313         5030.18         5064.31 
      0.0637834         4076.48         4209.92 
      0.0800726          3214.4         3341.31 
       0.096163         2503.51         2424.41 
       0.111083         2031.61         1933.77 
       0.126058         1700.03         1713.72 
       0.142273         1460.06         1451.89 
       0.158546         1197.01         1146.69 
        0.17375         1042.37         966.087 
       0.188953         959.712          874.77 
       0.204907         818.163         773.993 
       0.220756         731.741         654.845 
        0.23588         648.519         569.658 
         0.2514          580.82         517.529 
       0.267535         560.597         468.275 
       0.283568         488.811         412.955 
       0.299022         463.845         367.922 
       0.314451         462.046         336.256 
       0.330372         397.766         308.477 
       0.346141         368.605          279.99 
       0.361624         350.486         254.472 
       0.377134         324.664         234.155 
       0.392932         315.903         216.659 
       0.408854         299.492         199.717 
       0.424564         287.935         184.082 
       0.440253         259.824         170.666 
       0.455999         247.181         158.999 
       0.471626         244.846         148.278 
        0.48727         233.707         138.249 
       0.502856         213.415         129.239 
       0.518488         213.348           121.2 
       0.534347         198.383         113.727 
       0.550082         193.756         106.836 
       0.565732         191.462         100.532 
       0.581496         178.283         94.7581 
       0.597222         174.296         89.4629 
       0.612804         168.887         84.5938 
       0.628434         163.624         80.0553 
       0.644267         155.721         75.8123 
       0.660051         151.808         71.9017 
       0.675724         150.146         68.2907 
       0.691403         146.279         64.9246 
       0.707174         141.221         61.7665 
       0.722871         138.932          58.831 
        0.73838         136.736         56.1177 
       0.754018         128.418          53.555 
       0.769845         128.142         51.1245 
        0.78569         124.702         48.8428 
       0.801365         120.863         46.7231 
       0.817031          117.36         44.7311 
       0.832809         115.362         42.8431 
       0.848511         112.669         41.0732 
       0.864097         110.735         39.4158 
       0.879701         109.032         37.8488 
       0.895507         105.383         36.3488 
       0.911279          103.32         34.9337 
        0.92691         100.846         33.6059 
       0.942635         98.7386         32.3402 
       0.958396          97.996         31.1372 
       0.974128         95.7974         29.9979 
       0.989692         93.6832         28.9271 
        1.00528         92.1994         27.9072 
        1.02113         89.8282         26.9207 
        1.03692         89.6866         25.9858 
        1.05264         88.3653         25.0997 
        1.06832         85.3949         24.2565 
        1.08405          84.744         23.4499 
        1.09979         83.9979         22.6797 
        1.11537         81.7131         21.9518 
        1.13105         80.5287         21.2517 
        1.14679          79.319         20.5795 
        1.16256         77.7348         19.9352 
        1.17828         77.1009         19.3207 
        1.19395         74.9841         18.7342 
         1.2097         75.0827         18.1692 
        1.22537         73.2415         17.6304 
          1.241         73.0061          17.115 
        1.25666         70.4495         16.6191 
        1.27241         70.2625         16.1406 
        1.28819         69.6353         15.6801 
        1.30392         68.1983         15.2391 
        1.31957         67.7683          14.817 
        1.33529         66.7534         14.4094 
        1.35108         66.0921         14.0155 
        1.36674         65.0335         13.6393 
         1.3824         64.2612         13.2772 
        1.39811         62.9363         12.9271 
        1.41389         62.0068         12.5884 
        1.42964         61.4848         12.2623 
        1.44531         60.7511         11.9495 
        1.46101         60.1937         11.6469 
        1.47667         59.2223         11.3558 
        1.49229         58.4812         11.0754 
        1.50793         57.8624         10.8042 
        1.52367         57.3532         10.5403 
        1.53953         56.4695         10.2835 
        1.55526         55.5687         10.0373 
        1.57092         55.3532         9.80025 
        1.58662         54.5676         9.57029 
        1.60235         53.8309         9.34727 
        1.61809          52.949         9.13127 
        1.63369         52.3342         8.92403 
        1.64941         51.9984         8.72175 
        1.66519         50.8755         8.52502 
        1.68085         50.6583         8.33578 
        1.69652         49.6039         8.15224 
        1.71228         49.4398         7.97319 
        1.72806          48.783         7.79939 
        1.74368          48.137         7.63252 
        1.75933         47.8401         7.47021 
        1.77505         47.3559         7.31188 
        1.79081         46.7243         7.15786 
         1.8065         46.1828         7.00894 
        1.82218         45.0794          6.8644 
        1.83797         44.8279         6.72295 
        1.85367         44.4914         6.58628 
        1.86928         44.2354         6.45423 
        1.88497         43.3618         6.32509 
        1.90073         42.8926         6.19901 
        1.91647         42.7526         6.07649 
        1.93218         42.5376         5.95755 
        1.94787         41.7831         5.84196 
        1.96363         41.1063         5.72899 
        1.97935          40.872         5.61925 
        1.99499         40.3793           5.513 
        2.01064         39.8285         5.40935 
         2.0264         39.6921         5.30772 
        2.04216         39.1758         5.20876 
        2.05781         38.6966         5.11294 
        2.07353         38.1299          5.0192 
        2.08928         38.1115          4.9276 
        2.10499          37.699         4.83854 
        2.12065         37.1723         4.75195 
        2.13633         37.0035         4.66741 
        2.15211         36.3534         4.58438 
        2.16785         35.8776          4.5036 
        2.18349         35.5975         4.42528 
        2.19916         35.2417         4.34866 
        2.21489         35.0064          4.2736 
        2.23063         34.6164         4.20027 
         2.2463           34.39         4.12899 
        2.26194         33.8486         4.05954 
        2.27765         33.5118         3.99133 
        2.29341         33.1807         3.92451 
        2.30914           32.85         3.85937 
        2.32486         32.4113         3.79574 
        2.34061         32.2262         3.73344 
        2.35635         31.9291         3.67259 
        2.37203         31.6461         3.61331 
        2.38768         31.3611         3.55547 
        2.40339         31.1372         3.49868 
        2.41914         30.7803           3.443 
        2.43483         30.5847         3.38873 
         2.4505         30.1587         3.33573 
        2.46622          29.808         3.28367 
        2.48195         29.6575         3.23272 
        2.49759         29.1684         3.18313 
        2.51328         28.9459         3.13445 
        2.52906         28.7967         3.08648 
        2.54479         28.4542         3.03969 
        2.56049         28.3538         2.99396 
        2.57618         27.9504         2.94922 
        2.59189          27.652         2.90532 
        2.60758         27.4287         2.86239 
        2.62325         27.1164         2.82037 
        2.63898         27.0178         2.77905 
        2.65468          26.625         2.73865 
        2.67044         26.4109         2.69888 
        2.68618          26.149         2.65999 
        2.70184         25.8334         2.62202 
        2.71755         25.6471          2.5847 
        2.73329         25.3663         2.54805 
        2.74897         25.1724         2.51223 
        2.76462         24.9987         2.47717 
        2.78034         24.6355         2.44264 
        2.79607         24.4301         2.40874 
        2.81179         24.2286         2.37551 
        2.82749         24.0112         2.34295 
        2.84321         23.7824         2.31097 
        2.85893         23.5969         2.27959 
        2.87462         23.3905         2.24885 
        2.89033         23.1721         2.21864 
        2.90605         22.8799         2.18897 
        2.92176         22.6299         2.15985 
        2.93747         22.5147         2.13128 
        2.95318         22.3931         2.10322 
        2.96891         22.0831         2.07565 
        2.98456         21.9235         2.04869 
        3.00023         21.6177         2.02218 
        3.01596         21.3395         1.99605 
        3.03164         21.2547         1.97046 
        3.04738         21.1039         1.94525 
         3.0631         20.8894         1.92048 
        3.07883         20.6698         1.89615 
        3.09456         20.4853         1.87223 
        3.11026         20.2596         1.84877 
        3.12596         20.0463         1.82572 
        3.14163         19.9271         1.80311 
        3.15734         19.7723         1.78082 
        3.17308         19.5693         1.75887 
        3.18879         19.3707         1.73734 
        3.20447         19.2817          1.7162 
         3.2202         19.0029         1.69535 
         3.2359         18.8355         1.67489 
        3.25157         18.6775         1.65481 
        3.26729         18.5437           1.635 
        3.28304         18.4211         1.61547 
        3.29877          18.278         1.59629 
        3.31446         18.0722         1.57746 
        3.33014         17.8509         1.55895 
        3.34585         17.8179         1.54071 
        3.36158         17.5644         1.52274 
        3.37727         17.4481         1.50511 
        3.39294         17.2764         1.48777 
        3.40867         17.1446         1.47065 
        3.42439         16.9527          1.4538 
        3.44008         16.7991         1.43725 
        3.45578         16.6654         1.42094 
        3.47153         16.5573         1.40486 
        3.48724         16.4075         1.38904 
        3.50292         16.2868         1.37351 
        3.51859         16.1311         1.35823 
        3.53431         15.9788         1.34313 
        3.55007         15.8377         1.32822 
        3.56577         15.7431          1.3136 
        3.58146         15.5651          1.2992 
        3.59719          15.447         1.28499 
        3.61292         15.3141         1.27099 
        3.62859         15.1355         1.25725 
        3.64429          15.045         1.24369 
        3.66003         14.9379         1.23029 
        3.67578         14.8516          1.2171 
        3.69146          14.693         1.20414 
        3.70712         14.5527          1.1914 
        3.72284         14.4021         1.17879 
        3.73853         14.3381         1.16639 
        3.75422          14.132         1.15416 
        3.76993         14.0469          1.1421 
        3.78564         13.9603         1.13021 
        3.80137         13.8235         1.11848 
        3.81707         13.6606         1.10693 
        3.83279         13.6283         1.09554 
        3.84853         13.4849         1.08429 
        3.86424          13.354         1.07322 
        3.87992         13.2679         1.06232 
        3.89561         13.1321         1.05158 
        3.91134          13.053         1.04095 
        3.92704         12.9344         1.03049 
        3.94273         12.8508         1.02018 
        3.95845         12.7304            1.01 
        3.97418         12.6019        0.999949 
        3.98988         12.5301         0.99005 
        4.00554         12.4085        0.980311 
        4.02125         12.3159        0.970676 
        4.03698         12.2442        0.961156 
        4.05268         12.1047        0.951785 
        4.06839         11.9946        0.942531 
         4.0841         11.9141        0.933404 
        4.09983         11.8041        0.924384 
        4.11555         11.7268        0.915488 
        4.13124         11.6113        0.906732 
        4.14693         11.5345        0.898084 
        4.16266          11.447        0.889529 
        4.17839         11.3473         0.88109 
        4.19408         11.2807        0.872779 
        4.20977          11.163        0.864572 
        4.22551         11.0894        0.856451 
        4.24123         11.0131        0.848443 
        4.25691         10.8914        0.840559 
        4.27259         10.8055        0.832772 
        4.28831         10.7305        0.825068 
        4.30404         10.6518        0.817455 
        4.31974         10.5685        0.809954 
        4.33543          10.457        0.802551 
        4.35116         10.4137        0.795223 
        4.36688         10.3113         0.78799 
        4.38255         10.2262        0.780873 
        4.39825         10.1521        0.773828 
        4.41398         10.0805        0.766857 
         4.4297         9.97903        0.759978 
        4.44541         9.93529        0.753186 
        4.46111         9.82781        0.746481 
        4.47683         9.74842        0.739853 
        4.49251         9.67778        0.733319 
        4.50819         9.61099        0.726866 
         4.5239         9.56061        0.720481 
        4.53962         9.45835        0.714164 
        4.55535         9.40414        0.707921 
        4.57106         9.32299        0.701761 
        4.58678         9.26701        0.695672 
         4.6025         9.18701        0.689655 
        4.61821         9.11242         0.68371 
        4.63391         9.02089        0.677842 
         4.6496         8.96244        0.672046 
        4.66532         8.91791        0.666308 
        4.68103         8.80876         0.66064 
        4.69673         8.76552        0.655043 
        4.71241         8.68734        0.649517 
        4.72811         8.61582        0.644045 
        4.74384         8.58688        0.638629 
        4.75955          8.5086        0.633284 
        4.77525         8.45118        0.628003 
        4.79096         8.38416        0.622775 
        4.80669         8.30644        0.617605 
         4.8224         8.24715        0.612499 
        4.83809         8.19982        0.607456 
        4.85379         8.14784        0.602467 
         4.8695         8.07855        0.597529 
        4.88521         7.99998        0.592649 
        4.90093         7.97552        0.587823 
        4.91663         7.90097        0.583055 
        4.93234         7.84488        0.578335 
        4.94807         7.78637        0.573664 
        4.96377         7.72475        0.569053 
        4.97943         7.65892        0.564502 
        4.99514         7.61736        0.559989 
        5.01086         7.55441        0.555523 
        5.02654         7.50628        0.551116 
        5.04227         7.43204        0.546744 
          5.058         7.39156        0.542418 
        5.07371         7.36601        0.538147 
        5.08942         7.27082        0.533921 
        5.10513         7.23469         0.52974 
        5.12084         7.16989        0.525601 
        5.13656         7.12983        0.521508 
        5.15225         7.08438        0.517465 
        5.16796         7.03704        0.513459 
        5.18369         6.98894        0.509491 
         5.1994         6.94633        0.505573 
        5.21509         6.88242        0.501699 
        5.23079         6.82745        0.497861 
        5.24649         6.79253        0.494066 
        5.26217         6.74928        0.490313 
        5.27788         6.69647        0.486594 
        5.29359         6.65852        0.482913 
        5.30933         6.59139        0.479265 
        5.32504         6.56564         0.47566 
        5.34073          6.5117        0.472097 
        5.35646         6.47451        0.468563 
        5.37218         6.42846        0.465064 
        5.38789         6.38022        0.461607 
        5.40357         6.32729        0.458188 
        5.41929         6.30104        0.454797 
        5.43502         6.25462         0.45144 
         5.4507         6.20282        0.448124 
        5.46639          6.1573        0.444841 
        5.48212         6.11915        0.441584 
        5.49786         6.07754        0.438355 
        5.51353         6.04427        0.435174 
        5.52921         5.99774        0.432022 
        5.54495         5.95819        0.428892 
        5.56066         5.92387        0.425796 
        5.57637         5.87993        0.422731 
        5.59207         5.82805        0.419699 
        5.60778         5.81143        0.416696 
        5.62346         5.76586        0.413726 
        5.63916         5.71921        0.410782 
        5.65487         5.67556        0.407865 
         5.6706         5.64487        0.404973 
        5.68633         5.60971        0.402109 
        5.70203         5.57145        0.399277 
        5.71773         5.53914        0.396474 
        5.73344         5.50344        0.393696 
        5.74916            5.46        0.390942 
        5.76486         5.43852        0.388218 
        5.78054         5.38321        0.385524 
        5.79626         5.35791        0.382848 
          5.812         5.31632        0.380195 
         5.8277         5.28749        0.377574 
        5.84339         5.25351        0.374979 
        5.85911         5.22042        0.372402 
        5.87484         5.18249        0.369851 
        5.89053         5.13733        0.367328 
        5.90623         5.12064        0.364828 
        5.92195         5.09394        0.362346 
        5.93767         5.03323         0.35989 
        5.95336         5.01334        0.357459 
        5.96905         4.98905        0.355053 
        5.98476         4.95521        0.352665 
        6.00048         4.92806        0.350298 
        6.01617         4.89586        0.347956 
        6.03185         4.86644        0.345638 
        6.04756         4.83477        0.343336 
        6.06331         4.80146         0.34105 
        6.07903         4.77088        0.338789 
        6.09473         4.74679        0.336551 
        6.11044         4.70392        0.334331 
        6.12616         4.67954        0.332132 
        6.14186         4.64645        0.329954 
        6.15755         4.61584        0.327796 
        6.17326         4.59174        0.325656 
        6.18898         4.57187        0.323534 
        6.20467         4.53203        0.321435 
        6.22036         4.51413        0.319354 
         6.2361         4.47361        0.317286 
         6.2518         4.45498         0.31524 
        6.26748         4.41962        0.313216 
        6.28319         4.40276        0.311204 
        6.29893         4.36725        0.309209 
        6.31463         4.35076        0.307234 
        6.33033           4.323        0.305277 
        6.34604         4.29164        0.303336 
        6.36177         4.26947         0.30141 
        6.37747         4.24313        0.299504 
