# k  (h/Mpc)    Pcb(k)  (Mpc/h)^3    Pcb_linear(k) (Mpc/h)^3   ShotnoiseSubtracted = true
      0.0200456         14364.1         14660.3 
      0.0350414         10282.1         10657.5 
      0.0492313         7645.36         7743.56 
      0.0637834         6565.34         6437.15 
      0.0800726         5190.38         5109.01 
       0.096163         3615.41         3707.03 
       0.111083         2884.11         2956.82 
       0.126058         2659.72         2620.35 
       0.142273         2300.06         2220.01 
       0.158546         1953.74         1753.34 
        0.17375         1563.45         1477.19 
       0.188953         1517.48         1337.56 
       0.204907         1426.37         1183.47 
       0.220756         1221.47         1001.29 
        0.23588         1080.39         871.032 
         0.2514           940.7         791.324 
       0.267535         926.863         716.012 
       0.283568         840.545         631.427 
       0.299022         788.222         562.569 
       0.314451         746.864          514.15 
       0.330372         688.019         471.675 
       0.346141         633.494         428.116 
       0.361624         609.276         389.099 
       0.377134          565.66         358.033 
       0.392932          542.36         331.281 
       0.408854         522.984         305.377 
       0.424564         492.475          281.47 
       0.440253         481.368         260.955 
       0.455999         454.206         243.117 
       0.471626         428.933         226.724 
        0.48727         414.763         211.389 
       0.502856         402.445         197.613 
       0.518488         398.606         185.321 
       0.534347         372.833         173.894 
       0.550082         355.096         163.357 
       0.565732         353.246         153.718 
       0.581496         332.968         144.889 
       0.597222         327.492         136.793 
       0.612804         317.526         129.348 
       0.628434         305.426         122.408 
       0.644267         296.716          115.92 
       0.660051         290.817         109.941 
       0.675724         286.227         104.419 
       0.691403         277.752         99.2726 
       0.707174         267.595         94.4437 
       0.722871         264.435         89.9552 
        0.73838         260.075         85.8064 
       0.754018         253.208         81.8879 
       0.769845          244.64         78.1716 
        0.78569         244.407         74.6828 
       0.801365         235.874         71.4416 
       0.817031         228.802         68.3958 
       0.832809         226.697          65.509 
       0.848511         220.611         62.8027 
       0.864097         217.791         60.2685 
       0.879701          213.89         57.8724 
       0.895507           208.6          55.579 
       0.911279         202.268         53.4152 
        0.92691         202.386          51.385 
       0.942635         197.237         49.4496 
       0.958396         195.808         47.6102 
       0.974128         191.409         45.8682 
       0.989692         186.979         44.2309 
        1.00528         184.669         42.6714 
        1.02113         183.288          41.163 
        1.03692           178.1         39.7334 
        1.05264         174.632         38.3785 
        1.06832         171.667         37.0892 
        1.08405         168.984         35.8559 
        1.09979         167.769         34.6782 
        1.11537         163.178         33.5653 
        1.13105         161.062         32.4947 
        1.14679         160.887         31.4669 
        1.16256         158.033         30.4817 
        1.17828         154.758         29.5421 
        1.19395         152.503         28.6455 
         1.2097         151.479         27.7816 
        1.22537          148.61         26.9576 
          1.241         146.636         26.1697 
        1.25666         144.214         25.4114 
        1.27241         141.741         24.6797 
        1.28819         140.235         23.9756 
        1.30392         138.132         23.3012 
        1.31957         137.158         22.6558 
        1.33529          133.51         22.0325 
        1.35108         132.729         21.4303 
        1.36674         131.445          20.855 
         1.3824         128.871         20.3014 
        1.39811         128.368         19.7661 
        1.41389         125.988         19.2482 
        1.42964         123.352         18.7497 
        1.44531         121.271         18.2713 
        1.46101         120.121         17.8087 
        1.47667         118.681         17.3635 
        1.49229         117.112         16.9348 
        1.50793         116.146           16.52 
        1.52367          114.71         16.1166 
        1.53953         112.439         15.7239 
        1.55526          111.45         15.3475 
        1.57092         110.157          14.985 
        1.58662         108.223         14.6334 
        1.60235         107.716         14.2924 
        1.61809         105.587         13.9621 
        1.63369         104.778         13.6452 
        1.64941         103.883         13.3359 
        1.66519         101.704         13.0351 
        1.68085         101.175         12.7458 
        1.69652         98.6246         12.4651 
        1.71228          98.837         12.1914 
        1.72806         97.4293         11.9256 
        1.74368         96.1716         11.6705 
        1.75933         94.7898         11.4223 
        1.77505         93.7833         11.1802 
        1.79081         92.4111         10.9447 
         1.8065          91.373          10.717 
        1.82218         89.6927          10.496 
        1.83797         88.6804         10.2797 
        1.85367         87.8556         10.0707 
        1.86928         87.3086          9.8688 
        1.88497         85.5472         9.67134 
        1.90073         85.0731         9.47857 
        1.91647         83.9002         9.29122 
        1.93218         82.7593         9.10935 
        1.94787          82.086         8.93262 
        1.96363         80.6803         8.75988 
        1.97935         79.9412         8.59208 
        1.99499         79.0172         8.42962 
        2.01064         78.2242         8.27114 
         2.0264         76.7464         8.11574 
        2.04216         75.9896         7.96442 
        2.05781         75.1405         7.81791 
        2.07353         73.8175         7.67457 
        2.08928         72.8871         7.53452 
        2.10499         72.3198         7.39834 
        2.12065         71.9007         7.26594 
        2.13633         70.9344         7.13667 
        2.15211         70.1006         7.00972 
        2.16785         69.2959         6.88621 
        2.18349          68.517         6.76645 
        2.19916         67.6492          6.6493 
        2.21489         66.9198         6.53453 
        2.23063         66.4041          6.4224 
         2.2463         65.4207          6.3134 
        2.26194         64.9134         6.20721 
        2.27765         64.2143         6.10292 
        2.29341         63.3737         6.00075 
        2.30914          62.425         5.90114 
        2.32486         61.6475         5.80385 
        2.34061         61.0765         5.70859 
        2.35635         60.5382         5.61555 
        2.37203         59.5668         5.52492 
        2.38768         58.9843         5.43647 
        2.40339         58.2674         5.34964 
        2.41914         57.8616          5.2645 
        2.43483         57.5259         5.18152 
         2.4505         56.7881         5.10047 
        2.46622         56.1237         5.02088 
        2.48195          55.447         4.94298 
        2.49759         54.5747         4.86715 
        2.51328         54.1213         4.79271 
        2.52906         53.7211         4.71936 
        2.54479         53.0411         4.64782 
        2.56049         52.3566          4.5779 
        2.57618         51.9447         4.50949 
        2.59189         51.3501         4.44236 
        2.60758         51.0069         4.37671 
        2.62325         50.3076         4.31247 
        2.63898         49.8632          4.2493 
        2.65468          49.326         4.18752 
        2.67044         48.5374         4.12671 
        2.68618         48.2736         4.06724 
        2.70184         47.5485         4.00919 
        2.71755         47.4338         3.95212 
        2.73329         46.5725         3.89608 
        2.74897         46.1829         3.84131 
        2.76462         45.6798         3.78771 
        2.78034         45.3827         3.73491 
        2.79607         44.7254         3.68307 
        2.81179         44.3191         3.63227 
        2.82749         43.6657         3.58248 
        2.84321         43.3867         3.53357 
        2.85893         42.9004         3.48559 
        2.87462         42.3675         3.43858 
        2.89033           41.98          3.3924 
        2.90605         41.5848         3.34703 
        2.92176         41.1924         3.30251 
        2.93747         40.7682         3.25882 
        2.95318         40.3322         3.21591 
        2.96891         39.7285         3.17376 
        2.98456         39.5671         3.13254 
        3.00023         39.1056           3.092 
        3.01596          38.736         3.05206 
        3.03164         38.2442         3.01293 
        3.04738         38.0412         2.97437 
         3.0631         37.4964          2.9365 
        3.07883         37.1783         2.89929 
        3.09456         36.8006         2.86273 
        3.11026         36.3737         2.82685 
        3.12596         36.1262          2.7916 
        3.14163         35.7019         2.75703 
        3.15734         35.1995         2.72296 
        3.17308         35.0703         2.68938 
        3.18879         34.8028         2.65647 
        3.20447          34.285         2.62415 
         3.2202         33.8811         2.59227 
         3.2359         33.6515         2.56098 
        3.25157         33.3049         2.53027 
        3.26729         33.0494         2.49998 
        3.28304         32.6514         2.47013 
        3.29877         32.3705          2.4408 
        3.31446         32.1165         2.41201 
        3.33014         31.7501         2.38371 
        3.34585         31.4971         2.35582 
        3.36158         31.1667         2.32834 
        3.37727          30.827         2.30138 
        3.39294         30.5306         2.27487 
        3.40867         30.2598         2.24868 
        3.42439         29.9916         2.22292 
        3.44008         29.8118         2.19762 
        3.45578         29.2926         2.17268 
        3.47153         29.0786         2.14809 
        3.48724         28.8298         2.12391 
        3.50292         28.5247         2.10016 
        3.51859          28.296         2.07679 
        3.53431         28.1064          2.0537 
        3.55007         27.7932         2.03091 
        3.56577          27.523         2.00855 
        3.58146         27.3187         1.98653 
        3.59719         26.9817          1.9648 
        3.61292         26.7599          1.9434 
        3.62859         26.5215          1.9224 
        3.64429         26.2062         1.90166 
        3.66003         25.9794         1.88117 
        3.67578         25.8422         1.86099 
        3.69146         25.5701         1.84118 
        3.70712         25.3098          1.8217 
        3.72284         25.1694         1.80242 
        3.73853         24.9244         1.78346 
        3.75422         24.6399         1.76477 
        3.76993         24.4766         1.74632 
        3.78564         24.1514         1.72815 
        3.80137         24.0127          1.7102 
        3.81707         23.8079         1.69255 
        3.83279         23.4995         1.67513 
        3.84853         23.2266         1.65793 
        3.86424         23.0705           1.641 
        3.87992         22.8842         1.62434 
        3.89561         22.7038         1.60791 
        3.91134         22.5132         1.59167 
        3.92704         22.3025         1.57567 
        3.94273         22.0557         1.55991 
        3.95845         21.8842         1.54433 
        3.97418         21.7338         1.52897 
        3.98988         21.5175         1.51383 
        4.00554         21.3604         1.49894 
        4.02125         21.1848         1.48421 
        4.03698          20.904         1.46965 
        4.05268          20.757         1.45532 
        4.06839         20.5536         1.44117 
         4.0841         20.4598         1.42722 
        4.09983         20.2626         1.41342 
        4.11555         20.0859         1.39982 
        4.13124         19.8223         1.38643 
        4.14693         19.6411         1.37321 
        4.16266         19.5107         1.36013 
        4.17839         19.3262         1.34722 
        4.19408         19.1254         1.33452 
        4.20977         19.0597         1.32197 
        4.22551          18.871         1.30955 
        4.24123         18.6837         1.29731 
        4.25691         18.5668         1.28525 
        4.27259         18.3733         1.27335 
        4.28831         18.2111         1.26157 
        4.30404          18.054         1.24992 
        4.31974         17.8744         1.23846 
        4.33543         17.7759         1.22714 
        4.35116         17.6333         1.21593 
        4.36688         17.4425         1.20487 
        4.38255         17.3185         1.19399 
        4.39825         17.2102         1.18322 
        4.41398         17.0244         1.17256 
         4.4297         16.8898         1.16204 
        4.44541         16.7857         1.15165 
        4.46111         16.6196          1.1414 
        4.47683         16.4698         1.13127 
        4.49251         16.3818         1.12128 
        4.50819         16.1995         1.11141 
         4.5239         16.1041         1.10165 
        4.53962         15.9381         1.09199 
        4.55535         15.8331         1.08244 
        4.57106         15.6758         1.07302 
        4.58678         15.6122         1.06371 
         4.6025         15.4391         1.05451 
        4.61821         15.3084         1.04542 
        4.63391         15.2067         1.03645 
         4.6496         15.0542         1.02759 
        4.66532         14.9057         1.01881 
        4.68103         14.8082         1.01015 
        4.69673         14.7494         1.00159 
        4.71241         14.6024         0.99314 
        4.72811         14.4665        0.984773 
        4.74384         14.3658        0.976492 
        4.75955         14.2477        0.968319 
        4.77525         14.1529        0.960244 
        4.79096         14.0353        0.952251 
        4.80669         13.9205        0.944345 
         4.8224         13.7911        0.936538 
        4.83809         13.7027        0.928827 
        4.85379         13.5715        0.921198 
         4.8695         13.5261        0.913649 
        4.88521         13.3707        0.906187 
        4.90093         13.2718        0.898808 
        4.91663         13.2107        0.891517 
        4.93234         13.0428        0.884299 
        4.94807         12.9814        0.877157 
        4.96377         12.8583        0.870107 
        4.97943         12.7871        0.863148 
        4.99514         12.6564        0.856248 
        5.01086         12.6013        0.849419 
        5.02654         12.4659        0.842681 
        5.04227          12.397        0.835996 
          5.058         12.3127        0.829381 
        5.07371         12.2144         0.82285 
        5.08942         12.1101        0.816388 
        5.10513         12.0207        0.809995 
        5.12084         11.9275        0.803668 
        5.13656         11.8441        0.797409 
        5.15225         11.7371        0.791227 
        5.16796         11.6868        0.785101 
        5.18369         11.5665        0.779034 
         5.1994          11.502        0.773043 
        5.21509         11.4037        0.767119 
        5.23079         11.3436        0.761251 
        5.24649           11.26        0.755449 
        5.26217         11.1444        0.749711 
        5.27788          11.068        0.744024 
        5.29359         11.0203        0.738396 
        5.30933         10.9303        0.732817 
        5.32504         10.8582        0.727306 
        5.34073         10.7578        0.721857 
        5.35646         10.6877        0.716453 
        5.37218         10.6143        0.711103 
        5.38789         10.5325        0.705817 
        5.40357          10.461         0.70059 
        5.41929         10.3655        0.695404 
        5.43502         10.3363        0.690271 
         5.4507         10.2286        0.685201 
        5.46639         10.1663        0.680182 
        5.48212         10.1019        0.675201 
        5.49786         10.0118        0.670264 
        5.51353          9.9429        0.665401 
        5.52921         9.86436        0.660581 
        5.54495         9.79095        0.655795 
        5.56066         9.72393        0.651061 
        5.57637          9.6477        0.646375 
        5.59207          9.5993        0.641739 
        5.60778         9.51455        0.637146 
        5.62346         9.45722        0.632605 
        5.63916         9.38768        0.628104 
        5.65487         9.32441        0.623644 
         5.6706         9.26515        0.619222 
        5.68633         9.18727        0.614842 
        5.70203         9.14632        0.610513 
        5.71773         9.07285        0.606226 
        5.73344         9.00703        0.601978 
        5.74916         8.92867        0.597767 
        5.76486         8.90043        0.593602 
        5.78054         8.81931        0.589483 
        5.79626         8.74296        0.585391 
          5.812         8.70306        0.581334 
         5.8277         8.63565        0.577328 
        5.84339         8.58259        0.573359 
        5.85911         8.51799         0.56942 
        5.87484         8.46108        0.565518 
        5.89053         8.40359        0.561661 
        5.90623         8.33814        0.557838 
        5.92195         8.29946        0.554044 
        5.93767          8.2449        0.550287 
        5.95336         8.18252        0.546571 
        5.96905         8.10928        0.542891 
        5.98476         8.08136         0.53924 
        6.00048         8.02275        0.535621 
        6.01617          7.9755         0.53204 
        6.03185         7.91613        0.528496 
        6.04756         7.84809        0.524975 
        6.06331         7.81393         0.52148 
        6.07903         7.76807        0.518023 
        6.09473          7.6907        0.514601 
        6.11044         7.65942        0.511207 
        6.12616         7.60266        0.507844 
        6.14186         7.54906        0.504515 
        6.15755         7.49059        0.501215 
        6.17326         7.45226        0.497943 
        6.18898         7.40989        0.494698 
        6.20467         7.35629        0.491488 
        6.22036         7.30692        0.488306 
         6.2361         7.26453        0.485144 
         6.2518         7.21384        0.482015 
        6.26748         7.15522        0.478921 
        6.28319         7.11304        0.475845 
        6.29893            7.08        0.472794 
        6.31463         7.03636        0.469774 
        6.33033          6.9901        0.466782 
        6.34604         6.93868        0.463814 
        6.36177         6.88503        0.460869 
        6.37747         6.86009        0.457955 
