# k  (h/Mpc)    Pcb(k)  (Mpc/h)^3    Pcb_linear(k) (Mpc/h)^3   ShotnoiseSubtracted = true
      0.0200456         8519.25         8672.35 
      0.0350414         6147.54         6304.51 
      0.0492313         4555.67         4580.74 
      0.0637834         3878.79         3807.92 
      0.0800726         3071.59         3022.26 
       0.096163         2155.07         2192.91 
       0.111083         1711.57         1749.12 
       0.126058         1572.79         1550.08 
       0.142273         1356.56         1313.26 
       0.158546         1119.75          1037.2 
        0.17375         902.472         873.838 
       0.188953         863.955          791.24 
       0.204907         809.495         700.086 
       0.220756         683.302         592.315 
        0.23588         599.403         515.263 
         0.2514         526.082         468.111 
       0.267535         505.827          423.56 
       0.283568         458.189         373.523 
       0.299022         424.511          332.79 
       0.314451         393.851         304.147 
       0.330372         364.089         279.021 
       0.346141         328.326         253.254 
       0.361624           314.4         230.173 
       0.377134         293.889         211.796 
       0.392932         273.665         195.971 
       0.408854         262.329         180.647 
       0.424564         250.917         166.505 
       0.440253         238.911         154.369 
       0.455999         224.806         143.817 
       0.471626         208.277         134.119 
        0.48727         202.355         125.048 
       0.502856         194.693         116.899 
       0.518488         190.996         109.627 
       0.534347         181.128         102.868 
       0.550082         168.699         96.6347 
       0.565732         164.237         90.9325 
       0.581496         156.757         85.7099 
       0.597222         152.141         80.9203 
       0.612804         145.663         76.5161 
       0.628434         141.961         72.4111 
       0.644267         137.097         68.5732 
       0.660051         134.872          65.036 
       0.675724         131.043         61.7698 
       0.691403         127.043         58.7251 
       0.707174         121.828         55.8686 
       0.722871         120.402         53.2134 
        0.73838         117.917         50.7591 
       0.754018         112.936         48.4412 
       0.769845         110.615         46.2428 
        0.78569         108.108         44.1789 
       0.801365         105.021         42.2616 
       0.817031         101.324         40.4598 
       0.832809          100.09         38.7522 
       0.848511         96.9125         37.1512 
       0.864097         94.4338         35.6521 
       0.879701         93.1489         34.2347 
       0.895507         91.0571          32.878 
       0.911279         89.6637          31.598 
        0.92691         87.6885          30.397 
       0.942635         85.2785         29.2521 
       0.958396          84.937          28.164 
       0.974128         82.6757         27.1335 
       0.989692         80.7073          26.165 
        1.00528         79.0926         25.2425 
        1.02113         77.9577         24.3501 
        1.03692         75.4715         23.5045 
        1.05264         75.3351          22.703 
        1.06832         73.2674         21.9403 
        1.08405         72.3774         21.2107 
        1.09979         71.8245          20.514 
        1.11537         69.1819         19.8557 
        1.13105         69.5616         19.2224 
        1.14679         68.1444         18.6144 
        1.16256         67.1173         18.0316 
        1.17828         65.3413         17.4758 
        1.19395         64.8558         16.9453 
         1.2097         63.2412         16.4343 
        1.22537          63.348         15.9469 
          1.241         61.6997         15.4808 
        1.25666          60.535         15.0322 
        1.27241         59.9848         14.5994 
        1.28819         58.8035         14.1829 
        1.30392         57.9858         13.7839 
        1.31957         57.4446         13.4021 
        1.33529         56.4662         13.0334 
        1.35108         56.1873         12.6772 
        1.36674         55.3412         12.3369 
         1.3824         54.0389         12.0094 
        1.39811         53.7682         11.6927 
        1.41389         52.8993         11.3863 
        1.42964         52.2138         11.0914 
        1.44531         51.3902         10.8085 
        1.46101         50.5161         10.5348 
        1.47667         50.4407         10.2714 
        1.49229         49.7479         10.0178 
        1.50793         49.0078          9.7725 
        1.52367         48.2575         9.53383 
        1.53953         47.8975         9.30156 
        1.55526         47.1944         9.07889 
        1.57092         46.8226         8.86445 
        1.58662         46.1921         8.65644 
        1.60235         45.6839         8.45473 
        1.61809         44.9647         8.25935 
        1.63369         44.2874         8.07189 
        1.64941         43.7579         7.88893 
        1.66519         43.1733         7.71099 
        1.68085         42.8676         7.53982 
        1.69652         42.2423          7.3738 
        1.71228         42.0065         7.21185 
        1.72806         41.4842         7.05464 
        1.74368         40.8504         6.90371 
        1.75933         40.4393          6.7569 
        1.77505         40.1156         6.61368 
        1.79081         39.5129         6.47437 
         1.8065         39.1135         6.33967 
        1.82218         38.7134         6.20894 
        1.83797          38.172           6.081 
        1.85367         37.6402         5.95737 
        1.86928         37.4145         5.83793 
        1.88497         37.0312         5.72113 
        1.90073         36.6656         5.60709 
        1.91647         36.2317         5.49626 
        1.93218         35.8748         5.38867 
        1.94787         35.4541         5.28413 
        1.96363          35.138         5.18195 
        1.97935         34.6833         5.08268 
        1.99499         34.3092         4.98658 
        2.01064         34.0576         4.89283 
         2.0264          33.535          4.8009 
        2.04216         33.1422         4.71138 
        2.05781         32.7707         4.62472 
        2.07353         32.4991         4.53993 
        2.08928         32.4285         4.45708 
        2.10499         31.9781         4.37652 
        2.12065         31.5281          4.2982 
        2.13633         31.3987         4.22173 
        2.15211         30.8308         4.14663 
        2.16785         30.4642         4.07357 
        2.18349          30.336         4.00272 
        2.19916         30.0677         3.93342 
        2.21489         29.6008         3.86553 
        2.23063         29.4017          3.7992 
         2.2463         29.1139         3.73472 
        2.26194         28.8585          3.6719 
        2.27765         28.5646         3.61021 
        2.29341         28.2774         3.54977 
        2.30914         28.0867         3.49085 
        2.32486         27.6557         3.43329 
        2.34061         27.5175         3.37694 
        2.35635         27.2123         3.32191 
        2.37203         27.0067         3.26829 
        2.38768         26.6457         3.21597 
        2.40339         26.5625          3.1646 
        2.41914         26.2313         3.11424 
        2.43483         25.9072         3.06515 
         2.4505         25.6887         3.01721 
        2.46622         25.4588         2.97012 
        2.48195         25.2106         2.92404 
        2.49759         24.9837         2.87918 
        2.51328         24.6909         2.83515 
        2.52906         24.5616         2.79176 
        2.54479         24.2217         2.74944 
        2.56049         23.9537         2.70808 
        2.57618         23.7141         2.66761 
        2.59189         23.6167          2.6279 
        2.60758         23.4037         2.58906 
        2.62325         23.0842         2.55106 
        2.63898         23.0348         2.51369 
        2.65468         22.6922         2.47714 
        2.67044         22.5224         2.44117 
        2.68618         22.2348         2.40599 
        2.70184         22.1103         2.37165 
        2.71755         21.9441         2.33789 
        2.73329         21.6889         2.30474 
        2.74897         21.4157         2.27234 
        2.76462         21.3801         2.24063 
        2.78034         21.1598          2.2094 
        2.79607         20.9394         2.17873 
        2.81179         20.7758         2.14868 
        2.82749         20.5765         2.11923 
        2.84321         20.4352          2.0903 
        2.85893         20.1781         2.06192 
        2.87462         19.9825         2.03411 
        2.89033         19.8845         2.00679 
        2.90605         19.7467         1.97995 
        2.92176         19.4492         1.95361 
        2.93747         19.3901         1.92777 
        2.95318         19.1261         1.90239 
        2.96891         18.9999         1.87745 
        2.98456         18.8065         1.85307 
        3.00023         18.6329         1.82909 
        3.01596         18.5393         1.80546 
        3.03164         18.3608         1.78231 
        3.04738         18.1417          1.7595 
         3.0631         17.9849          1.7371 
        3.07883         17.8443         1.71509 
        3.09456         17.7043         1.69346 
        3.11026         17.5646         1.67224 
        3.12596         17.3808         1.65138 
        3.14163         17.2835         1.63093 
        3.15734         17.0609         1.61078 
        3.17308         16.9398         1.59092 
        3.18879         16.7865         1.57145 
        3.20447         16.6528         1.55233 
         3.2202         16.4805         1.53347 
         3.2359         16.3573         1.51496 
        3.25157         16.2489          1.4968 
        3.26729         16.1433         1.47888 
        3.28304         15.9471         1.46121 
        3.29877         15.7638         1.44386 
        3.31446          15.654         1.42683 
        3.33014         15.5326         1.41009 
        3.34585         15.3413          1.3936 
        3.36158          15.266         1.37734 
        3.37727         15.0973         1.36139 
        3.39294         14.9479         1.34571 
        3.40867         14.8636         1.33022 
        3.42439         14.7117         1.31498 
        3.44008         14.6289         1.30001 
        3.45578         14.4883         1.28526 
        3.47153         14.3958         1.27071 
        3.48724         14.2714         1.25641 
        3.50292         14.1108         1.24236 
        3.51859         14.0481         1.22853 
        3.53431         13.9314         1.21488 
        3.55007         13.8038         1.20139 
        3.56577         13.6916         1.18816 
        3.58146         13.5934         1.17514 
        3.59719         13.4283         1.16229 
        3.61292         13.3498         1.14963 
        3.62859         13.2123          1.1372 
        3.64429         13.1131         1.12494 
        3.66003         13.0221         1.11282 
        3.67578         12.9501         1.10088 
        3.69146         12.8047         1.08916 
        3.70712          12.689         1.07763 
        3.72284         12.6072         1.06623 
        3.73853         12.4531         1.05501 
        3.75422         12.3901         1.04395 
        3.76993         12.3122         1.03304 
        3.78564         12.1635         1.02229 
        3.80137         12.0806         1.01168 
        3.81707          11.982         1.00123 
        3.83279         11.8643        0.990931 
        3.84853         11.7992        0.980756 
        3.86424         11.6359        0.970743 
        3.87992         11.6018        0.960885 
        3.89561         11.5054        0.951164 
        3.91134         11.4338        0.941557 
        3.92704         11.2934        0.932093 
        3.94273         11.2201        0.922769 
        3.95845         11.1508        0.913556 
        3.97418          11.064        0.904466 
        3.98988          10.944        0.895512 
        4.00554         10.8981        0.886704 
        4.02125         10.7427        0.877989 
        4.03698         10.7146        0.869378 
        4.05268         10.6049        0.860901 
        4.06839         10.5251        0.852531 
         4.0841         10.4387        0.844276 
        4.09983         10.3564        0.836117 
        4.11555         10.2665         0.82807 
        4.13124         10.1837        0.820151 
        4.14693          10.115        0.812328 
        4.16266         10.0421         0.80459 
        4.17839         9.94334        0.796957 
        4.19408         9.88426         0.78944 
        4.20977         9.79025        0.782017 
        4.22551         9.74055        0.774671 
        4.24123         9.66258        0.767427 
        4.25691         9.58353        0.760296 
        4.27259         9.47928        0.753253 
        4.28831          9.4273        0.746285 
        4.30404         9.34996        0.739398 
        4.31974         9.29857        0.732614 
        4.33543         9.19534        0.725918 
        4.35116         9.13208        0.719289 
        4.36688         9.06224        0.712746 
        4.38255          8.9959        0.706309 
        4.39825         8.92181        0.699937 
        4.41398         8.86137        0.693632 
         4.4297         8.79062         0.68741 
        4.44541         8.73097        0.681266 
        4.46111         8.66333        0.675202 
        4.47683         8.60492        0.669207 
        4.49251         8.52403        0.663296 
        4.50819         8.45414        0.657459 
         4.5239         8.41294        0.651684 
        4.53962          8.3479        0.645971 
        4.55535         8.26589        0.640323 
        4.57106         8.20482        0.634751 
        4.58678         8.13404        0.629244 
         4.6025         8.06753        0.623802 
        4.61821         8.03289        0.618424 
        4.63391         7.98635        0.613117 
         4.6496          7.9111        0.607874 
        4.66532         7.84812        0.602684 
        4.68103         7.77603        0.597557 
        4.69673         7.73175        0.592495 
        4.71241         7.67829        0.587496 
        4.72811         7.60531        0.582547 
        4.74384         7.56407        0.577648 
        4.75955         7.50838        0.572813 
        4.77525         7.44611        0.568036 
        4.79096         7.39991        0.563308 
        4.80669         7.34143        0.558631 
         4.8224         7.29288        0.554013 
        4.83809         7.21323        0.549451 
        4.85379         7.16251        0.544939 
         4.8695         7.12371        0.540473 
        4.88521         7.07898        0.536059 
        4.90093         7.01759        0.531694 
        4.91663         6.95855        0.527381 
        4.93234         6.91998        0.523111 
        4.94807         6.86139        0.518886 
        4.96377         6.82454        0.514715 
        4.97943         6.77592        0.510599 
        4.99514         6.71779        0.506518 
        5.01086          6.6692        0.502477 
        5.02654         6.62115        0.498491 
        5.04227         6.57758        0.494537 
          5.058         6.54623        0.490624 
        5.07371         6.49862         0.48676 
        5.08942          6.4422        0.482938 
        5.10513         6.39503        0.479156 
        5.12084         6.34521        0.475413 
        5.13656         6.30507        0.471711 
        5.15225         6.26862        0.468054 
        5.16796         6.22391         0.46443 
        5.18369         6.17663        0.460841 
         5.1994         6.13391        0.457297 
        5.21509         6.08568        0.453793 
        5.23079         6.04737        0.450321 
        5.24649         6.01526        0.446889 
        5.26217         5.97004        0.443495 
        5.27788         5.92232        0.440131 
        5.29359         5.88197        0.436801 
        5.30933          5.8506        0.433501 
        5.32504         5.80774        0.430241 
        5.34073         5.76222        0.427018 
        5.35646         5.72295        0.423821 
        5.37218         5.67698        0.420656 
        5.38789         5.65902        0.417529 
        5.40357         5.60835        0.414437 
        5.41929         5.57663         0.41137 
        5.43502         5.53248        0.408333 
         5.4507          5.4969        0.405334 
        5.46639         5.44822        0.402365 
        5.48212         5.40496        0.399418 
        5.49786         5.39552        0.396498 
        5.51353         5.34011        0.393621 
        5.52921          5.3143         0.39077 
        5.54495         5.27532        0.387938 
        5.56066         5.24082        0.385138 
        5.57637         5.20732        0.382366 
        5.59207         5.16485        0.379623 
        5.60778         5.13714        0.376907 
        5.62346         5.10512         0.37422 
        5.63916         5.07087        0.371558 
        5.65487         5.02624        0.368919 
         5.6706         5.00853        0.366304 
        5.68633         4.96833        0.363712 
        5.70203         4.93487        0.361151 
        5.71773         4.90918        0.358616 
        5.73344           4.872        0.356103 
        5.74916         4.84843        0.353612 
        5.76486         4.81013        0.351148 
        5.78054         4.77853        0.348711 
        5.79626         4.74049        0.346291 
          5.812         4.71857        0.343891 
         5.8277         4.67705        0.341521 
        5.84339         4.66551        0.339173 
        5.85911         4.64079        0.336843 
        5.87484         4.59637        0.334535 
        5.89053         4.57467        0.332253 
        5.90623         4.54846        0.329991 
        5.92195         4.50622        0.327747 
        5.93767         4.48048        0.325525 
        5.95336         4.46046        0.323327 
        5.96905         4.42719         0.32115 
        5.98476         4.40129         0.31899 
        6.00048         4.36343        0.316849 
        6.01617         4.34707         0.31473 
        6.03185         4.31557        0.312634 
        6.04756         4.29092        0.310551 
        6.06331           4.265        0.308484 
        6.07903         4.23711        0.306439 
        6.09473          4.2062        0.304415 
        6.11044         4.17973        0.302407 
        6.12616         4.16966        0.300417 
        6.14186         4.13233        0.298448 
        6.15755         4.11187        0.296496 
        6.17326         4.09055         0.29456 
        6.18898         4.06141        0.292641 
        6.20467         4.03616        0.290742 
        6.22036         4.01574         0.28886 
         6.2361         3.98533        0.286989 
         6.2518         3.97049        0.285138 
        6.26748         3.94185        0.283308 
        6.28319         3.91626        0.281488 
        6.29893         3.89093        0.279683 
        6.31463         3.87161        0.277897 
        6.33033         3.84204        0.276127 
        6.34604         3.82009        0.274371 
        6.36177         3.79646        0.272629 
        6.37747         3.77949        0.270905 
