# k  (h/Mpc)    Pcb(k)  (Mpc/h)^3    Pcb_linear(k) (Mpc/h)^3   ShotnoiseSubtracted = true
      0.0200456         9114.08          9280.4 
      0.0350414         6570.79         6746.53 
      0.0492313         4871.48          4901.9 
      0.0637834         4151.81         4074.91 
      0.0800726         3287.26         3234.15 
       0.096163         2304.19         2346.66 
       0.111083         1830.62         1871.76 
       0.126058         1683.36         1658.76 
       0.142273          1452.5         1405.33 
       0.158546         1202.61         1109.92 
        0.17375         968.196         935.105 
       0.188953          928.67         846.716 
       0.204907         870.661         749.171 
       0.220756         736.088         633.844 
        0.23588         646.207          551.39 
         0.2514         566.478         500.932 
       0.267535         546.376         453.257 
       0.283568         495.046         399.712 
       0.299022         459.343         356.123 
       0.314451         427.472         325.472 
       0.330372         394.922         298.584 
       0.346141         356.536         271.011 
       0.361624         341.889         246.311 
       0.377134         319.207         226.645 
       0.392932         298.549         209.711 
       0.408854         286.192         193.313 
       0.424564         273.427         178.179 
       0.440253          261.25         165.193 
       0.455999         245.807           153.9 
       0.471626         228.016         143.523 
        0.48727         221.527         133.816 
       0.502856          213.41         125.095 
       0.518488         209.809         117.314 
       0.534347         198.584          110.08 
       0.550082         185.334          103.41 
       0.565732         180.948          97.308 
       0.581496         172.449         91.7193 
       0.597222         167.565         86.5939 
       0.612804         160.712         81.8809 
       0.628434           156.3          77.488 
       0.644267         150.986          73.381 
       0.660051         148.834         69.5958 
       0.675724         144.852         66.1006 
       0.691403         140.465         62.8425 
       0.707174         134.578         59.7857 
       0.722871         133.222         56.9443 
        0.73838         130.412          54.318 
       0.754018         125.329         51.8375 
       0.769845         122.566          49.485 
        0.78569         119.964         47.2764 
       0.801365         116.621         45.2247 
       0.817031         112.524         43.2966 
       0.832809         111.072         41.4692 
       0.848511         107.829          39.756 
       0.864097         105.218         38.1518 
       0.879701          103.61          36.635 
       0.895507         101.182         35.1832 
       0.911279         99.6524         33.8134 
        0.92691         97.7133         32.5282 
       0.942635         95.1454         31.3031 
       0.958396         94.7866         30.1387 
       0.974128         92.2125         29.0359 
       0.989692         89.9679         27.9995 
        1.00528         88.1557         27.0123 
        1.02113          87.169         26.0574 
        1.03692         84.1683         25.1524 
        1.05264         84.0885         24.2947 
        1.06832         81.7956         23.4786 
        1.08405         80.7636         22.6979 
        1.09979         80.2409         21.9523 
        1.11537         77.3805         21.2478 
        1.13105         77.6411         20.5701 
        1.14679         76.2371         19.9195 
        1.16256           75.12         19.2959 
        1.17828         73.1175         18.7011 
        1.19395         72.5274         18.1334 
         1.2097         70.6467         17.5866 
        1.22537         70.8606          17.065 
          1.241         69.0535         16.5662 
        1.25666         67.7216         16.0861 
        1.27241         67.0355          15.623 
        1.28819         65.8439         15.1773 
        1.30392         64.9612         14.7503 
        1.31957         64.2582         14.3418 
        1.33529         63.1239         13.9473 
        1.35108         62.8377          13.566 
        1.36674         61.9436         13.2019 
         1.3824         60.5989         12.8514 
        1.39811         60.1758         12.5126 
        1.41389         59.2197         12.1847 
        1.42964         58.5463         11.8691 
        1.44531         57.4976         11.5663 
        1.46101         56.6265         11.2734 
        1.47667         56.5284         10.9916 
        1.49229          55.642         10.7202 
        1.50793         54.9861         10.4577 
        1.52367         54.0785         10.2023 
        1.53953         53.5812         9.95371 
        1.55526         52.9072         9.71544 
        1.57092         52.5757         9.48596 
        1.58662         51.7619         9.26337 
        1.60235         51.2317         9.04751 
        1.61809         50.4787         8.83844 
        1.63369         49.6625         8.63784 
        1.64941         49.1373         8.44205 
        1.66519         48.4119         8.25163 
        1.68085         48.0591         8.06846 
        1.69652         47.3378          7.8908 
        1.71228         47.0457         7.71749 
        1.72806         46.5761         7.54927 
        1.74368         45.8491         7.38775 
        1.75933         45.4078         7.23065 
        1.77505         44.9529         7.07739 
        1.79081         44.3653         6.92831 
         1.8065         43.9469         6.78417 
        1.82218         43.4024         6.64426 
        1.83797         42.8219         6.50735 
        1.85367         42.2444         6.37506 
        1.86928         41.9197         6.24725 
        1.88497         41.5912         6.12225 
        1.90073         41.1152         6.00022 
        1.91647         40.6428         5.88162 
        1.93218         40.2105         5.76649 
        1.94787         39.8118         5.65461 
        1.96363         39.3779         5.54527 
        1.97935         38.8708         5.43904 
        1.99499         38.4698          5.3362 
        2.01064         38.1826         5.23588 
         2.0264         37.5667         5.13751 
        2.04216         37.1795         5.04171 
        2.05781          36.723         4.94897 
        2.07353          36.401         4.85823 
        2.08928         36.2496         4.76958 
        2.10499         35.7326         4.68337 
        2.12065         35.3166         4.59956 
        2.13633         35.1694         4.51773 
        2.15211         34.5885         4.43736 
        2.16785         34.0608         4.35918 
        2.18349         33.9285         4.28337 
        2.19916         33.6378          4.2092 
        2.21489         33.1205         4.13655 
        2.23063         32.8684         4.06557 
         2.2463         32.4605         3.99657 
        2.26194         32.1807         3.92935 
        2.27765         31.8633         3.86333 
        2.29341         31.5708         3.79866 
        2.30914         31.2949          3.7356 
        2.32486         30.8399         3.67401 
        2.34061         30.6732         3.61371 
        2.35635           30.38         3.55481 
        2.37203         30.1341         3.49744 
        2.38768          29.711         3.44145 
        2.40339         29.6021         3.38648 
        2.41914         29.2786         3.33259 
        2.43483         28.8407         3.28006 
         2.4505         28.6254         3.22875 
        2.46622         28.3967         3.17837 
        2.48195         28.1101         3.12905 
        2.49759         27.8431         3.08105 
        2.51328           27.49         3.03393 
        2.52906         27.3887          2.9875 
        2.54479           26.98         2.94221 
        2.56049         26.7023         2.89795 
        2.57618         26.4143         2.85464 
        2.59189         26.3174         2.81215 
        2.60758         26.0748         2.77059 
        2.62325         25.6734         2.72992 
        2.63898         25.6276         2.68993 
        2.65468         25.2308         2.65082 
        2.67044         25.0639         2.61233 
        2.68618         24.7408         2.57469 
        2.70184         24.5519         2.53793 
        2.71755         24.4056         2.50181 
        2.73329         24.1111         2.46633 
        2.74897         23.8224         2.43166 
        2.76462          23.696         2.39773 
        2.78034         23.5363         2.36431 
        2.79607         23.2577         2.33149 
        2.81179         23.0552         2.29933 
        2.82749         22.8485         2.26782 
        2.84321         22.6097         2.23686 
        2.85893         22.3598         2.20648 
        2.87462         22.1767         2.17673 
        2.89033         22.0501         2.14749 
        2.90605         21.8653         2.11877 
        2.92176         21.6246         2.09058 
        2.93747         21.4843         2.06293 
        2.95318         21.1879         2.03577 
        2.96891         21.0666         2.00908 
        2.98456         20.8127         1.98299 
        3.00023         20.6285         1.95733 
        3.01596         20.4858         1.93204 
        3.03164         20.2786         1.90727 
        3.04738         20.0916         1.88287 
         3.0631         19.9312         1.85889 
        3.07883         19.7585         1.83534 
        3.09456         19.5629         1.81219 
        3.11026         19.4046         1.78948 
        3.12596         19.2347         1.76717 
        3.14163         19.1096         1.74528 
        3.15734         18.8812         1.72371 
        3.17308         18.7359         1.70246 
        3.18879         18.5534         1.68162 
        3.20447         18.4012         1.66117 
         3.2202         18.2333         1.64099 
         3.2359         18.0405         1.62118 
        3.25157         17.9811         1.60174 
        3.26729         17.8526         1.58256 
        3.28304         17.6247         1.56366 
        3.29877         17.3585          1.5451 
        3.31446         17.3107         1.52687 
        3.33014         17.1456         1.50896 
        3.34585         16.9242          1.4913 
        3.36158         16.8575         1.47391 
        3.37727         16.6782         1.45684 
        3.39294         16.4772         1.44006 
        3.40867         16.3861         1.42348 
        3.42439         16.2279         1.40718 
        3.44008         16.0881         1.39116 
        3.45578         15.9568         1.37537 
        3.47153         15.8453          1.3598 
        3.48724         15.6816          1.3445 
        3.50292         15.5551         1.32947 
        3.51859         15.4529         1.31467 
        3.53431         15.3136         1.30005 
        3.55007         15.1833         1.28562 
        3.56577         15.0629         1.27147 
        3.58146         14.9306         1.25753 
        3.59719         14.7643         1.24378 
        3.61292         14.6641         1.23023 
        3.62859         14.5127         1.21693 
        3.64429         14.3998         1.20381 
        3.66003         14.2958         1.19084 
        3.67578         14.2125         1.17806 
        3.69146         14.0702         1.16552 
        3.70712         13.9186         1.15319 
        3.72284          13.853         1.14099 
        3.73853         13.7011         1.12898 
        3.75422           13.57         1.11715 
        3.76993          13.499         1.10547 
        3.78564         13.3335         1.09397 
        3.80137         13.2436         1.08261 
        3.81707         13.1461         1.07143 
        3.83279         12.9843         1.06041 
        3.84853          12.941         1.04952 
        3.86424           12.75          1.0388 
        3.87992         12.6989         1.02826 
        3.89561         12.6071         1.01785 
        3.91134         12.5117         1.00757 
        3.92704         12.3668        0.997445 
        3.94273         12.2793        0.987467 
        3.95845         12.2004        0.977608 
        3.97418          12.138        0.967881 
        3.98988         11.9935        0.958299 
        4.00554         11.9087        0.948873 
        4.02125         11.7644        0.939547 
        4.03698         11.7194        0.930332 
        4.05268         11.6047        0.921261 
        4.06839         11.5195        0.912305 
         4.0841         11.3957         0.90347 
        4.09983         11.3177         0.89474 
        4.11555         11.2304        0.886129 
        4.13124         11.1226        0.877654 
        4.14693         11.0621        0.869283 
        4.16266         10.9659        0.861002 
        4.17839         10.8702        0.852834 
        4.19408         10.7896         0.84479 
        4.20977         10.6871        0.836846 
        4.22551         10.6233        0.828985 
        4.24123         10.5432        0.821234 
        4.25691         10.4559        0.813603 
        4.27259         10.3527        0.806066 
        4.28831         10.2814        0.798609 
        4.30404         10.1937         0.79124 
        4.31974          10.133        0.783979 
        4.33543          10.028        0.776814 
        4.35116         9.95645        0.769721 
        4.36688         9.86592        0.762719 
        4.38255         9.80543        0.755831 
        4.39825         9.74504        0.749012 
        4.41398         9.63798        0.742264 
         4.4297         9.57191        0.735606 
        4.44541          9.4865        0.729031 
        4.46111         9.43545        0.722542 
        4.47683         9.37809        0.716126 
        4.49251         9.29763        0.709802 
        4.50819         9.19972        0.703556 
         4.5239         9.15032        0.697375 
        4.53962         9.10506        0.691262 
        4.55535         9.00117        0.685218 
        4.57106         8.93134        0.679256 
        4.58678         8.84591        0.673363 
         4.6025           8.772        0.667538 
        4.61821         8.71849        0.661783 
        4.63391         8.65319        0.656104 
         4.6496         8.60543        0.650494 
        4.66532         8.52324         0.64494 
        4.68103         8.46106        0.639454 
        4.69673         8.39625        0.634036 
        4.71241         8.33234        0.628687 
        4.72811         8.25817        0.623391 
        4.74384         8.22666        0.618149 
        4.75955          8.1555        0.612975 
        4.77525         8.09643        0.607863 
        4.79096         8.04474        0.602803 
        4.80669         7.97231        0.597798 
         4.8224         7.91236        0.592856 
        4.83809         7.85142        0.587975 
        4.85379         7.77905        0.583146 
         4.8695         7.73369        0.578367 
        4.88521         7.68529        0.573644 
        4.90093         7.62568        0.568972 
        4.91663         7.54299        0.564357 
        4.93234         7.50803        0.559788 
        4.94807         7.43784        0.555267 
        4.96377         7.39763        0.550803 
        4.97943         7.35808        0.546399 
        4.99514         7.28681        0.542031 
        5.01086         7.22335        0.537707 
        5.02654         7.17748        0.533442 
        5.04227         7.13866         0.52921 
          5.058          7.0901        0.525023 
        5.07371         7.04079        0.520889 
        5.08942         6.97215        0.516798 
        5.10513         6.92917        0.512751 
        5.12084          6.8757        0.508746 
        5.13656          6.8248        0.504784 
        5.15225          6.7774        0.500871 
        5.16796         6.74911        0.496993 
        5.18369          6.6842        0.493152 
         5.1994         6.63097        0.489359 
        5.21509         6.58131         0.48561 
        5.23079         6.54107        0.481895 
        5.24649          6.5138        0.478222 
        5.26217         6.45859        0.474589 
        5.27788         6.40155         0.47099 
        5.29359          6.3743        0.467427 
        5.30933         6.32457        0.463895 
        5.32504         6.28863        0.460406 
        5.34073         6.23163        0.456957 
        5.35646         6.17984        0.453536 
        5.37218         6.15302         0.45015 
        5.38789         6.12386        0.446803 
        5.40357         6.06101        0.443494 
        5.41929         6.03063        0.440212 
        5.43502         5.98559        0.436962 
         5.4507         5.94815        0.433753 
        5.46639         5.89724        0.430575 
        5.48212         5.85791        0.427422 
        5.49786         5.83507        0.424297 
        5.51353         5.77997        0.421219 
        5.52921         5.75255        0.418168 
        5.54495         5.70371        0.415138 
        5.56066         5.66878        0.412141 
        5.57637         5.62921        0.409175 
        5.59207         5.59119         0.40624 
        5.60778         5.54661        0.403333 
        5.62346         5.52023        0.400458 
        5.63916         5.47938        0.397608 
        5.65487         5.43924        0.394785 
         5.6706         5.41475        0.391986 
        5.68633         5.37148        0.389213 
        5.70203          5.3346        0.386473 
        5.71773         5.31734        0.383759 
        5.73344         5.26782         0.38107 
        5.74916         5.23224        0.378404 
        5.76486         5.20238        0.375768 
        5.78054         5.16731         0.37316 
        5.79626         5.12811         0.37057 
          5.812           5.098        0.368002 
         5.8277         5.05818        0.365466 
        5.84339         5.03384        0.362953 
        5.85911         5.00156         0.36046 
        5.87484         4.97442         0.35799 
        5.89053         4.93915        0.355548 
        5.90623         4.90396        0.353128 
        5.92195         4.87364        0.350726 
        5.93767         4.83028        0.348348 
        5.95336         4.81445        0.345996 
        5.96905         4.78464        0.343666 
        5.98476         4.75467        0.341355 
        6.00048         4.72056        0.339064 
        6.01617         4.69229        0.336797 
        6.03185         4.65607        0.334554 
        6.04756         4.62962        0.332325 
        6.06331         4.60014        0.330112 
        6.07903         4.57009        0.327924 
        6.09473         4.53782        0.325758 
        6.11044         4.50258        0.323609 
        6.12616         4.48849         0.32148 
        6.14186         4.45562        0.319373 
        6.15755         4.43082        0.317284 
        6.17326         4.40943        0.315213 
        6.18898         4.37417        0.313158 
        6.20467         4.34668        0.311126 
        6.22036          4.3284        0.309112 
         6.2361         4.29285        0.307111 
         6.2518         4.27245         0.30513 
        6.26748          4.2435        0.303171 
        6.28319         4.21748        0.301224 
        6.29893         4.19577        0.299293 
        6.31463         4.16997        0.297381 
        6.33033         4.13473        0.295487 
        6.34604         4.12198        0.293608 
        6.36177         4.09072        0.291744 
        6.37747         4.07504        0.289899 
