# k  (h/Mpc)    Pcb(k)  (Mpc/h)^3    Pcb_linear(k) (Mpc/h)^3   ShotnoiseSubtracted = true
      0.0200456         4254.97         4311.27 
      0.0350414         3194.12         3134.15 
      0.0492313         2276.32         2277.21 
      0.0637834         1854.63         1893.03 
      0.0800726         1465.91         1502.45 
       0.096163         1117.76         1090.16 
       0.111083         902.463         869.538 
       0.126058         765.686         770.588 
       0.142273         650.889         652.857 
       0.158546         529.005          515.62 
        0.17375         455.515          434.41 
       0.188953          412.88         393.348 
       0.204907         351.754         348.033 
       0.220756         311.626         294.457 
        0.23588          273.64         256.152 
         0.2514         246.529         232.711 
       0.267535         231.968         210.564 
       0.283568         202.802         185.689 
       0.299022         188.099         165.439 
       0.314451         180.035           151.2 
       0.330372         158.468         138.709 
       0.346141         145.752           125.9 
       0.361624         135.671         114.426 
       0.377134         123.948          105.29 
       0.392932         120.444         97.4225 
       0.408854         111.946         89.8048 
       0.424564         106.678         82.7743 
       0.440253         97.0296         76.7414 
       0.455999          89.548         71.4955 
       0.471626         85.7546         66.6746 
        0.48727         83.2448         62.1649 
       0.502856         76.8449         58.1137 
       0.518488         73.6432         54.4989 
       0.534347         69.4709         51.1384 
       0.550082         67.1268         48.0398 
       0.565732         64.9705         45.2051 
       0.581496         60.3208         42.6089 
       0.597222         57.9435         40.2278 
       0.612804         55.7995         38.0384 
       0.628434         54.6273         35.9976 
       0.644267         51.6508         34.0897 
       0.660051         49.5407         32.3312 
       0.675724         47.7203         30.7075 
       0.691403         46.9137         29.1939 
       0.707174         45.2372         27.7739 
       0.722871         43.8288         26.4539 
        0.73838         41.8528         25.2338 
       0.754018         39.7097         24.0815 
       0.769845         39.1182         22.9886 
        0.78569         37.7141         21.9626 
       0.801365         36.6559         21.0094 
       0.817031         35.2338         20.1137 
       0.832809         34.5973         19.2648 
       0.848511         33.4876         18.4689 
       0.864097         32.6721         17.7237 
       0.879701         32.0802          17.019 
       0.895507         30.8857         16.3446 
       0.911279         29.9319         15.7083 
        0.92691          29.394         15.1112 
       0.942635         28.7644         14.5421 
       0.958396         28.1312         14.0011 
       0.974128         27.3618         13.4888 
       0.989692         26.3134         13.0073 
        1.00528         26.0873         12.5487 
        1.02113         25.3542         12.1052 
        1.03692         24.8938         11.6847 
        1.05264         24.3774         11.2863 
        1.06832         23.9306         10.9071 
        1.08405         23.2418         10.5445 
        1.09979         22.9315         10.1981 
        1.11537         22.2283         9.87082 
        1.13105         21.8935           9.556 
        1.14679         21.3487         9.25375 
        1.16256         21.0372         8.96403 
        1.17828         20.7008         8.68771 
        1.19395         20.3372         8.42402 
         1.2097         19.8843         8.16996 
        1.22537         19.5355         7.92765 
          1.241         19.1478         7.69594 
        1.25666         18.9092         7.47293 
        1.27241         18.5858         7.25776 
        1.28819         17.8835         7.05071 
        1.30392          18.082         6.85238 
        1.31957         17.5945         6.66258 
        1.33529         17.2816          6.4793 
        1.35108          17.101          6.3022 
        1.36674         16.7603         6.13302 
         1.3824         16.4591         5.97021 
        1.39811         16.1566          5.8128 
        1.41389         15.9639         5.66047 
        1.42964         15.7603         5.51388 
        1.44531         15.5165          5.3732 
        1.46101         15.3034         5.23715 
        1.47667         15.0655         5.10623 
        1.49229         14.7336         4.98015 
        1.50793          14.618         4.85819 
        1.52367         14.4434         4.73954 
        1.53953         14.2112         4.62407 
        1.55526         13.9501         4.51338 
        1.57092         13.9213         4.40677 
        1.58662         13.6942         4.30337 
        1.60235         13.4819         4.20309 
        1.61809         13.3284         4.10596 
        1.63369         13.1039         4.01277 
        1.64941         12.9646         3.92181 
        1.66519         12.7847         3.83335 
        1.68085         12.5422         3.74826 
        1.69652         12.5592         3.66573 
        1.71228         12.3188         3.58522 
        1.72806         12.1366         3.50707 
        1.74368         12.0218         3.43203 
        1.75933          11.913         3.35905 
        1.77505         11.7325         3.28785 
        1.79081         11.6051         3.21859 
         1.8065         11.5295         3.15163 
        1.82218         11.4108         3.08664 
        1.83797         11.2672         3.02304 
        1.85367         11.1545         2.96158 
        1.86928         11.0063          2.9022 
        1.88497         10.9029         2.84413 
        1.90073         10.7406         2.78744 
        1.91647         10.5032         2.73235 
        1.93218         10.5135         2.67886 
        1.94787         10.3232         2.62689 
        1.96363         10.2719         2.57609 
        1.97935         10.1812         2.52675 
        1.99499         10.0477         2.47897 
        2.01064         9.94215         2.43236 
         2.0264         9.80396         2.38667 
        2.04216          9.8327         2.34216 
        2.05781         9.70248         2.29908 
        2.07353         9.57458         2.25693 
        2.08928         9.44188         2.21574 
        2.10499         9.35197         2.17569 
        2.12065         9.30619         2.13676 
        2.13633         9.17906         2.09874 
        2.15211         9.10665         2.06141 
        2.16785         8.97007         2.02509 
        2.18349         8.92748         1.98987 
        2.19916         8.82902         1.95542 
        2.21489         8.76398         1.92166 
        2.23063         8.71274         1.88869 
         2.2463         8.55995         1.85664 
        2.26194         8.49173         1.82541 
        2.27765         8.40943         1.79474 
        2.29341         8.29006         1.76469 
        2.30914         8.29625          1.7354 
        2.32486         8.19034         1.70679 
        2.34061         8.14112         1.67877 
        2.35635         8.04223         1.65141 
        2.37203         7.95892         1.62476 
        2.38768         7.88607         1.59875 
        2.40339         7.83831         1.57321 
        2.41914         7.76364         1.54818 
        2.43483         7.73194         1.52377 
         2.4505         7.64436         1.49994 
        2.46622         7.54476         1.47653 
        2.48195         7.54767         1.45362 
        2.49759         7.40253         1.43132 
        2.51328         7.38496         1.40943 
        2.52906         7.30046         1.38786 
        2.54479         7.23492         1.36682 
        2.56049         7.17738         1.34626 
        2.57618         7.13863         1.32614 
        2.59189          7.1362          1.3064 
        2.60758         7.01765          1.2871 
        2.62325         6.94542         1.26821 
        2.63898         6.95584         1.24963 
        2.65468         6.85161         1.23146 
        2.67044         6.80574         1.21358 
        2.68618         6.72798         1.19609 
        2.70184         6.71869         1.17902 
        2.71755         6.63438         1.16223 
        2.73329         6.55967         1.14575 
        2.74897         6.53406         1.12965 
        2.76462         6.49994         1.11388 
        2.78034          6.4383         1.09836 
        2.79607         6.39832         1.08311 
        2.81179         6.33517         1.06817 
        2.82749         6.27252         1.05353 
        2.84321         6.24063         1.03915 
        2.85893         6.19901         1.02504 
        2.87462         6.16045         1.01121 
        2.89033         6.09562        0.997633 
        2.90605         6.06384        0.984289 
        2.92176         5.99731        0.971196 
        2.93747          5.9603        0.958348 
        2.95318         5.90619         0.94573 
        2.96891         5.86421        0.933334 
        2.98456         5.82693        0.921214 
        3.00023         5.80578        0.909292 
        3.01596         5.71657        0.897544 
        3.03164         5.69506        0.886037 
        3.04738         5.66332        0.874698 
         3.0631         5.62621        0.863562 
        3.07883         5.57808        0.852619 
        3.09456         5.50894        0.841867 
        3.11026         5.49585        0.831317 
        3.12596         5.45296         0.82095 
        3.14163         5.42583        0.810783 
        3.15734         5.37636        0.800764 
        3.17308         5.36435         0.79089 
        3.18879          5.3093         0.78121 
        3.20447         5.27374        0.771707 
         3.2202         5.22457        0.762331 
         3.2359         5.18832        0.753129 
        3.25157         5.16468          0.7441 
        3.26729         5.13123        0.735191 
        3.28304         5.08926        0.726411 
        3.29877         5.06432        0.717786 
        3.31446         5.04171         0.70932 
        3.33014         4.98002        0.700998 
        3.34585         4.95925        0.692796 
        3.36158         4.91895        0.684714 
        3.37727         4.88896        0.676785 
        3.39294         4.85801         0.66899 
        3.40867         4.83192        0.661289 
        3.42439         4.77583        0.653714 
        3.44008         4.75595        0.646272 
        3.45578         4.72269         0.63894 
        3.47153         4.68595        0.631706 
        3.48724         4.66208        0.624596 
        3.50292         4.62955        0.617613 
        3.51859         4.59689        0.610739 
        3.53431         4.57199        0.603949 
        3.55007         4.54595        0.597246 
        3.56577         4.49375         0.59067 
        3.58146         4.47793        0.584197 
        3.59719         4.45509        0.577805 
        3.61292         4.42681        0.571512 
        3.62859         4.39986        0.565335 
        3.64429         4.36644        0.559238 
        3.66003         4.34645        0.553213 
        3.67578          4.3212        0.547278 
        3.69146         4.28462        0.541453 
        3.70712         4.27377        0.535723 
        3.72284         4.23868        0.530054 
        3.73853         4.20262        0.524478 
        3.75422         4.17322         0.51898 
        3.76993          4.1621        0.513555 
        3.78564         4.13001        0.508211 
        3.80137         4.09731        0.502934 
        3.81707         4.07383        0.497742 
        3.83279         4.05071         0.49262 
        3.84853         4.01283        0.487562 
        3.86424         3.99718        0.482584 
        3.87992           3.976        0.477683 
        3.89561         3.94819        0.472851 
        3.91134         3.92067        0.468075 
        3.92704         3.88784         0.46337 
        3.94273         3.87557        0.458735 
        3.95845         3.84209        0.454155 
        3.97418         3.82511        0.449636 
        3.98988         3.80197        0.445185 
        4.00554         3.77388        0.440806 
        4.02125         3.74161        0.436473 
        4.03698         3.72279        0.432192 
        4.05268         3.69632        0.427979 
        4.06839         3.67609        0.423818 
         4.0841         3.64991        0.419713 
        4.09983         3.63023        0.415658 
        4.11555         3.60464        0.411657 
        4.13124         3.58333         0.40772 
        4.14693         3.56718        0.403832 
        4.16266         3.53662        0.399985 
        4.17839         3.51491         0.39619 
        4.19408         3.49801        0.392453 
        4.20977         3.47862        0.388763 
        4.22551         3.44644        0.385111 
        4.24123         3.42271         0.38151 
        4.25691         3.40771        0.377965 
        4.27259         3.38331        0.374463 
        4.28831         3.35453        0.370999 
        4.30404         3.34987        0.367576 
        4.31974         3.32114        0.364203 
        4.33543         3.30294        0.360874 
        4.35116         3.28395        0.357579 
        4.36688         3.26458        0.354327 
        4.38255         3.24709        0.351126 
        4.39825         3.22574        0.347959 
        4.41398         3.20801        0.344824 
         4.4297         3.18995        0.341731 
        4.44541         3.16704        0.338677 
        4.46111         3.13902        0.335662 
        4.47683         3.12304        0.332682 
        4.49251         3.11041        0.329744 
        4.50819         3.08753        0.326842 
         4.5239         3.07075        0.323971 
        4.53962         3.04697         0.32113 
        4.55535         3.03472        0.318323 
        4.57106         3.01522        0.315553 
        4.58678         2.99604        0.312815 
         4.6025         2.98635         0.31011 
        4.61821         2.96709        0.307436 
        4.63391         2.94216        0.304798 
         4.6496         2.92812        0.302191 
        4.66532          2.9168        0.299612 
        4.68103          2.8931        0.297063 
        4.69673         2.88191        0.294546 
        4.71241         2.86481        0.292061 
        4.72811         2.84466        0.289601 
        4.74384         2.83655        0.287165 
        4.75955         2.81045        0.284762 
        4.77525         2.79633        0.282387 
        4.79096         2.78263        0.280036 
        4.80669         2.76835        0.277712 
         4.8224         2.75134        0.275416 
        4.83809         2.74251        0.273148 
        4.85379         2.72197        0.270905 
         4.8695         2.70797        0.268684 
        4.88521         2.68653         0.26649 
        4.90093         2.67874         0.26432 
        4.91663         2.66493        0.262176 
        4.93234         2.65023        0.260053 
        4.94807         2.63373        0.257953 
        4.96377         2.61915         0.25588 
        4.97943         2.61048        0.253833 
        4.99514          2.5885        0.251804 
        5.01086         2.57541        0.249796 
        5.02654         2.56198        0.247814 
        5.04227         2.54998        0.245848 
          5.058         2.54032        0.243903 
        5.07371         2.52558        0.241982 
        5.08942          2.5083        0.240082 
        5.10513         2.49739        0.238202 
        5.12084         2.48136        0.236341 
        5.13656         2.46899        0.234501 
        5.15225         2.45205        0.232683 
        5.16796         2.44281        0.230881 
        5.18369         2.42802        0.229097 
         5.1994         2.41556        0.227335 
        5.21509         2.40426        0.225593 
        5.23079         2.39827        0.223868 
        5.24649         2.38175        0.222161 
        5.26217         2.36758        0.220474 
        5.27788           2.356        0.218802 
        5.29359          2.3478        0.217146 
        5.30933         2.33333        0.215506 
        5.32504         2.32232        0.213885 
        5.34073         2.30692        0.212283 
        5.35646         2.29573        0.210693 
        5.37218         2.28748         0.20912 
        5.38789         2.26983        0.207566 
        5.40357         2.26284        0.206028 
        5.41929         2.25378        0.204504 
        5.43502         2.24188        0.202994 
         5.4507          2.2271        0.201503 
        5.46639         2.21416        0.200027 
        5.48212         2.20578        0.198562 
        5.49786         2.19408         0.19711 
        5.51353         2.18447         0.19568 
        5.52921          2.1704        0.194263 
        5.54495         2.16231        0.192855 
        5.56066         2.15215        0.191463 
        5.57637         2.13846        0.190085 
        5.59207          2.1312        0.188722 
        5.60778         2.12481        0.187371 
        5.62346         2.10823        0.186036 
        5.63916         2.09603        0.184712 
        5.65487          2.0864          0.1834 
         5.6706         2.08079          0.1821 
        5.68633           2.068        0.180812 
        5.70203         2.05989        0.179539 
        5.71773          2.0475        0.178278 
        5.73344         2.03922        0.177029 
        5.74916         2.02948         0.17579 
        5.76486         2.01968        0.174566 
        5.78054            2.01        0.173354 
        5.79626         2.00061        0.172151 
          5.812         1.98661        0.170958 
         5.8277         1.98093         0.16978 
        5.84339         1.97241        0.168613 
        5.85911         1.96161        0.167454 
        5.87484         1.95211        0.166307 
        5.89053          1.9477        0.165172 
        5.90623         1.93853        0.164048 
        5.92195         1.92303        0.162932 
        5.93767         1.92066        0.161828 
        5.95336         1.90946        0.160735 
        5.96905         1.90334        0.159653 
        5.98476          1.8908        0.158579 
        6.00048         1.87971        0.157515 
        6.01617         1.87573        0.156461 
        6.03185         1.86618        0.155419 
        6.04756         1.85847        0.154384 
        6.06331         1.85003        0.153356 
        6.07903          1.8402         0.15234 
        6.09473         1.83167        0.151333 
        6.11044          1.8286        0.150335 
        6.12616         1.81748        0.149346 
        6.14186          1.8081        0.148367 
        6.15755         1.79666        0.147397 
        6.17326         1.79028        0.146434 
        6.18898         1.78617         0.14548 
        6.20467         1.77699        0.144536 
        6.22036         1.77008          0.1436 
         6.2361         1.76286         0.14267 
         6.2518         1.75457         0.14175 
        6.26748          1.7486         0.14084 
        6.28319         1.73989        0.139936 
        6.29893         1.72916        0.139039 
        6.31463         1.72375        0.138151 
        6.33033         1.71621        0.137271 
        6.34604         1.70846        0.136398 
        6.36177         1.70425        0.135532 
        6.37747         1.69606        0.134675 
