# k  (h/Mpc)    Pcb(k)  (Mpc/h)^3    Pcb_linear(k) (Mpc/h)^3   ShotnoiseSubtracted = true
      0.0200456         12239.7         12424.6 
      0.0350414          9274.5         9032.23 
      0.0492313         6495.88         6562.65 
      0.0637834         5254.78         5455.47 
      0.0800726         4138.69         4329.87 
       0.096163         3251.11          3141.7 
       0.111083         2642.36          2505.9 
       0.126058         2201.17         2220.74 
       0.142273         1900.17         1881.45 
       0.158546         1560.34         1485.95 
        0.17375         1366.65         1251.91 
       0.188953         1267.76         1133.58 
       0.204907         1083.35         1002.99 
       0.220756         971.492         848.588 
        0.23588         863.596         738.198 
         0.2514         773.559         670.645 
       0.267535         750.125         606.819 
       0.283568         656.064         535.133 
       0.299022         625.546         476.776 
       0.314451         633.042         435.741 
       0.330372         544.254         399.743 
       0.346141         504.172         362.828 
       0.361624         481.748         329.761 
       0.377134         451.252         303.432 
       0.392932         437.418          280.76 
       0.408854         416.045         258.806 
       0.424564         402.237         238.545 
       0.440253         364.199         221.159 
       0.455999         348.658         206.041 
       0.471626          350.14         192.148 
        0.48727         332.092         179.152 
       0.502856         305.174         167.476 
       0.518488         306.255         157.059 
       0.534347           284.7         147.374 
       0.550082         276.315         138.445 
       0.565732         274.742         130.275 
       0.581496         260.788         122.793 
       0.597222         253.799         115.932 
       0.612804         246.951         109.622 
       0.628434         237.916         103.741 
       0.644267         227.502         98.2422 
       0.660051         223.646         93.1746 
       0.675724         221.084         88.4952 
       0.691403         215.168         84.1333 
       0.707174         207.685         80.0408 
       0.722871         204.508         76.2368 
        0.73838         202.658         72.7207 
       0.754018         191.928         69.3998 
       0.769845         191.808         66.2503 
        0.78569         186.869         63.2935 
       0.801365         181.664         60.5466 
       0.817031         177.519         57.9653 
       0.832809         174.615         55.5188 
       0.848511         170.368         53.2251 
       0.864097         166.732         51.0774 
       0.879701         165.467         49.0468 
       0.895507         161.373         47.1031 
       0.911279         156.788         45.2692 
        0.92691         154.431         43.5486 
       0.942635         152.272         41.9084 
       0.958396         149.573         40.3496 
       0.974128         146.569         38.8732 
       0.989692         142.619         37.4856 
        1.00528         141.522         36.1639 
        1.02113         138.096         34.8855 
        1.03692         136.668         33.6739 
        1.05264         134.873         32.5257 
        1.06832         132.239          31.433 
        1.08405         130.013         30.3878 
        1.09979         129.214         29.3897 
        1.11537         126.104         28.4465 
        1.13105         124.836         27.5392 
        1.14679         122.708         26.6681 
        1.16256         120.546         25.8332 
        1.17828         119.288         25.0369 
        1.19395         116.414          24.277 
         1.2097         115.688         23.5448 
        1.22537         113.483         22.8465 
          1.241         112.445         22.1787 
        1.25666         109.482         21.5361 
        1.27241         107.663         20.9159 
        1.28819         107.199         20.3193 
        1.30392         105.228         19.7477 
        1.31957         103.645         19.2007 
        1.33529         102.478         18.6725 
        1.35108         101.678         18.1622 
        1.36674         99.6873         17.6746 
         1.3824          99.359         17.2054 
        1.39811         96.7996         16.7518 
        1.41389         95.9076         16.3128 
        1.42964         94.0565         15.8903 
        1.44531         93.3649         15.4849 
        1.46101         92.0993         15.0928 
        1.47667         91.3937         14.7155 
        1.49229         90.4165         14.3522 
        1.50793          88.743         14.0007 
        1.52367         88.0152         13.6588 
        1.53953         86.8787          13.326 
        1.55526         85.4443          13.007 
        1.57092         85.1179         12.6998 
        1.58662         83.9145         12.4018 
        1.60235         82.5692         12.1128 
        1.61809         81.7232         11.8329 
        1.63369         80.4358         11.5643 
        1.64941         80.4659         11.3022 
        1.66519         78.6201         11.0472 
        1.68085         77.7756          10.802 
        1.69652         76.4457         10.5642 
        1.71228         75.6632         10.3321 
        1.72806         75.2747         10.1069 
        1.74368         74.0012         9.89069 
        1.75933         73.3452         9.68036 
        1.77505          72.705         9.47518 
        1.79081         71.4263         9.27559 
         1.8065         71.1866         9.08261 
        1.82218         69.5527         8.89531 
        1.83797         69.2422         8.71201 
        1.85367         68.1757          8.5349 
        1.86928         67.5551         8.36379 
        1.88497         66.8503         8.19644 
        1.90073         65.9692         8.03306 
        1.91647         65.1801         7.87429 
        1.93218         64.5615         7.72015 
        1.94787          63.701         7.57037 
        1.96363         62.9258         7.42398 
        1.97935         62.2644         7.28177 
        1.99499         61.6491         7.14409 
        2.01064         61.0009         7.00977 
         2.0264         60.2763         6.87807 
        2.04216         59.5478         6.74982 
        2.05781         58.8406         6.62566 
        2.07353         58.1438         6.50418 
        2.08928         57.5425         6.38549 
        2.10499         56.9545         6.27008 
        2.12065          56.421         6.15787 
        2.13633         55.9399         6.04831 
        2.15211         55.1066         5.94072 
        2.16785         54.3042         5.83605 
        2.18349         53.7903         5.73455 
        2.19916         53.1698         5.63526 
        2.21489         52.8468           5.538 
        2.23063          52.022         5.44297 
         2.2463         51.5862         5.35059 
        2.26194         51.2816          5.2606 
        2.27765         50.4576         5.17221 
        2.29341         49.7806         5.08563 
        2.30914         49.2565          5.0012 
        2.32486         48.6789         4.91875 
        2.34061         48.3741         4.83802 
        2.35635         47.5972         4.75917 
        2.37203         47.2016         4.68235 
        2.38768         46.8512         4.60739 
        2.40339         46.3447         4.53381 
        2.41914         45.8774         4.46165 
        2.43483         45.0802         4.39133 
         2.4505         44.8955         4.32264 
        2.46622         44.4159         4.25518 
        2.48195         43.8445         4.18916 
        2.49759         43.3642         4.12489 
        2.51328         43.0207         4.06181 
        2.52906           42.52         3.99965 
        2.54479         42.1723         3.93902 
        2.56049         41.4652         3.87976 
        2.57618         41.2278         3.82178 
        2.59189         40.7631         3.76489 
        2.60758         40.2024         3.70926 
        2.62325         40.1023         3.65481 
        2.63898         39.5357         3.60127 
        2.65468         39.1672         3.54891 
        2.67044          38.868         3.49737 
        2.68618         38.4985         3.44698 
        2.70184         37.8797         3.39778 
        2.71755         37.6672         3.34941 
        2.73329         37.0474         3.30192 
        2.74897         36.8325          3.2555 
        2.76462         36.3368         3.21007 
        2.78034         36.0989         3.16533 
        2.79607         35.6229         3.12139 
        2.81179         35.3248         3.07834 
        2.82749         34.9685         3.03614 
        2.84321         34.5324         2.99469 
        2.85893         34.2223         2.95403 
        2.87462         33.9073         2.91419 
        2.89033         33.6423         2.87505 
        2.90605          33.301          2.8366 
        2.92176         33.0908         2.79887 
        2.93747         32.7292         2.76184 
        2.95318         32.3422         2.72548 
        2.96891         32.0558         2.68975 
        2.98456         31.7566         2.65482 
        3.00023         31.3662         2.62047 
        3.01596         31.1273         2.58661 
        3.03164         30.7589         2.55345 
        3.04738         30.5636         2.52077 
         3.0631         30.3033         2.48868 
        3.07883         29.8696         2.45714 
        3.09456         29.5329         2.42616 
        3.11026         29.2741         2.39575 
        3.12596         28.9881         2.36587 
        3.14163         28.7142         2.33657 
        3.15734         28.4589          2.3077 
        3.17308         28.1262         2.27925 
        3.18879         27.9071         2.25135 
        3.20447         27.6669         2.22396 
         3.2202         27.3192         2.19694 
         3.2359         27.0673         2.17042 
        3.25157         26.9031          2.1444 
        3.26729         26.6473         2.11873 
        3.28304         26.2504         2.09343 
        3.29877         26.0222         2.06857 
        3.31446         25.8082         2.04417 
        3.33014         25.6041         2.02019 
        3.34585         25.3594         1.99655 
        3.36158         25.1362         1.97326 
        3.37727         24.8439         1.95041 
        3.39294         24.6465         1.92795 
        3.40867         24.4234         1.90575 
        3.42439          24.203         1.88392 
        3.44008         23.9364         1.86247 
        3.45578          23.828         1.84134 
        3.47153         23.4965          1.8205 
        3.48724         23.3161         1.80001 
        3.50292         23.0953         1.77988 
        3.51859         22.9001         1.76007 
        3.53431         22.6949         1.74051 
        3.55007         22.4741         1.72119 
        3.56577         22.3058         1.70224 
        3.58146         22.0711         1.68358 
        3.59719         21.8392         1.66516 
        3.61292         21.6603         1.64702 
        3.62859         21.4359         1.62923 
        3.64429         21.1984         1.61165 
        3.66003         21.1466         1.59429 
        3.67578         20.9295         1.57719 
        3.69146         20.6632          1.5604 
        3.70712         20.5362         1.54389 
        3.72284         20.3192         1.52755 
        3.73853         20.1581         1.51148 
        3.75422         19.9479         1.49563 
        3.76993         19.8051            1.48 
        3.78564         19.6368          1.4646 
        3.80137         19.4622         1.44939 
        3.81707         19.2915         1.43443 
        3.83279         19.0817         1.41967 
        3.84853         18.9143         1.40509 
        3.86424         18.7442         1.39075 
        3.87992         18.5677         1.37662 
        3.89561         18.4527          1.3627 
        3.91134          18.236         1.34893 
        3.92704         18.1092         1.33537 
        3.94273         17.9635         1.32202 
        3.95845         17.7933         1.30882 
        3.97418         17.6132         1.29579 
        3.98988         17.4679         1.28297 
        4.00554         17.3973         1.27035 
        4.02125         17.1427         1.25786 
        4.03698         16.9671         1.24552 
        4.05268         16.8986         1.23338 
        4.06839         16.7531         1.22139 
         4.0841         16.5896         1.20956 
        4.09983         16.4094         1.19787 
        4.11555         16.2981         1.18634 
        4.13124         16.1924           1.175 
        4.14693         16.0792         1.16379 
        4.16266         15.9324         1.15271 
        4.17839         15.7608         1.14177 
        4.19408          15.616           1.131 
        4.20977         15.5133         1.12037 
        4.22551         15.3714         1.10984 
        4.24123         15.2291         1.09946 
        4.25691         15.0728         1.08925 
        4.27259          14.992         1.07916 
        4.28831         14.9103         1.06917 
        4.30404           14.74         1.05931 
        4.31974         14.6355         1.04959 
        4.33543         14.4898            1.04 
        4.35116          14.364          1.0305 
        4.36688         14.2492         1.02113 
        4.38255         14.1462          1.0119 
        4.39825         14.0011         1.00277 
        4.41398         13.9268         0.99374 
         4.4297         13.7746        0.984827 
        4.44541         13.6714        0.976024 
        4.46111         13.5842        0.967336 
        4.47683         13.4544        0.958747 
        4.49251         13.3475         0.95028 
        4.50819         13.2441        0.941917 
         4.5239         13.1461        0.933643 
        4.53962         13.0467        0.925458 
        4.55535         12.9182        0.917367 
        4.57106         12.8263        0.909384 
        4.58678         12.7369        0.901495 
         4.6025         12.6306        0.893697 
        4.61821         12.5241        0.885993 
        4.63391         12.4293        0.878389 
         4.6496         12.3209        0.870878 
        4.66532          12.235        0.863443 
        4.68103         12.1207        0.856098 
        4.69673          12.004        0.848845 
        4.71241         11.9483        0.841684 
        4.72811         11.8734        0.834593 
        4.74384         11.7343        0.827575 
        4.75955          11.676        0.820648 
        4.77525         11.5842        0.813804 
        4.79096         11.5152         0.80703 
        4.80669         11.4111         0.80033 
         4.8224         11.3301        0.793713 
        4.83809         11.2252        0.787178 
        4.85379         11.1351        0.780713 
         4.8695         11.0375        0.774315 
        4.88521         10.9765        0.767991 
        4.90093         10.9028        0.761737 
        4.91663         10.7863        0.755559 
        4.93234         10.7101        0.749442 
        4.94807         10.6334        0.743388 
        4.96377         10.5638        0.737413 
        4.97943         10.4763        0.731516 
        4.99514         10.3571        0.725669 
        5.01086         10.3372         0.71988 
        5.02654         10.2586         0.71417 
        5.04227         10.1429        0.708505 
          5.058         10.0895        0.702898 
        5.07371         9.99752        0.697363 
        5.08942          9.9533        0.691887 
        5.10513         9.85667        0.686469 
        5.12084         9.80877        0.681106 
        5.13656         9.71249        0.675802 
        5.15225         9.62383        0.670563 
        5.16796         9.56625        0.665371 
        5.18369          9.4968         0.66023 
         5.1994         9.43035        0.655152 
        5.21509         9.34909        0.650132 
        5.23079         9.28134        0.645159 
        5.24649         9.20359        0.640241 
        5.26217         9.13279        0.635378 
        5.27788         9.10646        0.630559 
        5.29359         9.00344        0.625789 
        5.30933         8.96067        0.621061 
        5.32504         8.90101         0.61639 
        5.34073         8.83539        0.611772 
        5.35646         8.75432        0.607192 
        5.37218         8.70089        0.602658 
        5.38789         8.61369        0.598178 
        5.40357         8.55985        0.593748 
        5.41929         8.52642        0.589354 
        5.43502          8.4527        0.585003 
         5.4507         8.38826        0.580706 
        5.46639         8.32952        0.576453 
        5.48212         8.27909        0.572231 
        5.49786         8.21963        0.568047 
        5.51353         8.16041        0.563926 
        5.52921         8.10911        0.559841 
        5.54495         8.05009        0.555784 
        5.56066         7.97436        0.551773 
        5.57637          7.9378        0.547801 
        5.59207         7.88378        0.543872 
        5.60778         7.81675         0.53998 
        5.62346         7.75796        0.536131 
        5.63916         7.71362        0.532316 
        5.65487         7.67199        0.528537 
         5.6706         7.60272        0.524789 
        5.68633         7.55682        0.521077 
        5.70203         7.48843        0.517408 
        5.71773         7.45564        0.513775 
        5.73344         7.40571        0.510175 
        5.74916          7.3489        0.506606 
        5.76486         7.31031        0.503076 
        5.78054         7.24737        0.499585 
        5.79626         7.19051        0.496118 
          5.812         7.16505        0.492679 
         5.8277         7.09367        0.489284 
        5.84339         7.05041         0.48592 
        5.85911         6.99462        0.482582 
        5.87484         6.96021        0.479275 
        5.89053         6.91386        0.476006 
        5.90623         6.87754        0.472766 
        5.92195         6.82197        0.469551 
        5.93767         6.76953        0.466367 
        5.95336         6.72643        0.463218 
        5.96905         6.68391        0.460099 
        5.98476         6.63575        0.457004 
        6.00048         6.59909        0.453937 
        6.01617         6.55595        0.450902 
        6.03185         6.50515        0.447899 
        6.04756         6.46713        0.444915 
        6.06331         6.43015        0.441953 
        6.07903         6.37504        0.439024 
        6.09473         6.34387        0.436123 
        6.11044          6.3044        0.433247 
        6.12616         6.24548        0.430397 
        6.14186         6.21808        0.427575 
        6.15755         6.18512        0.424779 
        6.17326         6.13567        0.422005 
        6.18898         6.09963        0.419255 
        6.20467         6.05354        0.416535 
        6.22036         6.01864        0.413838 
         6.2361         5.98371        0.411159 
         6.2518         5.93409        0.408507 
        6.26748         5.91615        0.405884 
        6.28319         5.86803        0.403278 
        6.29893         5.83543        0.400692 
        6.31463          5.8015        0.398133 
        6.33033          5.7601        0.395597 
        6.34604         5.71674        0.393081 
        6.36177          5.6872        0.390585 
        6.37747         5.64878        0.388115 
