# k  (h/Mpc)    Pcb(k)  (Mpc/h)^3    Pcb_linear(k) (Mpc/h)^3   ShotnoiseSubtracted = true
      0.0200456         22967.1         23378.9 
      0.0350414         17536.9         16995.7 
      0.0492313         12065.9         12348.7 
      0.0637834         9725.11         10265.4 
      0.0800726         7629.12          8147.4 
       0.096163          6146.6         5911.65 
       0.111083         5006.79         4715.28 
       0.126058         4137.01          4178.7 
       0.142273         3630.02         3540.28 
       0.158546         2978.87         2796.08 
        0.17375         2669.71         2355.69 
       0.188953         2537.32         2133.03 
       0.204907         2184.28         1887.29 
       0.220756         1977.92         1596.76 
        0.23588         1766.78         1389.05 
         0.2514         1603.43         1261.93 
       0.267535         1546.12         1141.83 
       0.283568         1381.52         1006.94 
       0.299022         1317.47         897.135 
       0.314451         1374.32         819.921 
       0.330372         1220.27         752.185 
       0.346141         1121.19         682.723 
       0.361624         1076.58         620.501 
       0.377134         1034.45         570.959 
       0.392932         985.514         528.297 
       0.408854          946.88         486.988 
       0.424564         927.666         448.864 
       0.440253         862.789         416.149 
       0.455999          825.55         387.702 
       0.471626         839.949         361.559 
        0.48727         793.772         337.105 
       0.502856          765.07         315.135 
       0.518488          741.07         295.533 
       0.534347         714.036          277.31 
       0.550082         681.444         260.508 
       0.565732         671.467         245.136 
       0.581496         657.779         231.057 
       0.597222         645.287         218.145 
       0.612804         629.869         206.272 
       0.628434         604.568         195.206 
       0.644267         588.669          184.86 
       0.660051         582.686         175.324 
       0.675724         571.385         166.519 
       0.691403         554.353         158.311 
       0.707174         538.846         150.611 
       0.722871         534.089         143.453 
        0.73838         521.921         136.837 
       0.754018         510.244         130.588 
       0.769845         503.888         124.661 
        0.78569         493.337         119.098 
       0.801365           477.4         113.929 
       0.817031         473.545         109.072 
       0.832809          466.39         104.468 
       0.848511         459.051         100.152 
       0.864097         449.278         96.1109 
       0.879701          449.06         92.2899 
       0.895507         431.564         88.6325 
       0.911279         426.188         85.1818 
        0.92691         421.283         81.9443 
       0.942635         416.382         78.8579 
       0.958396         403.594         75.9246 
       0.974128         398.283         73.1466 
       0.989692         387.622         70.5355 
        1.00528         384.058         68.0486 
        1.02113         377.673         65.6431 
        1.03692         372.294         63.3633 
        1.05264          367.19         61.2027 
        1.06832         359.384         59.1466 
        1.08405         358.103         57.1799 
        1.09979          350.49         55.3018 
        1.11537          341.59         53.5269 
        1.13105         337.982         51.8197 
        1.14679         332.432         50.1807 
        1.16256         330.731         48.6096 
        1.17828         325.458         47.1112 
        1.19395         317.466         45.6813 
         1.2097         315.621         44.3036 
        1.22537         310.655         42.9896 
          1.241         304.054         41.7331 
        1.25666         301.276         40.5238 
        1.27241          297.45         39.3569 
        1.28819          290.33         38.2342 
        1.30392         290.551         37.1587 
        1.31957         282.562         36.1295 
        1.33529         279.038         35.1356 
        1.35108         277.756         34.1752 
        1.36674         270.358         33.2578 
         1.3824         267.841         32.3749 
        1.39811         264.842         31.5213 
        1.41389         258.936         30.6953 
        1.42964         255.796         29.9003 
        1.44531         253.104         29.1375 
        1.46101         248.671         28.3997 
        1.47667         246.109         27.6898 
        1.49229         242.776         27.0061 
        1.50793         239.292         26.3447 
        1.52367         235.666         25.7013 
        1.53953         231.861         25.0751 
        1.55526         229.583         24.4749 
        1.57092         227.752         23.8968 
        1.58662         222.691          23.336 
        1.60235         220.207         22.7923 
        1.61809         218.242         22.2656 
        1.63369          214.15         21.7602 
        1.64941         211.196          21.267 
        1.66519         208.665         20.7873 
        1.68085         205.024         20.3258 
        1.69652         203.167         19.8783 
        1.71228         200.122         19.4417 
        1.72806         198.001         19.0179 
        1.74368         195.702          18.611 
        1.75933         194.374         18.2153 
        1.77505         191.395         17.8292 
        1.79081         187.879         17.4536 
         1.8065         186.845         17.0905 
        1.82218         182.251         16.7381 
        1.83797         181.096         16.3931 
        1.85367         178.516         16.0599 
        1.86928         175.937         15.7379 
        1.88497         174.387          15.423 
        1.90073         172.785         15.1156 
        1.91647         169.549         14.8168 
        1.93218         167.115         14.5268 
        1.94787         165.112          14.245 
        1.96363         164.429         13.9695 
        1.97935         162.502         13.7019 
        1.99499         159.953         13.4428 
        2.01064         156.639         13.1901 
         2.0264         156.332         12.9423 
        2.04216         153.597          12.701 
        2.05781         151.078         12.4673 
        2.07353          150.36         12.2387 
        2.08928          148.48         12.0154 
        2.10499         146.915         11.7982 
        2.12065         145.271         11.5871 
        2.13633         143.163         11.3809 
        2.15211         140.974         11.1785 
        2.16785         139.669         10.9815 
        2.18349         138.164         10.7905 
        2.19916         136.204         10.6037 
        2.21489         134.522         10.4207 
        2.23063         133.012         10.2419 
         2.2463          131.16         10.0681 
        2.26194         130.194         9.89872 
        2.27765          128.04          9.7324 
        2.29341         127.087         9.56948 
        2.30914         125.687         9.41063 
        2.32486         123.593         9.25547 
        2.34061         122.131         9.10356 
        2.35635         121.312         8.95519 
        2.37203         119.305         8.81065 
        2.38768         118.527          8.6696 
        2.40339         116.297         8.53113 
        2.41914         115.286         8.39537 
        2.43483         114.399         8.26304 
         2.4505         112.978         8.13379 
        2.46622         111.235         8.00685 
        2.48195         110.302         7.88263 
        2.49759         108.632          7.7617 
        2.51328         107.652         7.64299 
        2.52906         106.672         7.52602 
        2.54479         105.238         7.41194 
        2.56049         103.859         7.30044 
        2.57618         102.839         7.19133 
        2.59189         102.138         7.08429 
        2.60758         100.463          6.9796 
        2.62325         99.9131         6.87715 
        2.63898         98.6843         6.77641 
        2.65468         97.7243         6.67789 
        2.67044         96.6218         6.58091 
        2.68618         95.1648         6.48608 
        2.70184         94.1643          6.3935 
        2.71755         93.5707          6.3025 
        2.73329         91.9492         6.21312 
        2.74897          91.128         6.12578 
        2.76462         90.7521          6.0403 
        2.78034         89.1716         5.95611 
        2.79607         88.0403         5.87343 
        2.81179         87.3936         5.79242 
        2.82749         86.6442         5.71302 
        2.84321         85.2663         5.63503 
        2.85893         84.0476         5.55852 
        2.87462         83.6396         5.48355 
        2.89033         82.5985          5.4099 
        2.90605         81.7764         5.33755 
        2.92176         81.1118         5.26655 
        2.93747         80.1923         5.19688 
        2.95318         78.9424         5.12845 
        2.96891         78.4964         5.06123 
        2.98456         77.3872         4.99551 
        3.00023         76.6989         4.93086 
        3.01596          76.068         4.86715 
        3.03164          75.158         4.80475 
        3.04738         74.7946         4.74327 
         3.0631         73.5264         4.68287 
        3.07883         72.9884         4.62353 
        3.09456          72.025         4.56523 
        3.11026         71.5993         4.50802 
        3.12596         70.6648          4.4518 
        3.14163         70.0133         4.39667 
        3.15734         69.0027         4.34234 
        3.17308         68.6013          4.2888 
        3.18879         67.9048          4.2363 
        3.20447         67.3275         4.18477 
         3.2202         66.2765         4.13393 
         3.2359         65.6915         4.08402 
        3.25157         65.3117         4.03506 
        3.26729         64.5126         3.98675 
        3.28304         63.6379         3.93914 
        3.29877          63.257         3.89237 
        3.31446         62.3825         3.84646 
        3.33014         61.9591         3.80133 
        3.34585         61.3622         3.75686 
        3.36158         60.9196         3.71303 
        3.37727         60.2915         3.67003 
        3.39294         59.6173         3.62776 
        3.40867         59.1322           3.586 
        3.42439         58.4864         3.54492 
        3.44008          57.871         3.50456 
        3.45578          57.335         3.46481 
        3.47153         56.8307         3.42558 
        3.48724         56.3258         3.38703 
        3.50292         55.7261         3.34916 
        3.51859         55.2714         3.31188 
        3.53431          54.597         3.27506 
        3.55007         53.9905         3.23871 
        3.56577         53.4977         3.20305 
        3.58146         52.9581         3.16795 
        3.59719         52.5597         3.13329 
        3.61292         51.8846         3.09916 
        3.62859         51.5447         3.06567 
        3.64429         51.1391         3.03261 
        3.66003         50.7252         2.99993 
        3.67578         50.1192         2.96775 
        3.69146          49.715         2.93616 
        3.70712         49.3521         2.90509 
        3.72284         48.8218         2.87435 
        3.73853         48.3704         2.84411 
        3.75422         47.8839         2.81429 
        3.76993         47.5009         2.78488 
        3.78564         47.0616          2.7559 
        3.80137         46.6868         2.72728 
        3.81707         46.1507         2.69913 
        3.83279         45.8107         2.67135 
        3.84853         45.3237         2.64392 
        3.86424         44.9084         2.61693 
        3.87992         44.4737         2.59035 
        3.89561         44.1701         2.56415 
        3.91134         43.7415         2.53825 
        3.92704          43.344         2.51274 
        3.94273         43.0203          2.4876 
        3.95845         42.5184         2.46276 
        3.97418         42.2092         2.43826 
        3.98988         41.8412         2.41412 
        4.00554         41.3655         2.39038 
        4.02125         41.1562         2.36688 
        4.03698         40.6654         2.34367 
        4.05268         40.4752         2.32082 
        4.06839         40.0732         2.29825 
         4.0841          39.786           2.276 
        4.09983          39.332         2.25401 
        4.11555         39.0708         2.23231 
        4.13124         38.5755         2.21096 
        4.14693         38.3464         2.18987 
        4.16266         38.0302         2.16901 
        4.17839         37.6279         2.14844 
        4.19408         37.3488         2.12817 
        4.20977         37.0531         2.10816 
        4.22551         36.6984         2.08836 
        4.24123         36.4459         2.06883 
        4.25691           36.09         2.04961 
        4.27259         35.7871         2.03062 
        4.28831         35.5269         2.01183 
        4.30404         35.2403         1.99327 
        4.31974          34.931         1.97498 
        4.33543         34.6073         1.95693 
        4.35116          34.298         1.93906 
        4.36688         34.0018         1.92142 
        4.38255         33.8053         1.90407 
        4.39825         33.5023         1.88689 
        4.41398         33.1982         1.86989 
         4.4297         32.9008         1.85312 
        4.44541         32.7442         1.83656 
        4.46111         32.3156         1.82021 
        4.47683         32.1784         1.80405 
        4.49251         31.9178         1.78811 
        4.50819         31.6189         1.77238 
         4.5239         31.2895         1.75681 
        4.53962         31.0968         1.74141 
        4.55535         30.8325         1.72618 
        4.57106         30.5021         1.71116 
        4.58678         30.3402         1.69632 
         4.6025         30.1343         1.68164 
        4.61821         29.8883         1.66715 
        4.63391          29.618         1.65284 
         4.6496         29.3407         1.63871 
        4.66532           29.14         1.62472 
        4.68103         28.9106          1.6109 
        4.69673         28.7028         1.59725 
        4.71241         28.4787         1.58377 
        4.72811         28.2522         1.57043 
        4.74384          28.095         1.55722 
        4.75955         27.8814         1.54419 
        4.77525         27.5497         1.53131 
        4.79096         27.3309         1.51857 
        4.80669          27.167         1.50596 
         4.8224         26.9896         1.49351 
        4.83809         26.6859         1.48121 
        4.85379         26.5287         1.46905 
         4.8695          26.326         1.45701 
        4.88521           26.08         1.44511 
        4.90093         25.9545         1.43334 
        4.91663         25.7323         1.42171 
        4.93234         25.4501          1.4102 
        4.94807         25.2603         1.39881 
        4.96377          25.108         1.38757 
        4.97943         24.9508         1.37647 
        4.99514          24.796         1.36547 
        5.01086         24.5557         1.35458 
        5.02654         24.3453         1.34383 
        5.04227         24.1883         1.33317 
          5.058         23.9489         1.32262 
        5.07371         23.7684         1.31221 
        5.08942         23.5596          1.3019 
        5.10513         23.4899         1.29171 
        5.12084         23.2849         1.28162 
        5.13656         23.1144         1.27164 
        5.15225         22.9885         1.26178 
        5.16796         22.7626         1.25201 
        5.18369         22.5769         1.24234 
         5.1994          22.356         1.23278 
        5.21509         22.2361         1.22333 
        5.23079         22.0586         1.21398 
        5.24649           21.91         1.20472 
        5.26217         21.7416         1.19557 
        5.27788         21.6043          1.1865 
        5.29359         21.4142         1.17753 
        5.30933         21.2346         1.16863 
        5.32504          21.099         1.15984 
        5.34073         20.9109         1.15115 
        5.35646         20.7792         1.14254 
        5.37218          20.636         1.13401 
        5.38789          20.487         1.12557 
        5.40357         20.3199         1.11724 
        5.41929         20.2113         1.10897 
        5.43502         20.0579         1.10078 
         5.4507         19.8565          1.0927 
        5.46639         19.7179         1.08469 
        5.48212         19.5888         1.07675 
        5.49786         19.4545         1.06888 
        5.51353         19.3333         1.06112 
        5.52921         19.1788         1.05344 
        5.54495          19.037          1.0458 
        5.56066         18.9024         1.03826 
        5.57637         18.7552         1.03078 
        5.59207         18.6107         1.02339 
        5.60778         18.5679         1.01606 
        5.62346         18.3797         1.00882 
        5.63916         18.2501         1.00164 
        5.65487         18.0832        0.994533 
         5.6706         17.9967        0.987481 
        5.68633         17.8789        0.980496 
        5.70203         17.7426        0.973592 
        5.71773         17.6333        0.966756 
        5.73344         17.5145        0.959982 
        5.74916         17.3744        0.953266 
        5.76486         17.2477        0.946624 
        5.78054         17.1072        0.940055 
        5.79626         17.0108         0.93353 
          5.812         16.9115        0.927061 
         5.8277         16.7473        0.920672 
        5.84339         16.6414        0.914343 
        5.85911         16.5528        0.908061 
        5.87484         16.3972        0.901839 
        5.89053         16.2717        0.895688 
        5.90623         16.1961        0.889591 
        5.92195         16.0625         0.88354 
        5.93767          15.977         0.87755 
        5.95336           15.86        0.871624 
        5.96905         15.7432        0.865755 
        5.98476         15.6538        0.859932 
        6.00048         15.5357        0.854161 
        6.01617         15.4604         0.84845 
        6.03185         15.3313        0.842799 
        6.04756         15.2313        0.837185 
        6.06331         15.1363         0.83161 
        6.07903         15.0022        0.826098 
        6.09473         14.9105        0.820641 
        6.11044         14.8159        0.815228 
        6.12616         14.7342        0.809865 
        6.14186          14.641        0.804556 
        6.15755         14.5102        0.799294 
        6.17326         14.4137        0.794075 
        6.18898         14.3158        0.788901 
        6.20467         14.2021        0.783781 
        6.22036          14.119        0.778708 
         6.2361         14.0113        0.773665 
         6.2518         13.9323        0.768676 
        6.26748         13.8675        0.763741 
        6.28319          13.755        0.758836 
        6.29893         13.6722         0.75397 
        6.31463         13.5943        0.749155 
        6.33033         13.5071        0.744384 
        6.34604         13.3933         0.73965 
        6.36177         13.3124        0.734953 
        6.37747         13.2282        0.730306 
