# k  (h/Mpc)    Pcb(k)  (Mpc/h)^3    Pcb_linear(k) (Mpc/h)^3   ShotnoiseSubtracted = true
      0.0200456         6794.81         6888.31 
      0.0350414         5119.45         5007.57 
      0.0492313         3625.77         3638.41 
      0.0637834         2945.09         3024.57 
      0.0800726         2325.05         2400.53 
       0.096163         1793.32         1741.79 
       0.111083         1452.19          1389.3 
       0.126058         1222.37          1231.2 
       0.142273         1044.41          1043.1 
       0.158546         853.429         823.829 
        0.17375         739.064         694.076 
       0.188953         675.213          628.47 
       0.204907         574.726         556.068 
       0.220756         512.246         470.467 
        0.23588         452.095         409.265 
         0.2514         405.672         371.813 
       0.267535         387.696         336.427 
       0.283568         337.967         296.684 
       0.299022          317.96          264.33 
       0.314451         310.624          241.58 
       0.330372         269.514         221.622 
       0.346141         249.162         201.156 
       0.361624         234.946         182.823 
       0.377134         215.613         168.226 
       0.392932         209.967         155.656 
       0.408854         197.833         143.485 
       0.424564         189.006         132.252 
       0.440253         170.952         122.613 
       0.455999         160.482         114.232 
       0.471626         156.273         106.529 
        0.48727         150.532         99.3237 
       0.502856         137.586         92.8508 
       0.518488         135.351         87.0753 
       0.534347         126.786         81.7061 
       0.550082         123.619         76.7554 
       0.565732         120.864         72.2262 
       0.581496         111.425         68.0781 
       0.597222         108.753         64.2738 
       0.612804          105.11         60.7756 
       0.628434          102.36          57.515 
       0.644267         96.9884         54.4666 
       0.660051         93.8683         51.6571 
       0.675724         91.9777         49.0628 
       0.691403         89.9866         46.6445 
       0.707174         86.8328         44.3755 
       0.722871         84.9667         42.2666 
        0.73838         82.2827         40.3172 
       0.754018         77.5973         38.4761 
       0.769845          77.024         36.7299 
        0.78569            74.6         35.0906 
       0.801365          72.424         33.5677 
       0.817031         69.9365         32.1366 
       0.832809         68.7116         30.7802 
       0.848511         67.0631         29.5086 
       0.864097         65.8165         28.3179 
       0.879701         64.4766         27.1921 
       0.895507         62.0861         26.1145 
       0.911279          61.133         25.0978 
        0.92691         59.3922         24.1439 
       0.942635         58.1716         23.2345 
       0.958396         57.9335         22.3703 
       0.974128         56.4689         21.5517 
       0.989692         54.9665         20.7824 
        1.00528         54.0054         20.0497 
        1.02113         52.8138         19.3409 
        1.03692         52.5024         18.6692 
        1.05264         51.2941         18.0326 
        1.06832         50.0263         17.4268 
        1.08405         49.1281         16.8473 
        1.09979         48.8843          16.294 
        1.11537         47.4965         15.7711 
        1.13105         46.3664          15.268 
        1.14679         45.8524         14.7851 
        1.16256         45.1917         14.3222 
        1.17828         44.6363         13.8807 
        1.19395         43.4868         13.4594 
         1.2097         43.4177         13.0535 
        1.22537         42.4017         12.6664 
          1.241         41.7661         12.2961 
        1.25666          40.929         11.9398 
        1.27241         40.7438          11.596 
        1.28819         39.6351         11.2652 
        1.30392         39.3724         10.9483 
        1.31957         38.9611         10.6451 
        1.33529         38.2368         10.3523 
        1.35108         37.5668         10.0693 
        1.36674         37.1684         9.79899 
         1.3824         36.5719         9.53887 
        1.39811         35.8934         9.28736 
        1.41389         35.4776         9.04398 
        1.42964         35.2282         8.80976 
        1.44531         34.4482           8.585 
        1.46101         34.2652         8.36763 
        1.47667         33.8336         8.15845 
        1.49229         33.2146           7.957 
        1.50793         32.9327         7.76214 
        1.52367         32.3719         7.57257 
        1.53953         32.2316         7.38808 
        1.55526         31.6905         7.21122 
        1.57092          31.329         7.04089 
        1.58662         30.8576         6.87568 
        1.60235         30.4839         6.71546 
        1.61809         30.1724         6.56027 
        1.63369         29.8792         6.41138 
        1.64941         29.4759         6.26605 
        1.66519         29.0188         6.12472 
        1.68085         28.6172         5.98876 
        1.69652         28.3806         5.85689 
        1.71228          28.195         5.72826 
        1.72806          27.717         5.60339 
        1.74368         27.3836         5.48351 
        1.75933         27.1911          5.3669 
        1.77505         26.9589         5.25314 
        1.79081          26.612         5.14249 
         1.8065         26.2553          5.0355 
        1.82218         25.9674         4.93166 
        1.83797           25.82         4.83004 
        1.85367         25.4773         4.73185 
        1.86928          25.437         4.63698 
        1.88497         24.9312          4.5442 
        1.90073         24.7267         4.45362 
        1.91647         24.4551          4.3656 
        1.93218         24.4684         4.28014 
        1.94787         24.0955          4.1971 
        1.96363         23.8044         4.11594 
        1.97935         23.4977         4.03709 
        1.99499         23.3543         3.96076 
        2.01064         23.0219          3.8863 
         2.0264         22.8477         3.81328 
        2.04216         22.7308         3.74218 
        2.05781         22.4408         3.67334 
        2.07353         22.2496         3.60599 
        2.08928          21.867         3.54019 
        2.10499         21.7335          3.4762 
        2.12065         21.5264         3.41399 
        2.13633         21.3907         3.35325 
        2.15211         21.0422          3.2936 
        2.16785          21.031         3.23557 
        2.18349         20.7418          3.1793 
        2.19916         20.5516         3.12425 
        2.21489         20.3072         3.07033 
        2.23063         20.2316         3.01764 
         2.2463         19.9709         2.96643 
        2.26194         19.8042         2.91653 
        2.27765         19.5085         2.86753 
        2.29341         19.3814         2.81953 
        2.30914         19.1825         2.77272 
        2.32486         19.0996         2.72701 
        2.34061         18.9127         2.68225 
        2.35635         18.6371         2.63854 
        2.37203         18.5374         2.59595 
        2.38768         18.3624         2.55439 
        2.40339         18.2847         2.51359 
        2.41914         18.0675         2.47359 
        2.43483         17.8806          2.4346 
         2.4505         17.6584         2.39652 
        2.46622         17.5959         2.35912 
        2.48195         17.3893         2.32252 
        2.49759         17.1436         2.28689 
        2.51328         17.1172         2.25191 
        2.52906         16.9708         2.21745 
        2.54479         16.7771         2.18384 
        2.56049         16.6302         2.15098 
        2.57618         16.5786         2.11884 
        2.59189         16.3499          2.0873 
        2.60758         16.1509         2.05645 
        2.62325         16.0556         2.02627 
        2.63898         15.9805         1.99658 
        2.65468         15.7484         1.96756 
        2.67044         15.6317         1.93898 
        2.68618         15.5444         1.91104 
        2.70184          15.375         1.88377 
        2.71755         15.2338         1.85695 
        2.73329         15.1234         1.83062 
        2.74897         14.9881         1.80488 
        2.76462         14.8804          1.7797 
        2.78034         14.7142         1.75489 
        2.79607         14.6237         1.73053 
        2.81179         14.5075         1.70666 
        2.82749         14.3724         1.68327 
        2.84321         14.2591         1.66029 
        2.85893          14.078         1.63775 
        2.87462         14.0478         1.61566 
        2.89033         13.8795         1.59396 
        2.90605         13.7903         1.57264 
        2.92176         13.6651         1.55172 
        2.93747         13.5415          1.5312 
        2.95318         13.4385         1.51104 
        2.96891         13.3301         1.49123 
        2.98456         13.2155         1.47186 
        3.00023         13.1101         1.45282 
        3.01596         13.0302         1.43405 
        3.03164         12.9159         1.41566 
        3.04738         12.8106         1.39754 
         3.0631         12.6584         1.37975 
        3.07883         12.5872         1.36227 
        3.09456         12.4864         1.34509 
        3.11026         12.4102         1.32823 
        3.12596         12.3105         1.31167 
        3.14163         12.1924         1.29542 
        3.15734         12.0867         1.27942 
        3.17308         12.0315         1.26364 
        3.18879          11.895         1.24817 
        3.20447         11.8413         1.23299 
         3.2202         11.7161         1.21801 
         3.2359          11.601         1.20331 
        3.25157         11.5671         1.18888 
        3.26729          11.425         1.17465 
        3.28304         11.3171         1.16062 
        3.29877         11.2868         1.14684 
        3.31446         11.1709         1.13331 
        3.33014          11.094         1.12002 
        3.34585         10.9731         1.10691 
        3.36158         10.9091           1.094 
        3.37727         10.8648         1.08133 
        3.39294         10.7562         1.06887 
        3.40867         10.6588         1.05657 
        3.42439         10.5615         1.04447 
        3.44008         10.5125         1.03258 
        3.45578         10.4012         1.02086 
        3.47153         10.3499          1.0093 
        3.48724         10.2634        0.997945 
        3.50292          10.175        0.986788 
        3.51859         10.0985        0.975806 
        3.53431         9.98584        0.964957 
        3.55007         9.92462        0.954246 
        3.56577         9.83363         0.94374 
        3.58146         9.75136        0.933397 
        3.59719         9.67569        0.923185 
        3.61292         9.64906        0.913129 
        3.62859         9.57465        0.903261 
        3.64429         9.46926         0.89352 
        3.66003         9.42449        0.883892 
        3.67578          9.3262         0.87441 
        3.69146         9.29534        0.865103 
        3.70712         9.19943        0.855948 
        3.72284         9.12617        0.846891 
        3.73853         9.07104        0.837982 
        3.75422          9.0082        0.829197 
        3.76993         8.90964         0.82053 
        3.78564         8.86142        0.811991 
        3.80137         8.79914        0.803559 
        3.81707         8.71347        0.795265 
        3.83279         8.63357        0.787081 
        3.84853         8.59081        0.778999 
        3.86424         8.53586        0.771046 
        3.87992          8.4885        0.763216 
        3.89561         8.40428        0.755494 
        3.91134         8.32966        0.747864 
        3.92704         8.27231        0.740347 
        3.94273          8.2076        0.732941 
        3.95845         8.16105        0.725623 
        3.97418         8.09155        0.718403 
        3.98988         8.04454        0.711291 
        4.00554          7.9778        0.704295 
        4.02125         7.93792        0.697373 
        4.03698         7.85539        0.690533 
        4.05268         7.79121          0.6838 
        4.06839         7.71348        0.677152 
         4.0841          7.6762        0.670595 
        4.09983         7.61909        0.664115 
        4.11555         7.54219        0.657723 
        4.13124         7.49825        0.651433 
        4.14693         7.43769         0.64522 
        4.16266         7.38778        0.639073 
        4.17839         7.34291         0.63301 
        4.19408         7.29275         0.62704 
        4.20977         7.21132        0.621144 
        4.22551         7.18486        0.615309 
        4.24123         7.13572        0.609555 
        4.25691         7.08023        0.603891 
        4.27259           6.997        0.598297 
        4.28831         6.96668        0.592762 
        4.30404         6.91309        0.587292 
        4.31974         6.86121        0.581903 
        4.33543         6.80216        0.576585 
        4.35116         6.75419         0.57132 
        4.36688         6.71615        0.566123 
        4.38255         6.66429         0.56101 
        4.39825         6.60961        0.555949 
        4.41398         6.55416        0.550941 
         4.4297         6.51919        0.545999 
        4.44541         6.46737        0.541119 
        4.46111         6.44215        0.536302 
        4.47683         6.38817         0.53154 
        4.49251         6.34705        0.526846 
        4.50819         6.30351         0.52221 
         4.5239         6.23471        0.517622 
        4.53962         6.20539        0.513084 
        4.55535         6.15724        0.508599 
        4.57106         6.11226        0.504173 
        4.58678         6.07125        0.499799 
         4.6025          6.0278        0.495476 
        4.61821          5.9978        0.491204 
        4.63391         5.93907        0.486989 
         4.6496         5.90245        0.482825 
        4.66532         5.85908        0.478703 
        4.68103         5.82369         0.47463 
        4.69673         5.78788        0.470609 
        4.71241         5.74563        0.466639 
        4.72811         5.69397        0.462708 
        4.74384         5.67889        0.458817 
        4.75955         5.62142        0.454977 
        4.77525         5.58348        0.451182 
        4.79096         5.55039        0.447427 
        4.80669         5.50043        0.443712 
         4.8224         5.47338        0.440044 
        4.83809         5.43248        0.436421 
        4.85379         5.38191        0.432836 
         4.8695         5.36284        0.429289 
        4.88521         5.33024        0.425783 
        4.90093         5.28028        0.422316 
        4.91663          5.2426         0.41889 
        4.93234          5.2205        0.415499 
        4.94807         5.17997        0.412143 
        4.96377         5.14526         0.40883 
        4.97943         5.11141        0.405561 
        4.99514         5.06765        0.402319 
        5.01086         5.04549         0.39911 
        5.02654         5.01609        0.395944 
        5.04227         4.97852        0.392803 
          5.058         4.93374        0.389695 
        5.07371          4.9079        0.386626 
        5.08942         4.87866         0.38359 
        5.10513         4.84611        0.380586 
        5.12084         4.81566        0.377613 
        5.13656          4.7718        0.374672 
        5.15225         4.74462        0.371768 
        5.16796         4.71956         0.36889 
        5.18369         4.67715        0.366039 
         5.1994         4.64434        0.363224 
        5.21509         4.62574        0.360441 
        5.23079          4.5942        0.357683 
        5.24649         4.56411        0.354957 
        5.26217         4.52677        0.352261 
        5.27788          4.5084        0.349589 
        5.29359         4.47394        0.346944 
        5.30933         4.44794        0.344323 
        5.32504         4.41968        0.341734 
        5.34073          4.3937        0.339173 
        5.35646         4.36766        0.336634 
        5.37218         4.32622        0.334121 
        5.38789         4.30694        0.331637 
        5.40357         4.27844        0.329181 
        5.41929         4.24854        0.326744 
        5.43502         4.22038        0.324332 
         5.4507         4.20034         0.32195 
        5.46639         4.16605        0.319592 
        5.48212         4.15191        0.317252 
        5.49786          4.1149        0.314932 
        5.51353         4.09248        0.312647 
        5.52921          4.0737        0.310382 
        5.54495         4.04023        0.308133 
        5.56066         4.01782        0.305909 
        5.57637         3.98999        0.303707 
        5.59207          3.9615        0.301529 
        5.60778         3.94999        0.299371 
        5.62346         3.92236        0.297237 
        5.63916         3.89134        0.295122 
        5.65487         3.87019        0.293027 
         5.6706         3.84951        0.290949 
        5.68633         3.82665        0.288891 
        5.70203         3.79931        0.286857 
        5.71773         3.77806        0.284843 
        5.73344         3.75416        0.282847 
        5.74916         3.73042        0.280868 
        5.76486         3.70756        0.278911 
        5.78054         3.68541        0.276976 
        5.79626         3.66264        0.275053 
          5.812         3.63652        0.273147 
         5.8277         3.61085        0.271265 
        5.84339         3.60387          0.2694 
        5.85911         3.57748        0.267549 
        5.87484         3.55376        0.265716 
        5.89053         3.52978        0.263903 
        5.90623         3.51451        0.262107 
        5.92195         3.49218        0.260324 
        5.93767         3.46782        0.258559 
        5.95336         3.45144        0.256813 
        5.96905          3.4255        0.255084 
        5.98476         3.41429        0.253368 
        6.00048         3.38328        0.251668 
        6.01617         3.36675        0.249985 
        6.03185         3.35493         0.24832 
        6.04756         3.32529        0.246666 
        6.06331         3.30821        0.245024 
        6.07903         3.28696          0.2434 
        6.09473         3.27032        0.241792 
        6.11044         3.24643        0.240197 
        6.12616         3.23353        0.238617 
        6.14186         3.21696        0.237052 
        6.15755         3.19648        0.235502 
        6.17326         3.17665        0.233964 
        6.18898         3.15369         0.23244 
        6.20467         3.13865        0.230931 
        6.22036         3.12079        0.229437 
         6.2361         3.10398        0.227951 
         6.2518         3.08537        0.226481 
        6.26748         3.06874        0.225027 
        6.28319         3.04861        0.223582 
        6.29893         3.03627        0.222148 
        6.31463         3.02091        0.220729 
        6.33033         3.00422        0.219323 
        6.34604         2.98248        0.217929 
        6.36177          2.9688        0.216545 
        6.37747         2.94694        0.215176 
