# k  (h/Mpc)    Pcb(k)  (Mpc/h)^3    Pcb_linear(k) (Mpc/h)^3   ShotnoiseSubtracted = true
      0.0200456         8503.69          8624.1 
      0.0350414         6419.92         6269.43 
      0.0492313         4529.86         4555.25 
      0.0637834         3673.76         3786.74 
      0.0800726         2898.06         3005.44 
       0.096163         2249.78         2180.71 
       0.111083         1824.48         1739.39 
       0.126058         1529.61         1541.45 
       0.142273         1311.31         1305.95 
       0.158546         1074.03         1031.43 
        0.17375          933.46         868.976 
       0.188953         857.132         786.838 
       0.204907         730.196         696.191 
       0.220756         652.374          589.02 
        0.23588         577.407         512.396 
         0.2514         517.354         465.507 
       0.267535         497.931         421.204 
       0.283568         433.973         371.445 
       0.299022         410.792         330.938 
       0.314451         406.529         302.455 
       0.330372          350.68         277.469 
       0.346141         324.805         251.845 
       0.361624         308.063         228.893 
       0.377134         284.322         210.617 
       0.392932         276.847          194.88 
       0.408854         262.015         179.642 
       0.424564          251.33         165.578 
       0.440253         226.831          153.51 
       0.455999         214.953         143.017 
       0.471626         211.699         133.373 
        0.48727         202.679         124.352 
       0.502856         184.948         116.248 
       0.518488         184.092         109.017 
       0.534347         171.522         102.295 
       0.550082         167.592          96.097 
       0.565732          165.05         90.4265 
       0.581496         152.882          85.233 
       0.597222         149.577         80.4701 
       0.612804         144.746         76.0904 
       0.628434         140.528         72.0082 
       0.644267         133.505         68.1916 
       0.660051          129.76         64.6741 
       0.675724         128.105         61.4261 
       0.691403         124.923         58.3984 
       0.707174         120.572         55.5577 
       0.722871           118.5         52.9173 
        0.73838         116.026         50.4767 
       0.754018         108.946         48.1716 
       0.769845         108.546         45.9855 
        0.78569         105.538         43.9331 
       0.801365         102.245         42.0265 
       0.817031         99.0727         40.2347 
       0.832809         97.3559         38.5365 
       0.848511         95.1393         36.9445 
       0.864097         93.4817         35.4537 
       0.879701         91.8719         34.0442 
       0.895507          88.517         32.6951 
       0.911279         87.0929         31.4222 
        0.92691          84.754         30.2279 
       0.942635         82.9259         29.0894 
       0.958396         82.5685         28.0073 
       0.974128         80.6431         26.9826 
       0.989692         78.8374         26.0194 
        1.00528         77.4138          25.102 
        1.02113         75.5553         24.2147 
        1.03692         75.4582         23.3737 
        1.05264         74.1283         22.5767 
        1.06832         71.7076         21.8182 
        1.08405         71.0325         21.0927 
        1.09979         70.4354         20.3999 
        1.11537         68.5384         19.7452 
        1.13105           67.26         19.1154 
        1.14679         66.4403         18.5108 
        1.16256         65.2043         17.9313 
        1.17828         64.6506         17.3785 
        1.19395         62.8745         16.8511 
         1.2097         63.0691         16.3429 
        1.22537         61.4852         15.8582 
          1.241         61.0869         15.3946 
        1.25666         59.1506         14.9486 
        1.27241         59.0934         14.5181 
        1.28819         58.3311          14.104 
        1.30392         57.2126         13.7072 
        1.31957         56.9294         13.3276 
        1.33529          56.005         12.9609 
        1.35108         55.2287         12.6067 
        1.36674         54.3855         12.2682 
         1.3824         53.6506         11.9426 
        1.39811         52.7649         11.6277 
        1.41389         51.9796          11.323 
        1.42964         51.6264         11.0297 
        1.44531         50.7338         10.7483 
        1.46101         50.3767         10.4762 
        1.47667         49.5983         10.2143 
        1.49229         48.9348         9.96209 
        1.50793         48.4771         9.71813 
        1.52367         47.8856         9.48079 
        1.53953         47.3821          9.2498 
        1.55526         46.6183         9.02838 
        1.57092         46.2604         8.81513 
        1.58662         45.6459         8.60828 
        1.60235          45.041         8.40769 
        1.61809         44.4076          8.2134 
        1.63369         43.8583         8.02698 
        1.64941         43.4608         7.84504 
        1.66519         42.6952         7.66809 
        1.68085         42.3632         7.49787 
        1.69652         41.6475         7.33277 
        1.71228         41.5013         7.17172 
        1.72806         40.8615         7.01539 
        1.74368         40.3348          6.8653 
        1.75933         40.1135         6.71931 
        1.77505         39.7574         6.57689 
        1.79081          39.236         6.43835 
         1.8065         38.6362          6.3044 
        1.82218         37.9776         6.17439 
        1.83797         37.7627         6.04716 
        1.85367          37.325         5.92423 
        1.86928         37.2927         5.80545 
        1.88497         36.4729         5.68929 
        1.90073         36.2108         5.57589 
        1.91647         36.0257         5.46568 
        1.93218          35.844         5.35869 
        1.94787         35.2674         5.25473 
        1.96363         34.6639         5.15311 
        1.97935          34.512          5.0544 
        1.99499         34.1539         4.95884 
        2.01064         33.6444         4.86561 
         2.0264          33.411         4.77419 
        2.04216         33.1594         4.68517 
        2.05781         32.7642         4.59899 
        2.07353         32.3582         4.51467 
        2.08928         32.1917         4.43228 
        2.10499         31.8641         4.35217 
        2.12065         31.4536         4.27428 
        2.13633         31.2688         4.19824 
        2.15211         30.7139         4.12356 
        2.16785         30.4473          4.0509 
        2.18349         30.1791         3.98045 
        2.19916         29.8761         3.91153 
        2.21489         29.6166         3.84402 
        2.23063         29.4056         3.77806 
         2.2463         29.1444         3.71394 
        2.26194         28.7467         3.65147 
        2.27765          28.464         3.59012 
        2.29341         28.1592         3.53002 
        2.30914         27.8845         3.47142 
        2.32486         27.6215         3.41419 
        2.34061         27.3929         3.35815 
        2.35635         27.0843         3.30342 
        2.37203         26.8769          3.2501 
        2.38768          26.648         3.19807 
        2.40339         26.4737         3.14699 
        2.41914         26.1533         3.09691 
        2.43483         26.0603          3.0481 
         2.4505         25.5841         3.00042 
        2.46622         25.3203          2.9536 
        2.48195         25.1479         2.90777 
        2.49759         24.7829         2.86316 
        2.51328         24.6546         2.81937 
        2.52906         24.4771         2.77623 
        2.54479         24.2125         2.73414 
        2.56049         24.1494         2.69301 
        2.57618         23.8462         2.65276 
        2.59189         23.5084         2.61328 
        2.60758         23.3523         2.57466 
        2.62325         23.0842         2.53687 
        2.63898          22.974          2.4997 
        2.65468         22.7439         2.46336 
        2.67044         22.4798         2.42759 
        2.68618         22.2223         2.39261 
        2.70184         22.0154         2.35846 
        2.71755         21.8368         2.32489 
        2.73329         21.6153         2.29192 
        2.74897          21.491          2.2597 
        2.76462         21.3391         2.22817 
        2.78034         20.9917         2.19711 
        2.79607         20.8185         2.16661 
        2.81179         20.6733         2.13673 
        2.82749          20.472         2.10744 
        2.84321         20.3352         2.07867 
        2.85893         20.1021         2.05044 
        2.87462         19.9508         2.02279 
        2.89033         19.7983         1.99562 
        2.90605         19.5262         1.96893 
        2.92176         19.3033         1.94274 
        2.93747         19.2299         1.91704 
        2.95318         19.0874          1.8918 
        2.96891         18.8201           1.867 
        2.98456         18.7722         1.84276 
        3.00023         18.4986         1.81891 
        3.01596         18.3025         1.79541 
        3.03164         18.1874         1.77239 
        3.04738         18.0437         1.74971 
         3.0631         17.8944         1.72743 
        3.07883         17.7248         1.70554 
        3.09456         17.5823         1.68404 
        3.11026         17.4184         1.66293 
        3.12596         17.2321         1.64219 
        3.14163         17.1128         1.62186 
        3.15734         16.9713         1.60182 
        3.17308         16.8472         1.58207 
        3.18879         16.5967          1.5627 
        3.20447         16.5566         1.54369 
         3.2202         16.3659         1.52494 
         3.2359          16.239         1.50653 
        3.25157         16.1269         1.48847 
        3.26729         15.9532         1.47065 
        3.28304         15.8785         1.45308 
        3.29877         15.7957         1.43583 
        3.31446         15.5931          1.4189 
        3.33014         15.4321         1.40225 
        3.34585         15.3426         1.38584 
        3.36158         15.1876         1.36967 
        3.37727         15.0399         1.35381 
        3.39294         14.9197         1.33822 
        3.40867         14.7931         1.32282 
        3.42439         14.6848         1.30766 
        3.44008         14.5526         1.29278 
        3.45578         14.4125         1.27811 
        3.47153         14.3213         1.26364 
        3.48724         14.2226         1.24942 
        3.50292         14.1169         1.23545 
        3.51859         13.9721          1.2217 
        3.53431         13.8351         1.20812 
        3.55007         13.7289         1.19471 
        3.56577          13.635         1.18155 
        3.58146         13.4922          1.1686 
        3.59719         13.3962         1.15582 
        3.61292         13.2758         1.14323 
        3.62859         13.1626         1.13087 
        3.64429         13.0633         1.11868 
        3.66003         12.9562         1.10662 
        3.67578         12.8658         1.09475 
        3.69146          12.767          1.0831 
        3.70712         12.6078         1.07164 
        3.72284         12.5249          1.0603 
        3.73853         12.4351         1.04914 
        3.75422         12.2975         1.03815 
        3.76993         12.2055          1.0273 
        3.78564         12.1362          1.0166 
        3.80137         12.0221         1.00605 
        3.81707         11.9175        0.995664 
        3.83279         11.8662        0.985418 
        3.84853         11.7307        0.975299 
        3.86424         11.6349        0.965342 
        3.87992         11.5412        0.955539 
        3.89561         11.4637        0.945871 
        3.91134         11.3723        0.936318 
        3.92704         11.2935        0.926907 
        3.94273         11.1978        0.917635 
        3.95845         11.0777        0.908473 
        3.97418         10.9914        0.899434 
        3.98988         10.9504         0.89053 
        4.00554         10.8311         0.88177 
        4.02125         10.7531        0.873104 
        4.03698         10.6668         0.86454 
        4.05268         10.6039        0.856111 
        4.06839         10.4849        0.847788 
         4.0841         10.4109        0.839578 
        4.09983         10.3319        0.831465 
        4.11555         10.2375        0.823463 
        4.13124         10.1628        0.815588 
        4.14693         10.0641        0.807809 
        4.16266         10.0027        0.800113 
        4.17839          9.9116        0.792523 
        4.19408         9.85076        0.785047 
        4.20977         9.73993        0.777666 
        4.22551         9.69181        0.770361 
        4.24123         9.62602        0.763157 
        4.25691         9.52985        0.756066 
        4.27259         9.45416        0.749062 
        4.28831         9.36831        0.742133 
        4.30404         9.34512        0.735284 
        4.31974         9.23282        0.728537 
        4.33543         9.17937        0.721879 
        4.35116         9.08062        0.715287 
        4.36688         9.02654        0.708781 
        4.38255         8.96812        0.702379 
        4.39825         8.86857        0.696043 
        4.41398         8.80643        0.689772 
         4.4297         8.73855        0.683585 
        4.44541         8.68513        0.677475 
        4.46111           8.604        0.671445 
        4.47683         8.57104        0.665483 
        4.49251         8.46894        0.659606 
        4.50819         8.42439        0.653801 
         4.5239         8.35747        0.648058 
        4.53962         8.28072        0.642377 
        4.55535         8.23769         0.63676 
        4.57106         8.16754         0.63122 
        4.58678         8.12736        0.625743 
         4.6025         8.03882        0.620331 
        4.61821         7.97716        0.614983 
        4.63391         7.93296        0.609705 
         4.6496          7.8741        0.604492 
        4.66532         7.82082        0.599331 
        4.68103         7.74369        0.594233 
        4.69673         7.70066        0.589198 
        4.71241         7.62787        0.584227 
        4.72811         7.56533        0.579306 
        4.74384         7.55531        0.574434 
        4.75955         7.48844        0.569626 
        4.77525         7.44428        0.564876 
        4.79096         7.39191        0.560174 
        4.80669          7.3172        0.555523 
         4.8224         7.26677         0.55093 
        4.83809         7.22093        0.546394 
        4.85379          7.1602        0.541907 
         4.8695         7.13946        0.537466 
        4.88521         7.05179        0.533076 
        4.90093         7.01621        0.528735 
        4.91663         6.96496        0.524446 
        4.93234         6.91424        0.520201 
        4.94807          6.8461        0.515999 
        4.96377         6.81322        0.511851 
        4.97943         6.74712        0.507758 
        4.99514         6.71417        0.503699 
        5.01086         6.66648        0.499682 
        5.02654         6.62233        0.495718 
        5.04227         6.57359        0.491785 
          5.058         6.51165        0.487894 
        5.07371          6.5115        0.484052 
        5.08942         6.43818        0.480251 
        5.10513         6.39937         0.47649 
        5.12084         6.34136        0.472768 
        5.13656         6.29935        0.469086 
        5.15225         6.23861         0.46545 
        5.16796         6.21469        0.461846 
        5.18369         6.16816        0.458277 
         5.1994          6.1213        0.454752 
        5.21509          6.0823        0.451268 
        5.23079         6.04934        0.447816 
        5.24649          5.9857        0.444403 
        5.26217         5.97031        0.441027 
        5.27788         5.91316        0.437682 
        5.29359         5.88598        0.434371 
        5.30933         5.84004        0.431089 
        5.32504          5.8044        0.427847 
        5.34073         5.75997        0.424642 
        5.35646         5.71319        0.421463 
        5.37218         5.67933        0.418316 
        5.38789         5.64451        0.415206 
        5.40357         5.59736        0.412131 
        5.41929         5.55542        0.409081 
        5.43502          5.5213        0.406061 
         5.4507         5.49074        0.403079 
        5.46639         5.44702        0.400126 
        5.48212         5.42899        0.397196 
        5.49786         5.38763        0.394292 
        5.51353         5.35682        0.391431 
        5.52921         5.30669        0.388595 
        5.54495         5.27387         0.38578 
        5.56066         5.24197        0.382995 
        5.57637           5.204        0.380238 
        5.59207         5.17108        0.377511 
        5.60778         5.13187        0.374809 
        5.62346         5.09774        0.372138 
        5.63916         5.06154         0.36949 
        5.65487         5.03381        0.366867 
         5.6706          5.0044        0.364266 
        5.68633         4.97175        0.361689 
        5.70203         4.92542        0.359142 
        5.71773         4.90731         0.35662 
        5.73344         4.86778        0.354121 
        5.74916         4.84025        0.351644 
        5.76486         4.81412        0.349194 
        5.78054         4.78257        0.346771 
        5.79626         4.73769        0.344364 
          5.812          4.7145        0.341977 
         5.8277         4.69124         0.33962 
        5.84339         4.65786        0.337286 
        5.85911         4.63085        0.334969 
        5.87484         4.58412        0.332673 
        5.89053         4.57128        0.330404 
        5.90623         4.54213        0.328155 
        5.92195           4.518        0.325923 
        5.93767         4.47674        0.323713 
        5.95336         4.46494        0.321528 
        5.96905          4.4332        0.319363 
        5.98476           4.404        0.317215 
        6.00048         4.37186        0.315086 
        6.01617         4.34211        0.312979 
        6.03185         4.31518        0.310894 
        6.04756         4.28534        0.308824 
        6.06331         4.26606        0.306767 
        6.07903         4.24006        0.304734 
        6.09473         4.21072        0.302721 
        6.11044         4.17921        0.300724 
        6.12616         4.16862        0.298746 
        6.14186         4.13024        0.296787 
        6.15755         4.10665        0.294846 
        6.17326         4.08128        0.292921 
        6.18898         4.05482        0.291012 
        6.20467         4.02742        0.289124 
        6.22036         4.01085        0.287252 
         6.2361         3.97771        0.285392 
         6.2518         3.95676        0.283552 
        6.26748         3.93451        0.281732 
        6.28319         3.91534        0.279922 
        6.29893         3.89005        0.278127 
        6.31463         3.86843        0.276351 
        6.33033         3.84617        0.274591 
        6.34604         3.82091        0.272845 
        6.36177         3.79985        0.271112 
        6.37747         3.78336        0.269398 
