# k  (h/Mpc)    Pcb(k)  (Mpc/h)^3    Pcb_linear(k) (Mpc/h)^3   ShotnoiseSubtracted = true
      0.0200456         7071.95         7169.71 
      0.0350414          5330.1         5212.13 
      0.0492313          3772.6         3787.04 
      0.0637834         3063.51         3148.13 
      0.0800726         2418.23         2498.59 
       0.096163         1867.25         1812.95 
       0.111083         1512.45         1446.05 
       0.126058          1272.2          1281.5 
       0.142273         1087.58         1085.71 
       0.158546         889.095         857.483 
        0.17375         770.404         722.429 
       0.188953         704.435         654.143 
       0.204907         599.649         578.783 
       0.220756         534.701         489.686 
        0.23588         472.146         425.984 
         0.2514         423.534         387.002 
       0.267535         405.301         350.171 
       0.283568         353.271         308.803 
       0.299022         332.741         275.128 
       0.314451          325.77         251.448 
       0.330372         282.332         230.676 
       0.346141         261.111         209.373 
       0.361624         246.479         190.292 
       0.377134         226.379         175.098 
       0.392932         220.467         162.015 
       0.408854         207.915         149.347 
       0.424564         198.753         137.655 
       0.440253         179.678         127.622 
       0.455999         168.962         118.898 
       0.471626         164.839         110.881 
        0.48727         158.624         103.381 
       0.502856           144.9         96.6438 
       0.518488         142.867         90.6323 
       0.534347         133.695         85.0438 
       0.550082         130.434         79.8909 
       0.565732         127.684         75.1767 
       0.581496         117.741         70.8591 
       0.597222         115.012         66.8994 
       0.612804         111.173         63.2583 
       0.628434         108.214         59.8645 
       0.644267         102.571         56.6916 
       0.660051         99.3363         53.7673 
       0.675724         97.4866          51.067 
       0.691403          95.314         48.5499 
       0.707174         91.9733         46.1883 
       0.722871         90.0787         43.9932 
        0.73838         87.3907         41.9642 
       0.754018         82.3374         40.0478 
       0.769845         81.7814         38.2303 
        0.78569          79.273         36.5241 
       0.801365         76.9127          34.939 
       0.817031         74.3152         33.4494 
       0.832809         73.0099         32.0376 
       0.848511         71.2938         30.7141 
       0.864097         69.9859         29.4747 
       0.879701         68.5912         28.3029 
       0.895507          66.032         27.1813 
       0.911279         65.0538          26.123 
        0.92691         63.1825         25.1302 
       0.942635         61.8699         24.1836 
       0.958396          61.655         23.2841 
       0.974128         60.1173         22.4321 
       0.989692         58.5787         21.6314 
        1.00528         57.5236         20.8687 
        1.02113         56.2542          20.131 
        1.03692         55.9796         19.4319 
        1.05264         54.7326         18.7693 
        1.06832         53.2963         18.1387 
        1.08405         52.4255         17.5356 
        1.09979         52.1385         16.9596 
        1.11537         50.6846         16.4153 
        1.13105         49.4887         15.8918 
        1.14679         48.9694         15.3891 
        1.16256         48.2313         14.9073 
        1.17828         47.6694         14.4478 
        1.19395         46.4232         14.0092 
         1.2097         46.4178         13.5868 
        1.22537         45.3082         13.1838 
          1.241         44.6849         12.7984 
        1.25666         43.6993         12.4276 
        1.27241         43.5476         12.0697 
        1.28819         42.4738         11.7254 
        1.30392         42.0706         11.3956 
        1.31957         41.6995           11.08 
        1.33529         40.9436         10.7752 
        1.35108         40.2134         10.4806 
        1.36674         39.7544         10.1993 
         1.3824         39.1372         9.92854 
        1.39811         38.4508         9.66676 
        1.41389         37.9798         9.41344 
        1.42964         37.7121         9.16965 
        1.44531         36.8815         8.93571 
        1.46101         36.6939         8.70945 
        1.47667         36.2236         8.49173 
        1.49229         35.5901         8.28205 
        1.50793         35.2785         8.07923 
        1.52367         34.6871         7.88192 
        1.53953         34.5325         7.68989 
        1.55526         33.9591          7.5058 
        1.57092         33.5574         7.32852 
        1.58662         33.0591         7.15655 
        1.60235         32.6627         6.98979 
        1.61809         32.3125         6.82826 
        1.63369         31.9802         6.67329 
        1.64941         31.5608         6.52203 
        1.66519         31.0799         6.37492 
        1.68085         30.6696          6.2334 
        1.69652         30.3734         6.09615 
        1.71228         30.2001         5.96226 
        1.72806         29.6906          5.8323 
        1.74368         29.3201         5.70752 
        1.75933         29.1291         5.58614 
        1.77505          28.893         5.46774 
        1.79081         28.5022         5.35257 
         1.8065         28.1061         5.24121 
        1.82218          27.785         5.13312 
        1.83797         27.6298         5.02735 
        1.85367         27.2301         4.92515 
        1.86928         27.2347          4.8264 
        1.88497         26.6589         4.72983 
        1.90073         26.4678         4.63555 
        1.91647         26.2049         4.54393 
        1.93218         26.1736         4.45499 
        1.94787         25.7957         4.36856 
        1.96363         25.4423         4.28408 
        1.97935         25.1589         4.20201 
        1.99499         25.0111         4.12256 
        2.01064         24.6294         4.04506 
         2.0264         24.4424         3.96906 
        2.04216          24.323         3.89505 
        2.05781         24.0221          3.8234 
        2.07353          23.803          3.7533 
        2.08928         23.4128         3.68481 
        2.10499         23.2699         3.61821 
        2.12065         23.0311         3.55346 
        2.13633         22.8767         3.49024 
        2.15211         22.5014         3.42815 
        2.16785         22.4827         3.36775 
        2.18349         22.1884         3.30918 
        2.19916         21.9826         3.25188 
        2.21489         21.7241         3.19575 
        2.23063          21.638         3.14092 
         2.2463         21.3703         3.08761 
        2.26194         21.1762         3.03568 
        2.27765         20.8895         2.98467 
        2.29341         20.7178         2.93471 
        2.30914          20.523         2.88599 
        2.32486         20.4092         2.83841 
        2.34061         20.2214         2.79182 
        2.35635         19.9195         2.74632 
        2.37203         19.8208           2.702 
        2.38768         19.6409         2.65874 
        2.40339         19.5492         2.61628 
        2.41914         19.3185         2.57464 
        2.43483          19.151         2.53406 
         2.4505         18.8753         2.49442 
        2.46622          18.792         2.45549 
        2.48195         18.5834          2.4174 
        2.49759         18.3263         2.38031 
        2.51328         18.2728         2.34391 
        2.52906          18.139         2.30803 
        2.54479         17.9335         2.27305 
        2.56049          17.799         2.23885 
        2.57618         17.7145         2.20539 
        2.59189          17.446         2.17257 
        2.60758         17.2575         2.14046 
        2.62325         17.1474         2.10904 
        2.63898         17.0558         2.07815 
        2.65468         16.8455         2.04793 
        2.67044         16.6774         2.01819 
        2.68618         16.5829         1.98911 
        2.70184         16.4075         1.96072 
        2.71755         16.2473         1.93281 
        2.73329         16.1408          1.9054 
        2.74897         15.9922         1.87862 
        2.76462          15.873          1.8524 
        2.78034         15.6837         1.82658 
        2.79607         15.5969         1.80123 
        2.81179         15.4727         1.77638 
        2.82749          15.308         1.75204 
        2.84321         15.2109         1.72812 
        2.85893         15.0016         1.70465 
        2.87462         14.9643         1.68166 
        2.89033         14.8008         1.65908 
        2.90605         14.6851         1.63689 
        2.92176         14.5504         1.61511 
        2.93747         14.4231         1.59375 
        2.95318         14.3204         1.57276 
        2.96891         14.1902         1.55215 
        2.98456         14.0836         1.53199 
        3.00023         13.9531         1.51216 
        3.01596         13.8713         1.49263 
        3.03164         13.7378         1.47349 
        3.04738         13.6248         1.45464 
         3.0631         13.4896         1.43612 
        3.07883         13.4033         1.41792 
        3.09456          13.284         1.40004 
        3.11026         13.1994         1.38249 
        3.12596         13.0951         1.36525 
        3.14163         12.9561         1.34834 
        3.15734         12.8503         1.33168 
        3.17308         12.7956         1.31526 
        3.18879         12.6287         1.29916 
        3.20447         12.5952         1.28336 
         3.2202           12.45         1.26777 
         3.2359          12.338         1.25246 
        3.25157         12.2952         1.23745 
        3.26729         12.1351         1.22263 
        3.28304         12.0337         1.20803 
        3.29877         11.9999         1.19369 
        3.31446         11.8694         1.17961 
        3.33014         11.7965         1.16577 
        3.34585         11.6504         1.15213 
        3.36158         11.5791         1.13869 
        3.37727          11.536          1.1255 
        3.39294         11.4192         1.11254 
        3.40867         11.3048         1.09973 
        3.42439         11.2105         1.08713 
        3.44008         11.1613         1.07476 
        3.45578         11.0279         1.06257 
        3.47153         10.9773         1.05054 
        3.48724         10.9027         1.03871 
        3.50292         10.8095          1.0271 
        3.51859         10.7169         1.01567 
        3.53431         10.5963         1.00438 
        3.55007          10.544        0.993228 
        3.56577         10.4277        0.982293 
        3.58146         10.3353        0.971527 
        3.59719         10.2649        0.960898 
        3.61292         10.2333        0.950431 
        3.62859          10.141         0.94016 
        3.64429         10.0442        0.930021 
        3.66003          9.9765            0.92 
        3.67578         9.88628        0.910131 
        3.69146         9.84189        0.900443 
        3.70712         9.73974        0.890914 
        3.72284         9.66964        0.881488 
        3.73853         9.60684        0.872214 
        3.75422          9.5348         0.86307 
        3.76993          9.4322         0.85405 
        3.78564         9.39015        0.845161 
        3.80137         9.30879        0.836385 
        3.81707         9.22189        0.827752 
        3.83279          9.1424        0.819234 
        3.84853         9.09832        0.810822 
        3.86424         9.02295        0.802544 
        3.87992         8.97919        0.794394 
        3.89561         8.89722        0.786357 
        3.91134         8.82323        0.778414 
        3.92704         8.75405        0.770591 
        3.94273         8.68698        0.762882 
        3.95845         8.62542        0.755265 
        3.97418          8.5589         0.74775 
        3.98988           8.514        0.740348 
        4.00554         8.43941        0.733066 
        4.02125         8.39043        0.725861 
        4.03698         8.31696        0.718742 
        4.05268         8.24156        0.711734 
        4.06839         8.16087        0.704814 
         4.0841         8.10841        0.697989 
        4.09983         8.05725        0.691244 
        4.11555         7.96777        0.684592 
        4.13124         7.92423        0.678044 
        4.14693         7.85971        0.671577 
        4.16266         7.81135         0.66518 
        4.17839         7.75103        0.658869 
        4.19408         7.71259        0.652655 
        4.20977         7.60996        0.646518 
        4.22551         7.58565        0.640445 
        4.24123         7.54324        0.634456 
        4.25691         7.48204        0.628561 
        4.27259         7.39236        0.622738 
        4.28831         7.35555        0.616977 
        4.30404         7.31182        0.611284 
        4.31974         7.24712        0.605675 
        4.33543          7.1866        0.600139 
        4.35116         7.12281        0.594659 
        4.36688         7.09018         0.58925 
        4.38255         7.04217        0.583928 
        4.39825          6.9713         0.57866 
        4.41398         6.92159        0.573447 
         4.4297         6.87675        0.568303 
        4.44541         6.82708        0.563224 
        4.46111          6.8012         0.55821 
        4.47683         6.73681        0.553254 
        4.49251         6.69516        0.548368 
        4.50819          6.6445        0.543542 
         4.5239         6.57341        0.538768 
        4.53962         6.54209        0.534044 
        4.55535         6.48952        0.529375 
        4.57106         6.45221        0.524769 
        4.58678         6.39532        0.520216 
         4.6025         6.35067        0.515716 
        4.61821         6.31936        0.511271 
        4.63391         6.25984        0.506883 
         4.6496         6.21936        0.502548 
        4.66532         6.17867        0.498258 
        4.68103         6.13595        0.494019 
        4.69673         6.09552        0.489834 
        4.71241         6.04832        0.485702 
        4.72811         6.00734         0.48161 
        4.74384         5.98418         0.47756 
        4.75955         5.92512        0.473563 
        4.77525         5.88501        0.469613 
        4.79096         5.84631        0.465704 
        4.80669          5.7897        0.461838 
         4.8224         5.76116         0.45802 
        4.83809          5.7186        0.454249 
        4.85379         5.67105        0.450518 
         4.8695         5.64423        0.446826 
        4.88521          5.6098        0.443177 
        4.90093         5.56288        0.439568 
        4.91663         5.51691        0.436002 
        4.93234         5.49193        0.432472 
        4.94807         5.44691        0.428979 
        4.96377         5.41208        0.425531 
        4.97943         5.37643        0.422128 
        4.99514         5.33018        0.418754 
        5.01086         5.30484        0.415414 
        5.02654          5.2729        0.412119 
        5.04227         5.23428        0.408849 
          5.058         5.18595        0.405614 
        5.07371         5.15902         0.40242 
        5.08942         5.12996         0.39926 
        5.10513          5.0963        0.396134 
        5.12084         5.06339        0.393039 
        5.13656         5.01396        0.389978 
        5.15225          4.9882        0.386955 
        5.16796         4.95912        0.383959 
        5.18369         4.91327        0.380992 
         5.1994         4.88234        0.378062 
        5.21509         4.86124        0.375165 
        5.23079         4.82835        0.372295 
        5.24649         4.79648        0.369457 
        5.26217         4.75948        0.366651 
        5.27788         4.73792         0.36387 
        5.29359         4.69668        0.361117 
        5.30933         4.67073        0.358389 
        5.32504         4.64103        0.355694 
        5.34073         4.61265        0.353029 
        5.35646         4.58717        0.350386 
        5.37218         4.53879         0.34777 
        5.38789         4.52042        0.345184 
        5.40357         4.48799        0.342628 
        5.41929         4.45688        0.340092 
        5.43502         4.42726        0.337582 
         5.4507         4.40809        0.335102 
        5.46639         4.37203        0.332647 
        5.48212         4.35503        0.330212 
        5.49786         4.31626        0.327797 
        5.51353         4.29449        0.325419 
        5.52921         4.27369        0.323061 
        5.54495         4.23768        0.320721 
        5.56066         4.21069        0.318406 
        5.57637         4.18214        0.316114 
        5.59207         4.15605        0.313846 
        5.60778         4.13531          0.3116 
        5.62346         4.11236         0.30938 
        5.63916          4.0765        0.307178 
        5.65487          4.0581        0.304997 
         5.6706          4.0384        0.302835 
        5.68633         4.01097        0.300692 
        5.70203         3.98426        0.298575 
        5.71773         3.96026        0.296479 
        5.73344          3.9335        0.294401 
        5.74916         3.90978        0.292342 
        5.76486         3.88325        0.290305 
        5.78054         3.86238         0.28829 
        5.79626          3.8385        0.286289 
          5.812         3.81244        0.284305 
         5.8277         3.78121        0.282346 
        5.84339          3.7735        0.280405 
        5.85911         3.74473        0.278478 
        5.87484         3.72342         0.27657 
        5.89053         3.69783        0.274684 
        5.90623         3.67997        0.272814 
        5.92195         3.65717        0.270959 
        5.93767         3.62829        0.269121 
        5.95336         3.61449        0.267304 
        5.96905         3.58366        0.265504 
        5.98476         3.57651        0.263719 
        6.00048         3.54024        0.261949 
        6.01617         3.52473        0.260197 
        6.03185         3.50831        0.258464 
        6.04756         3.47782        0.256743 
        6.06331         3.46151        0.255033 
        6.07903         3.43744        0.253343 
        6.09473         3.42216        0.251669 
        6.11044         3.39844        0.250009 
        6.12616         3.38044        0.248364 
        6.14186         3.36233        0.246736 
        6.15755         3.33905        0.245123 
        6.17326         3.32189        0.243522 
        6.18898         3.29905        0.241935 
        6.20467         3.28345        0.240365 
        6.22036         3.26337        0.238809 
         6.2361         3.24645        0.237263 
         6.2518         3.22818        0.235733 
        6.26748         3.21107        0.234219 
        6.28319         3.18677        0.232715 
        6.29893         3.17272        0.231223 
        6.31463         3.15595        0.229746 
        6.33033         3.13977        0.228283 
        6.34604         3.11915        0.226831 
        6.36177         3.10239        0.225391 
        6.37747         3.08024        0.223966 
