# k  (h/Mpc)    Pcb(k)  (Mpc/h)^3    Pcb_linear(k) (Mpc/h)^3   ShotnoiseSubtracted = true
      0.0200456         130.642         132.335 
      0.0350414         96.8646          96.203 
      0.0492313         70.2028         69.8993 
      0.0637834         57.9014         58.1067 
      0.0800726           45.87         46.1178 
       0.096163         33.7687         33.4625 
       0.111083         26.9822         26.6905 
       0.126058         23.5811         23.6533 
       0.142273         19.9341         20.0395 
       0.158546         15.8747          15.827 
        0.17375         13.4323         13.3342 
       0.188953         12.0737         12.0739 
       0.204907         10.5688         10.6829 
       0.220756         9.04401         9.03838 
        0.23588         7.87062         7.86261 
         0.2514         7.14316          7.1431 
       0.267535         6.46356         6.46328 
       0.283568         5.70421         5.69974 
       0.299022         5.08626         5.07818 
       0.314451         4.68032         4.64111 
       0.330372         4.26791          4.2577 
       0.346141         3.87545         3.86451 
       0.361624         3.51722         3.51231 
       0.377134         3.22866         3.23188 
       0.392932          3.0277         2.99039 
       0.408854         2.75686         2.75657 
       0.424564         2.56665         2.54077 
       0.440253         2.36601         2.35558 
       0.455999         2.19022         2.19456 
       0.471626         2.04204         2.04658 
        0.48727          1.9226         1.90816 
       0.502856         1.79947          1.7838 
       0.518488         1.66888         1.67285 
       0.534347         1.56009          1.5697 
       0.550082         1.48079         1.47459 
       0.565732         1.40395         1.38758 
       0.581496         1.31363         1.30788 
       0.597222         1.23889          1.2348 
       0.612804         1.17022         1.16759 
       0.628434         1.10672         1.10495 
       0.644267         1.05239         1.04639 
       0.660051        0.998593        0.992411 
       0.675724        0.943035         0.94257 
       0.691403        0.896876        0.896111 
       0.707174        0.853298        0.852521 
       0.722871        0.822823        0.812005 
        0.73838        0.773882        0.774554 
       0.754018        0.737994        0.739184 
       0.769845        0.700593        0.705637 
        0.78569        0.674616        0.674144 
       0.801365        0.646649        0.644887 
       0.817031        0.619488        0.617393 
       0.832809        0.590173        0.591335 
       0.848511        0.566901        0.566905 
       0.864097        0.546079         0.54403 
       0.879701        0.526331        0.522401 
       0.895507        0.499698        0.501699 
       0.911279        0.483364        0.482166 
        0.92691        0.467497         0.46384 
       0.942635        0.445232         0.44637 
       0.958396         0.42999        0.429766 
       0.974128        0.414336        0.414041 
       0.989692        0.399476        0.399262 
        1.00528        0.383091        0.385185 
        1.02113        0.372963        0.371569 
        1.03692        0.360399        0.358664 
        1.05264         0.34574        0.346434 
        1.06832        0.334699        0.334796 
        1.08405        0.322373        0.323663 
        1.09979        0.312746        0.313032 
        1.11537        0.300804        0.302986 
        1.13105        0.290306        0.293322 
        1.14679         0.28258        0.284045 
        1.16256        0.274598        0.275152 
        1.17828        0.266138         0.26667 
        1.19395        0.257987        0.258576 
         1.2097        0.249329        0.250778 
        1.22537        0.241027         0.24334 
          1.241        0.234277        0.236227 
        1.25666        0.228443        0.229382 
        1.27241        0.220915        0.222778 
        1.28819        0.214145        0.216422 
        1.30392        0.208988        0.210334 
        1.31957        0.202412        0.204508 
        1.33529        0.197588        0.198883 
        1.35108        0.191042        0.193447 
        1.36674        0.186509        0.188254 
         1.3824        0.181329        0.183256 
        1.39811        0.175625        0.178424 
        1.41389        0.172109        0.173749 
        1.42964        0.167134        0.169249 
        1.44531        0.162468        0.164931 
        1.46101        0.157904        0.160755 
        1.47667        0.154298        0.156736 
        1.49229        0.150395        0.152866 
        1.50793        0.146729        0.149123 
        1.52367        0.142789        0.145481 
        1.53953        0.138879        0.141936 
        1.55526        0.135607        0.138538 
        1.57092        0.133207        0.135266 
        1.58662        0.129617        0.132092 
        1.60235         0.12643        0.129014 
        1.61809        0.123188        0.126033 
        1.63369         0.12021        0.123172 
        1.64941        0.117552         0.12038 
        1.66519        0.115005        0.117665 
        1.68085        0.112062        0.115053 
        1.69652        0.109801         0.11252 
        1.71228         0.10687        0.110049 
        1.72806         0.10495         0.10765 
        1.74368        0.102398        0.105347 
        1.75933        0.100346        0.103106 
        1.77505       0.0983077        0.100921 
        1.79081       0.0957448       0.0987951 
         1.8065       0.0939818       0.0967397 
        1.82218       0.0915118       0.0947447 
        1.83797       0.0896584       0.0927924 
        1.85367       0.0877387        0.090906 
        1.86928       0.0855625       0.0890834 
        1.88497       0.0840492        0.087301 
        1.90073       0.0820441       0.0855608 
        1.91647       0.0809733       0.0838697 
        1.93218       0.0796324        0.082228 
        1.94787        0.077257       0.0806327 
        1.96363       0.0758362       0.0790734 
        1.97935       0.0742629       0.0775587 
        1.99499       0.0728525       0.0760923 
        2.01064       0.0713663       0.0746617 
         2.0264       0.0702165       0.0732589 
        2.04216       0.0686987       0.0718929 
        2.05781       0.0671697       0.0705705 
        2.07353       0.0660386       0.0692766 
        2.08928       0.0649143       0.0680124 
        2.10499       0.0635819       0.0667831 
        2.12065       0.0623704        0.065588 
        2.13633       0.0612389       0.0644211 
        2.15211       0.0602163       0.0632751 
        2.16785       0.0586978       0.0621602 
        2.18349        0.057802       0.0610792 
        2.19916       0.0566223       0.0600217 
        2.21489       0.0555683       0.0589857 
        2.23063       0.0547913       0.0579735 
         2.2463       0.0537564       0.0569896 
        2.26194       0.0528248       0.0560311 
        2.27765       0.0519602       0.0550896 
        2.29341       0.0507554       0.0541674 
        2.30914        0.049966       0.0532682 
        2.32486       0.0489928         0.05239 
        2.34061       0.0481488       0.0515301 
        2.35635       0.0474121       0.0506903 
        2.37203       0.0469372       0.0498721 
        2.38768       0.0460824       0.0490737 
        2.40339       0.0451662       0.0482899 
        2.41914       0.0442805       0.0475214 
        2.43483       0.0437379       0.0467724 
         2.4505       0.0428615       0.0460408 
        2.46622       0.0421301       0.0453223 
        2.48195       0.0414418       0.0446191 
        2.49759       0.0407578       0.0439346 
        2.51328       0.0399246       0.0432627 
        2.52906       0.0394462       0.0426006 
        2.54479       0.0388475       0.0419548 
        2.56049       0.0381239       0.0413237 
        2.57618       0.0376145       0.0407061 
        2.59189       0.0368249       0.0401002 
        2.60758       0.0364648       0.0395076 
        2.62325       0.0357173       0.0389277 
        2.63898       0.0352987       0.0383574 
        2.65468       0.0346115       0.0377998 
        2.67044       0.0340962       0.0372508 
        2.68618       0.0335443        0.036714 
        2.70184       0.0332168         0.03619 
        2.71755       0.0326239       0.0356749 
        2.73329       0.0321532        0.035169 
        2.74897       0.0316638       0.0346746 
        2.76462       0.0311358       0.0341908 
        2.78034       0.0307328       0.0337142 
        2.79607        0.030256       0.0332462 
        2.81179       0.0297606       0.0327876 
        2.82749       0.0294471       0.0323382 
        2.84321       0.0289504       0.0318967 
        2.85893       0.0285049       0.0314636 
        2.87462       0.0281084       0.0310393 
        2.89033        0.027698       0.0306224 
        2.90605       0.0272965       0.0302128 
        2.92176       0.0270115        0.029811 
        2.93747       0.0265071       0.0294166 
        2.95318       0.0262183       0.0290293 
        2.96891       0.0257984       0.0286488 
        2.98456       0.0253906       0.0282768 
        3.00023       0.0252149       0.0279108 
        3.01596       0.0247035       0.0275502 
        3.03164       0.0244275        0.027197 
        3.04738       0.0240934        0.026849 
         3.0631       0.0236351       0.0265071 
        3.07883       0.0234645       0.0261712 
        3.09456       0.0231398       0.0258412 
        3.11026       0.0227398       0.0255174 
        3.12596       0.0225706       0.0251991 
        3.14163       0.0222283        0.024887 
        3.15734       0.0219933       0.0245795 
        3.17308       0.0217059       0.0242765 
        3.18879       0.0213765       0.0239793 
        3.20447       0.0210823       0.0236876 
         3.2202       0.0208284       0.0233998 
         3.2359       0.0205968       0.0231174 
        3.25157       0.0203146       0.0228402 
        3.26729       0.0200669       0.0225668 
        3.28304       0.0198721       0.0222973 
        3.29877       0.0196169       0.0220325 
        3.31446       0.0193027       0.0217726 
        3.33014       0.0191213       0.0215172 
        3.34585       0.0188867       0.0212654 
        3.36158       0.0186365       0.0210173 
        3.37727       0.0183901        0.020774 
        3.39294       0.0181685       0.0205347 
        3.40867        0.018047       0.0202983 
        3.42439        0.017798       0.0200658 
        3.44008       0.0176198       0.0198374 
        3.45578       0.0173881       0.0196123 
        3.47153       0.0172188       0.0193903 
        3.48724       0.0169959        0.019172 
        3.50292       0.0168827       0.0189577 
        3.51859       0.0166795       0.0187467 
        3.53431       0.0164206       0.0185383 
        3.55007       0.0162719       0.0183325 
        3.56577       0.0161016       0.0181307 
        3.58146       0.0159242        0.017932 
        3.59719       0.0158053       0.0177358 
        3.61292       0.0155853       0.0175426 
        3.62859       0.0154026        0.017353 
        3.64429       0.0152488       0.0171659 
        3.66003       0.0151536       0.0169809 
        3.67578       0.0149822       0.0167987 
        3.69146       0.0148491       0.0166199 
        3.70712       0.0146929       0.0164441 
        3.72284        0.014538       0.0162701 
        3.73853       0.0143913       0.0160989 
        3.75422       0.0142475       0.0159301 
        3.76993       0.0141284       0.0157636 
        3.78564       0.0139737       0.0155996 
        3.80137       0.0138625       0.0154376 
        3.81707       0.0137118       0.0152782 
        3.83279       0.0135635        0.015121 
        3.84853        0.013464       0.0149658 
        3.86424       0.0133383        0.014813 
        3.87992       0.0132415       0.0146625 
        3.89561       0.0130947       0.0145142 
        3.91134       0.0129906       0.0143676 
        3.92704       0.0128424       0.0142232 
        3.94273       0.0127264       0.0140809 
        3.95845       0.0126161       0.0139403 
        3.97418       0.0125306       0.0138016 
        3.98988       0.0123324        0.013665 
        4.00554       0.0122502       0.0135306 
        4.02125       0.0121077       0.0133976 
        4.03698       0.0119331       0.0132662 
        4.05268       0.0117892       0.0131368 
        4.06839        0.011645       0.0130091 
         4.0841       0.0114629       0.0128831 
        4.09983       0.0112986       0.0127587 
        4.11555       0.0111605       0.0126359 
        4.13124       0.0110074        0.012515 
        4.14693       0.0108754       0.0123956 
        4.16266       0.0107421       0.0122776 
        4.17839       0.0106129       0.0121611 
        4.19408       0.0104608       0.0120464 
        4.20977       0.0103297       0.0119331 
        4.22551       0.0102283        0.011821 
        4.24123       0.0101081       0.0117105 
        4.25691       0.0100277       0.0116017 
        4.27259      0.00988933       0.0114942 
        4.28831      0.00980901       0.0113879 
        4.30404      0.00969614       0.0112828 
        4.31974      0.00963897       0.0111792 
        4.33543      0.00952979       0.0110771 
        4.35116       0.0094279       0.0109759 
        4.36688      0.00938486       0.0108761 
        4.38255      0.00931994       0.0107779 
        4.39825      0.00927861       0.0106806 
        4.41398      0.00919589       0.0105844 
         4.4297      0.00913699       0.0104895 
        4.44541       0.0090581       0.0103957 
        4.46111      0.00899202       0.0103032 
        4.47683      0.00900985       0.0102117 
        4.49251      0.00893429       0.0101215 
        4.50819       0.0089152       0.0100324 
         4.5239      0.00886329      0.00994431 
        4.53962      0.00886105      0.00985713 
        4.55535      0.00880976      0.00977095 
        4.57106      0.00882569      0.00968593 
        4.58678      0.00879508       0.0096019 
         4.6025      0.00878368      0.00951884 
        4.61821      0.00876931      0.00943678 
        4.63391      0.00878176       0.0093558 
         4.6496      0.00876389      0.00927579 
        4.66532      0.00875633       0.0091966 
        4.68103      0.00878841      0.00911837 
        4.69673      0.00878325      0.00904112 
        4.71241       0.0088493      0.00896484 
        4.72811      0.00883718      0.00888932 
        4.74384      0.00887717      0.00881457 
        4.75955      0.00888115      0.00874079 
        4.77525      0.00892559       0.0086679 
        4.79096      0.00898614      0.00859575 
        4.80669      0.00903304      0.00852438 
         4.8224       0.0090613      0.00845391 
        4.83809      0.00915069       0.0083843 
        4.85379      0.00921783      0.00831544 
         4.8695      0.00924523      0.00824729 
        4.88521      0.00931345      0.00817994 
        4.90093      0.00937433      0.00811333 
        4.91663      0.00948386      0.00804752 
        4.93234      0.00955696      0.00798237 
        4.94807      0.00960473      0.00791789 
        4.96377      0.00972087      0.00785425 
        4.97943      0.00989848      0.00779144 
        4.99514      0.00993522      0.00772916 
        5.01086       0.0100432      0.00766751 
        5.02654       0.0101437      0.00760668 
        5.04227       0.0102529      0.00754634 
          5.058       0.0104114      0.00748663 
        5.07371       0.0104703      0.00742767 
        5.08942       0.0106871      0.00736935 
        5.10513       0.0107507      0.00731164 
        5.12084       0.0108794      0.00725452 
        5.13656        0.011046      0.00719803 
        5.15225       0.0112254      0.00714223 
        5.16796       0.0114211      0.00708693 
        5.18369        0.011554      0.00703216 
         5.1994       0.0117318      0.00697808 
        5.21509       0.0118809      0.00692461 
        5.23079        0.012089      0.00687164 
        5.24649       0.0123053      0.00681926 
        5.26217       0.0124485      0.00676747 
        5.27788        0.012677      0.00671614 
        5.29359       0.0128685      0.00666533 
        5.30933       0.0131341      0.00661497 
        5.32504       0.0133483      0.00656522 
        5.34073       0.0135793      0.00651604 
        5.35646       0.0138639      0.00646726 
        5.37218       0.0140568      0.00641897 
        5.38789        0.014276      0.00637124 
        5.40357       0.0145835      0.00632406 
        5.41929       0.0148578      0.00627726 
        5.43502       0.0151663      0.00623092 
         5.4507       0.0154266      0.00618515 
        5.46639       0.0156798      0.00613984 
        5.48212       0.0159789      0.00609488 
        5.49786       0.0164455      0.00605032 
        5.51353       0.0167686      0.00600642 
        5.52921       0.0169803      0.00596291 
        5.54495       0.0173857      0.00591971 
        5.56066       0.0178294      0.00587698 
        5.57637       0.0181208      0.00583468 
        5.59207       0.0185722      0.00579283 
        5.60778       0.0189158      0.00575137 
        5.62346       0.0192368      0.00571038 
        5.63916       0.0196628      0.00566975 
        5.65487       0.0201062      0.00562949 
         5.6706       0.0205397      0.00558958 
        5.68633       0.0211103      0.00555003 
        5.70203       0.0215571      0.00551096 
        5.71773       0.0220303      0.00547226 
        5.73344       0.0223464      0.00543392 
        5.74916       0.0228854       0.0053959 
        5.76486       0.0235807      0.00535831 
        5.78054       0.0240317      0.00532112 
        5.79626       0.0245429      0.00528419 
          5.812       0.0252431      0.00524757 
         5.8277        0.025659       0.0052114 
        5.84339       0.0263076      0.00517558 
        5.85911       0.0270646      0.00514002 
        5.87484       0.0276726       0.0051048 
        5.89053        0.028346      0.00506998 
        5.90623       0.0290758      0.00503547 
        5.92195       0.0296404      0.00500122 
        5.93767        0.030448      0.00496731 
        5.95336       0.0311247      0.00493377 
        5.96905       0.0320048      0.00490055 
        5.98476       0.0323957      0.00486759 
        6.00048       0.0337083      0.00483492 
        6.01617       0.0342341       0.0048026 
        6.03185       0.0350977      0.00477061 
        6.04756       0.0360849      0.00473883 
        6.06331       0.0370907      0.00470728 
        6.07903       0.0378793      0.00467608 
        6.09473       0.0391762      0.00464519 
        6.11044       0.0401937      0.00461455 
        6.12616       0.0410905      0.00458419 
        6.14186       0.0420446      0.00455414 
        6.15755        0.043058      0.00452435 
        6.17326       0.0443408      0.00449481 
        6.18898       0.0455113      0.00446552 
        6.20467         0.04693      0.00443654 
        6.22036       0.0481813      0.00440783 
         6.2361        0.049297      0.00437928 
         6.2518       0.0507211      0.00435104 
        6.26748       0.0514944      0.00432311 
        6.28319       0.0536495      0.00429535 
        6.29893       0.0548814       0.0042678 
        6.31463       0.0565232      0.00424055 
        6.33033        0.057467      0.00421354 
        6.34604       0.0594112      0.00418674 
        6.36177       0.0607422      0.00416016 
        6.37747       0.0628307      0.00413385 
