# k  (h/Mpc)    Pcb(k)  (Mpc/h)^3    Pcb_linear(k) (Mpc/h)^3   ShotnoiseSubtracted = true
      0.0200456         4016.46         4069.43 
      0.0350414         3013.85         2958.34 
      0.0492313         2149.24         2149.47 
      0.0637834         1751.72         1786.84 
      0.0800726         1384.72         1418.17 
       0.096163         1054.55            1029 
       0.111083          851.13          820.76 
       0.126058         722.794         727.361 
       0.142273         614.136         616.235 
       0.158546         498.802         486.696 
        0.17375          429.26         410.041 
       0.188953         388.789         371.283 
       0.204907         331.331          328.51 
       0.220756         293.295         277.939 
        0.23588          257.41         241.783 
         0.2514         232.019         219.657 
       0.267535         217.923         198.752 
       0.283568         190.602         175.273 
       0.299022         176.482         156.159 
       0.314451         168.592         142.719 
       0.330372         148.643         130.928 
       0.346141         136.628         118.837 
       0.361624         126.989         108.007 
       0.377134         116.005         99.3834 
       0.392932         112.681         91.9575 
       0.408854         104.536         84.7671 
       0.424564         99.6197          78.131 
       0.440253         90.6516         72.4365 
       0.455999         83.5358         67.4849 
       0.471626         79.8795         62.9345 
        0.48727          77.573         58.6778 
       0.502856         71.7002         54.8537 
       0.518488         68.5123         51.4417 
       0.534347         64.6398         48.2697 
       0.550082         62.4029          45.345 
       0.565732         60.3456         42.6693 
       0.581496         56.1037         40.2187 
       0.597222         53.7799         37.9712 
       0.612804         51.7416         35.9046 
       0.628434         50.6806         33.9783 
       0.644267         47.9154         32.1774 
       0.660051         45.8996         30.5176 
       0.675724         44.1452          28.985 
       0.691403            43.4         27.5563 
       0.707174         41.8314         26.2159 
       0.722871         40.4967         24.9699 
        0.73838         38.6318         23.8183 
       0.754018         36.6567         22.7306 
       0.769845          36.074          21.699 
        0.78569         34.7858         20.7306 
       0.801365         33.7801         19.8309 
       0.817031         32.4684         18.9854 
       0.832809         31.8557         18.1841 
       0.848511         30.8173         17.4329 
       0.864097         30.0341         16.7295 
       0.879701          29.509         16.0643 
       0.895507         28.4007         15.4277 
       0.911279         27.4714         14.8271 
        0.92691         26.9971         14.2635 
       0.942635           26.41         13.7263 
       0.958396          25.767         13.2157 
       0.974128         25.0671         12.7322 
       0.989692         24.0818         12.2777 
        1.00528         23.8921         11.8448 
        1.02113          23.197         11.4261 
        1.03692         22.7537         11.0293 
        1.05264         22.2903         10.6532 
        1.06832         21.8755         10.2953 
        1.08405           21.24         9.95295 
        1.09979         20.9142         9.62604 
        1.11537         20.2892         9.31711 
        1.13105         19.9934         9.01995 
        1.14679         19.4885         8.73465 
        1.16256         19.1883         8.46118 
        1.17828         18.8653         8.20037 
        1.19395         18.5504         7.95146 
         1.2097          18.101         7.71166 
        1.22537          17.791         7.48294 
          1.241         17.4261         7.26423 
        1.25666         17.2205         7.05373 
        1.27241         16.9138         6.85063 
        1.28819         16.2681          6.6552 
        1.30392         16.4353         6.46799 
        1.31957         15.9797         6.28884 
        1.33529         15.7164         6.11583 
        1.35108          15.532         5.94868 
        1.36674          15.204         5.78898 
         1.3824         14.9446         5.63531 
        1.39811         14.6814         5.48672 
        1.41389         14.4866         5.34294 
        1.42964         14.2925         5.20457 
        1.44531         14.0742         5.07179 
        1.46101         13.8808         4.94337 
        1.47667         13.6559         4.81979 
        1.49229         13.3511         4.70078 
        1.50793         13.2435         4.58566 
        1.52367         13.0847         4.47367 
        1.53953         12.8609         4.36468 
        1.55526          12.634         4.26019 
        1.57092         12.5954         4.15957 
        1.58662         12.3801         4.06196 
        1.60235         12.2023         3.96731 
        1.61809          12.055         3.87563 
        1.63369         11.8405         3.78767 
        1.64941         11.7119         3.70182 
        1.66519          11.554         3.61832 
        1.68085         11.3403           3.538 
        1.69652         11.3368         3.46009 
        1.71228         11.1366          3.3841 
        1.72806         10.9612         3.31033 
        1.74368         10.8545         3.23951 
        1.75933         10.7549         3.17062 
        1.77505          10.582         3.10342 
        1.79081         10.4726         3.03805 
         1.8065         10.4089         2.97484 
        1.82218          10.288         2.91349 
        1.83797         10.1464         2.85346 
        1.85367         10.0416         2.79545 
        1.86928         9.90773          2.7394 
        1.88497         9.82016         2.68459 
        1.90073         9.67223         2.63108 
        1.91647         9.45589         2.57908 
        1.93218         9.45919         2.52859 
        1.94787         9.29423         2.47953 
        1.96363         9.23842         2.43159 
        1.97935         9.17417         2.38501 
        1.99499         9.04711         2.33991 
        2.01064         8.94545         2.29592 
         2.0264          8.8304         2.25278 
        2.04216         8.84508         2.21078 
        2.05781         8.72573         2.17011 
        2.07353         8.60584         2.13032 
        2.08928         8.48115         2.09145 
        2.10499         8.40832         2.05365 
        2.12065         8.37583         2.01689 
        2.13633         8.25636         1.98101 
        2.15211         8.18746         1.94577 
        2.16785         8.05656         1.91149 
        2.18349         8.03886         1.87825 
        2.19916         7.93929         1.84572 
        2.21489         7.88127         1.81387 
        2.23063         7.82577         1.78274 
         2.2463         7.69644         1.75249 
        2.26194         7.62649         1.72301 
        2.27765         7.55809         1.69406 
        2.29341         7.44504          1.6657 
        2.30914          7.4594         1.63805 
        2.32486         7.35248         1.61104 
        2.34061         7.31011          1.5846 
        2.35635         7.22041         1.55878 
        2.37203         7.15685         1.53362 
        2.38768         7.09224         1.50907 
        2.40339         7.03874         1.48496 
        2.41914         6.98349         1.46133 
        2.43483         6.94437          1.4383 
         2.4505         6.85997          1.4158 
        2.46622         6.77392          1.3937 
        2.48195          6.7801         1.37208 
        2.49759         6.64616         1.35103 
        2.51328         6.63149         1.33037 
        2.52906         6.55306         1.31001 
        2.54479         6.49851         1.29015 
        2.56049         6.44983         1.27074 
        2.57618         6.41328         1.25175 
        2.59189         6.40701         1.23312 
        2.60758         6.30412          1.2149 
        2.62325         6.23046         1.19706 
        2.63898         6.24344         1.17953 
        2.65468         6.15315         1.16238 
        2.67044         6.10816          1.1455 
        2.68618         6.04216         1.12899 
        2.70184         6.03545         1.11288 
        2.71755         5.95479         1.09704 
        2.73329         5.89441         1.08148 
        2.74897         5.87206         1.06628 
        2.76462         5.83186          1.0514 
        2.78034         5.78389         1.03674 
        2.79607         5.73757         1.02235 
        2.81179          5.6896         1.00825 
        2.82749         5.62909        0.994432 
        2.84321         5.60389        0.980856 
        2.85893           5.563        0.967537 
        2.87462         5.53187        0.954489 
        2.89033         5.48018        0.941669 
        2.90605         5.44398        0.929074 
        2.92176         5.38097        0.916716 
        2.93747         5.35345        0.904589 
        2.95318         5.30328        0.892679 
        2.96891         5.27123        0.880977 
        2.98456         5.23415        0.869538 
        3.00023         5.21618        0.858285 
        3.01596         5.13856        0.847196 
        3.03164         5.11409        0.836334 
        3.04738         5.09167        0.825632 
         3.0631         5.06067         0.81512 
        3.07883         5.01239         0.80479 
        3.09456          4.9533        0.794642 
        3.11026         4.94414        0.784684 
        3.12596         4.90545        0.774898 
        3.14163         4.87526        0.765301 
        3.15734         4.83474        0.755844 
        3.17308         4.81702        0.746525 
        3.18879         4.77797        0.737388 
        3.20447         4.74597        0.728417 
         3.2202         4.69731        0.719568 
         3.2359         4.66491        0.710881 
        3.25157          4.6488        0.702359 
        3.26729         4.61707         0.69395 
        3.28304         4.57499        0.685663 
        3.29877         4.55599        0.677521 
        3.31446         4.53459         0.66953 
        3.33014         4.47936        0.661675 
        3.34585          4.4659        0.653933 
        3.36158         4.42912        0.646304 
        3.37727          4.4014         0.63882 
        3.39294          4.3741        0.631462 
        3.40867         4.35068        0.624193 
        3.42439         4.29628        0.617043 
        3.44008         4.28354        0.610018 
        3.45578         4.25331        0.603098 
        3.47153         4.22176         0.59627 
        3.48724         4.20276        0.589559 
        3.50292         4.17432        0.582967 
        3.51859         4.14159         0.57648 
        3.53431         4.12011         0.57007 
        3.55007         4.09882        0.563743 
        3.56577         4.05152        0.557536 
        3.58146         4.04025        0.551426 
        3.59719          4.0182        0.545393 
        3.61292          3.9923        0.539452 
        3.62859         3.97096        0.533622 
        3.64429         3.93595        0.527867 
        3.66003          3.9233         0.52218 
        3.67578         3.89685        0.516578 
        3.69146         3.86437        0.511079 
        3.70712         3.85559        0.505671 
        3.72284         3.82333        0.500321 
        3.73853         3.79368        0.495057 
        3.75422         3.76589        0.489867 
        3.76993         3.75238        0.484747 
        3.78564         3.72761        0.479702 
        3.80137         3.69884        0.474721 
        3.81707         3.68223        0.469821 
        3.83279         3.65528        0.464986 
        3.84853         3.62567        0.460212 
        3.86424         3.60945        0.455513 
        3.87992         3.59034        0.450887 
        3.89561           3.564        0.446326 
        3.91134         3.54075        0.441818 
        3.92704         3.51337        0.437377 
        3.94273         3.49969        0.433002 
        3.95845         3.47194        0.428678 
        3.97418         3.46115        0.424413 
        3.98988         3.43724        0.420212 
        4.00554         3.41097        0.416079 
        4.02125         3.38303        0.411989 
        4.03698          3.3655        0.407948 
        4.05268         3.34395        0.403971 
        4.06839         3.32407        0.400043 
         4.0841         3.30291        0.396169 
        4.09983         3.28349        0.392341 
        4.11555         3.26118        0.388565 
        4.13124         3.24211        0.384849 
        4.14693         3.22616        0.381178 
        4.16266         3.20051        0.377547 
        4.17839          3.1796        0.373965 
        4.19408         3.16544        0.370438 
        4.20977         3.14984        0.366955 
        4.22551         3.11907        0.363508 
        4.24123         3.10121        0.360109 
        4.25691         3.08675        0.356763 
        4.27259         3.06376        0.353458 
        4.28831         3.03647        0.350188 
        4.30404         3.03496        0.346956 
        4.31974         3.01193        0.343773 
        4.33543         2.98996        0.340631 
        4.35116         2.97415        0.337521 
        4.36688         2.95856         0.33445 
        4.38255         2.93726         0.33143 
        4.39825         2.92237         0.32844 
        4.41398         2.90915        0.325481 
         4.4297         2.88808        0.322561 
        4.44541         2.86716        0.319678 
        4.46111           2.846        0.316833 
        4.47683         2.83125         0.31402 
        4.49251         2.82149        0.311246 
        4.50819         2.79758        0.308507 
         4.5239         2.78842        0.305797 
        4.53962         2.76684        0.303116 
        4.55535         2.75245        0.300466 
        4.57106         2.73619        0.297852 
        4.58678         2.71852        0.295268 
         4.6025         2.70946        0.292714 
        4.61821         2.69424         0.29019 
        4.63391         2.67208          0.2877 
         4.6496         2.66072         0.28524 
        4.66532         2.64879        0.282805 
        4.68103         2.62666        0.280399 
        4.69673         2.61632        0.278023 
        4.71241         2.60273        0.275678 
        4.72811         2.58475        0.273355 
        4.74384         2.57689        0.271057 
        4.75955         2.55687        0.268788 
        4.77525         2.54159        0.266546 
        4.79096         2.53067        0.264328 
        4.80669          2.5205        0.262133 
         4.8224         2.50116        0.259966 
        4.83809         2.49265        0.257826 
        4.85379          2.4754        0.255708 
         4.8695         2.46597        0.253612 
        4.88521         2.44686        0.251541 
        4.90093         2.44045        0.249493 
        4.91663         2.42496        0.247469 
        4.93234         2.41554        0.245466 
        4.94807         2.40213        0.243483 
        4.96377         2.38444        0.241526 
        4.97943         2.37748        0.239594 
        4.99514         2.35989        0.237679 
        5.01086         2.34894        0.235783 
        5.02654         2.33785        0.233913 
        5.04227         2.32529        0.232057 
          5.058         2.31711        0.230221 
        5.07371         2.30464        0.228408 
        5.08942         2.29272        0.226615 
        5.10513          2.2807         0.22484 
        5.12084         2.26329        0.223084 
        5.13656         2.25413        0.221346 
        5.15225         2.23821         0.21963 
        5.16796         2.23027         0.21793 
        5.18369         2.21951        0.216246 
         5.1994         2.20741        0.214583 
        5.21509         2.19883        0.212939 
        5.23079         2.19077         0.21131 
        5.24649         2.17943        0.209699 
        5.26217         2.16685        0.208106 
        5.27788         2.15386        0.206528 
        5.29359          2.1471        0.204965 
        5.30933         2.13461        0.203417 
        5.32504         2.12622        0.201887 
        5.34073         2.11239        0.200374 
        5.35646         2.10155        0.198874 
        5.37218         2.09589        0.197389 
        5.38789         2.07805        0.195922 
        5.40357         2.07276        0.194471 
        5.41929         2.06569        0.193032 
        5.43502          2.0568        0.191607 
         5.4507         2.04208          0.1902 
        5.46639         2.03238        0.188806 
        5.48212         2.02375        0.187424 
        5.49786         2.01303        0.186053 
        5.51353         2.00431        0.184703 
        5.52921         1.99238        0.183365 
        5.54495         1.98707        0.182037 
        5.56066         1.97634        0.180723 
        5.57637         1.96317        0.179422 
        5.59207         1.95874        0.178135 
        5.60778         1.95177         0.17686 
        5.62346         1.93626          0.1756 
        5.63916          1.9271         0.17435 
        5.65487         1.91995        0.173112 
         5.6706         1.91423        0.171885 
        5.68633         1.90263        0.170669 
        5.70203         1.89683        0.169467 
        5.71773         1.88526        0.168277 
        5.73344         1.87772        0.167098 
        5.74916         1.87103        0.165929 
        5.76486         1.85939        0.164773 
        5.78054         1.85139         0.16363 
        5.79626         1.84459        0.162494 
          5.812          1.8311        0.161368 
         5.8277         1.82881        0.160256 
        5.84339         1.81822        0.159154 
        5.85911          1.8104        0.158061 
        5.87484         1.80009        0.156978 
        5.89053         1.79795        0.155907 
        5.90623            1.79        0.154846 
        5.92195         1.77612        0.153793 
        5.93767          1.7716         0.15275 
        5.95336          1.7651        0.151718 
        5.96905         1.75756        0.150697 
        5.98476          1.7496        0.149683 
        6.00048         1.73891        0.148679 
        6.01617         1.73402        0.147685 
        6.03185         1.72527        0.146701 
        6.04756         1.71946        0.145724 
        6.06331         1.71187        0.144753 
        6.07903         1.70328        0.143794 
        6.09473         1.69654        0.142844 
        6.11044         1.69202        0.141902 
        6.12616         1.68157        0.140968 
        6.14186         1.67377        0.140044 
        6.15755         1.66431        0.139128 
        6.17326         1.66074         0.13822 
        6.18898         1.65594        0.137319 
        6.20467         1.64981        0.136428 
        6.22036         1.64336        0.135545 
         6.2361          1.6364        0.134667 
         6.2518           1.628        0.133799 
        6.26748         1.62357         0.13294 
        6.28319         1.61365        0.132086 
        6.29893         1.60582        0.131239 
        6.31463         1.60105        0.130401 
        6.33033         1.59409         0.12957 
        6.34604         1.58706        0.128746 
        6.36177         1.58301        0.127929 
        6.37747         1.57684         0.12712 
