# k  (h/Mpc)    Pcb(k)  (Mpc/h)^3    Pcb_linear(k) (Mpc/h)^3   ShotnoiseSubtracted = true
      0.0200456         5723.15         5800.56 
      0.0350414         4305.88         4216.81 
      0.0492313         3057.22         3063.86 
      0.0637834         2486.15         2546.96 
      0.0800726         1963.71         2021.46 
       0.096163          1507.8         1466.74 
       0.111083         1219.63         1169.91 
       0.126058          1029.7         1036.78 
       0.142273         877.901         878.381 
       0.158546         715.973         693.737 
        0.17375         618.591         584.473 
       0.188953         563.288         529.227 
       0.204907         479.441         468.258 
       0.220756         426.432         396.174 
        0.23588         375.601         344.637 
         0.2514         337.517         313.099 
       0.267535           320.7         283.301 
       0.283568         279.801         249.834 
       0.299022         261.881         222.589 
       0.314451         253.656         203.431 
       0.330372          221.24         186.625 
       0.346141         204.172         169.391 
       0.361624         191.602         153.953 
       0.377134          175.38         141.661 
       0.392932         170.697         131.076 
       0.408854         160.114         120.827 
       0.424564         152.701         111.368 
       0.440253         138.436         103.251 
       0.455999         129.043          96.193 
       0.471626         124.753         89.7067 
        0.48727         120.621         83.6393 
       0.502856         110.601         78.1885 
       0.518488          107.74          73.325 
       0.534347         101.301         68.8037 
       0.550082         98.4501         64.6348 
       0.565732         95.8183         60.8208 
       0.581496         88.4255         57.3277 
       0.597222         85.8799         54.1241 
       0.612804         82.9502         51.1784 
       0.628434         80.9416         48.4326 
       0.644267          76.607         45.8657 
       0.660051         73.9276         43.4998 
       0.675724         71.9416         41.3152 
       0.691403         70.5664         39.2787 
       0.707174         68.1023         37.3681 
       0.722871         66.3694         35.5921 
        0.73838         63.8469         33.9506 
       0.754018         60.4254         32.4002 
       0.769845         59.8178         30.9298 
        0.78569         57.7564         29.5494 
       0.801365          56.197          28.267 
       0.817031         54.1405         27.0618 
       0.832809          53.219         25.9196 
       0.848511           51.78         24.8488 
       0.864097          50.742         23.8462 
       0.879701         49.6848         22.8981 
       0.895507         47.8831         21.9907 
       0.911279         46.9212         21.1345 
        0.92691         45.7482         20.3312 
       0.942635         44.8257         19.5655 
       0.958396         44.4154         18.8377 
       0.974128         43.2307         18.1484 
       0.989692         41.8776         17.5006 
        1.00528         41.2823         16.8836 
        1.02113         40.3156         16.2868 
        1.03692         39.8854         15.7211 
        1.05264         38.9336          15.185 
        1.06832         38.1572         14.6749 
        1.08405         37.2519         14.1869 
        1.09979         37.0658          13.721 
        1.11537         35.9198         13.2806 
        1.13105         35.1475          12.857 
        1.14679         34.5724         12.4504 
        1.16256         34.1261         12.0606 
        1.17828         33.6556         11.6888 
        1.19395         32.8721          11.334 
         1.2097         32.5646         10.9922 
        1.22537         31.8791         10.6662 
          1.241         31.3132         10.3544 
        1.25666         30.8577         10.0544 
        1.27241         30.5485         9.76488 
        1.28819         29.4815         9.48632 
        1.30392         29.6283         9.21947 
        1.31957         29.0966          8.9641 
        1.33529         28.5032         8.71751 
        1.35108         28.1371         8.47924 
        1.36674         27.8276         8.25161 
         1.3824         27.3138         8.03257 
        1.39811         26.7284         7.82077 
        1.41389         26.4729         7.61583 
        1.42964         26.2643         7.41859 
        1.44531         25.7324         7.22933 
        1.46101         25.5017         7.04628 
        1.47667          25.177         6.87013 
        1.49229         24.6578         6.70049 
        1.50793         24.4797         6.53641 
        1.52367         24.0816         6.37677 
        1.53953         23.9009         6.22141 
        1.55526         23.4678         6.07248 
        1.57092         23.3153         5.92905 
        1.58662         22.9804         5.78992 
        1.60235         22.6335           5.655 
        1.61809         22.4175         5.52432 
        1.63369         22.1962         5.39894 
        1.64941         21.9013         5.27657 
        1.66519         21.5453         5.15755 
        1.68085         21.1729         5.04306 
        1.69652         21.1562         4.93202 
        1.71228         20.8614          4.8237 
        1.72806         20.5328         4.71855 
        1.74368         20.3481          4.6176 
        1.75933         20.1418          4.5194 
        1.77505         19.9368         4.42361 
        1.79081         19.7213         4.33043 
         1.8065         19.4839         4.24034 
        1.82218         19.3047         4.15289 
        1.83797         19.1753         4.06732 
        1.85367         19.0187         3.98463 
        1.86928         18.8255         3.90474 
        1.88497         18.5604         3.82661 
        1.90073         18.3437         3.75034 
        1.91647          18.041         3.67621 
        1.93218         18.1283         3.60425 
        1.94787         17.7729         3.53433 
        1.96363         17.6803         3.46598 
        1.97935         17.3928         3.39959 
        1.99499         17.2174         3.33531 
        2.01064         17.0684          3.2726 
         2.0264         16.8853         3.21112 
        2.04216         16.8247         3.15124 
        2.05781         16.6099         3.09328 
        2.07353         16.4591         3.03656 
        2.08928         16.2347         2.98115 
        2.10499           16.07         2.92727 
        2.12065         15.9539         2.87488 
        2.13633         15.8346         2.82373 
        2.15211         15.6245          2.7735 
        2.16785         15.5723         2.72463 
        2.18349         15.3347         2.67725 
        2.19916         15.2104          2.6309 
        2.21489         15.0321         2.58549 
        2.23063         14.9913         2.54112 
         2.2463         14.7588         2.49799 
        2.26194         14.6632         2.45598 
        2.27765         14.4335         2.41471 
        2.29341         14.3752         2.37429 
        2.30914         14.2115         2.33488 
        2.32486         14.1592         2.29638 
        2.34061         14.0094         2.25869 
        2.35635         13.8707         2.22188 
        2.37203         13.7355         2.18602 
        2.38768         13.5691         2.15102 
        2.40339         13.5473         2.11667 
        2.41914         13.3578         2.08298 
        2.43483          13.226         2.05015 
         2.4505          13.101         2.01808 
        2.46622         13.0596         1.98659 
        2.48195         12.9317         1.95576 
        2.49759         12.7403         1.92576 
        2.51328         12.7569         1.89631 
        2.52906         12.5665         1.86729 
        2.54479         12.4521         1.83898 
        2.56049         12.3108         1.81132 
        2.57618         12.2979         1.78425 
        2.59189         12.2196         1.75769 
        2.60758         12.0274         1.73171 
        2.62325         11.9492          1.7063 
        2.63898         11.9029          1.6813 
        2.65468         11.7075         1.65686 
        2.67044         11.6919         1.63279 
        2.68618         11.5948         1.60927 
        2.70184         11.4665          1.5863 
        2.71755         11.3873         1.56372 
        2.73329         11.2665         1.54154 
        2.74897         11.1967         1.51987 
        2.76462         11.1186         1.49866 
        2.78034         10.9932         1.47777 
        2.79607         10.9478         1.45726 
        2.81179         10.8241         1.43716 
        2.82749         10.7533         1.41746 
        2.84321         10.6745         1.39811 
        2.85893         10.5803         1.37913 
        2.87462         10.5236         1.36053 
        2.89033         10.4015         1.34226 
        2.90605         10.3529          1.3243 
        2.92176         10.2443         1.30669 
        2.93747         10.1645          1.2894 
        2.95318         10.0827         1.27242 
        2.96891          10.033         1.25574 
        2.98456         9.91628         1.23944 
        3.00023         9.85643          1.2234 
        3.01596         9.75253         1.20759 
        3.03164         9.74093         1.19211 
        3.04738         9.62027         1.17685 
         3.0631         9.50417         1.16187 
        3.07883         9.45997         1.14715 
        3.09456         9.40335         1.13268 
        3.11026         9.34785         1.11849 
        3.12596         9.24322         1.10454 
        3.14163         9.21512         1.09086 
        3.15734         9.10583         1.07738 
        3.17308         9.06155          1.0641 
        3.18879         8.98176         1.05107 
        3.20447         8.89024         1.03829 
         3.2202           8.841         1.02567 
         3.2359         8.74425         1.01329 
        3.25157         8.73734         1.00114 
        3.26729         8.64074        0.989156 
        3.28304         8.55359        0.977343 
        3.29877          8.5178        0.965739 
        3.31446         8.45611        0.954348 
        3.33014         8.38623        0.943151 
        3.34585         8.34856        0.932116 
        3.36158         8.27741        0.921242 
        3.37727         8.23204        0.910574 
        3.39294         8.14474        0.900086 
        3.40867         8.10723        0.889725 
        3.42439          8.0167        0.879533 
        3.44008         7.95928         0.86952 
        3.45578         7.90908        0.859656 
        3.47153         7.83564        0.849923 
        3.48724           7.781        0.840357 
        3.50292          7.7023        0.830962 
        3.51859         7.69023        0.821714 
        3.53431         7.61938        0.812578 
        3.55007         7.54972        0.803559 
        3.56577         7.48898        0.794712 
        3.58146         7.46903        0.786002 
        3.59719         7.39576        0.777403 
        3.61292         7.35408        0.768935 
        3.62859         7.30977        0.760625 
        3.64429         7.24499        0.752422 
        3.66003         7.19196        0.744315 
        3.67578         7.13086         0.73633 
        3.69146         7.10785        0.728492 
        3.70712         7.04515        0.720783 
        3.72284          6.9696        0.713157 
        3.73853         6.95279        0.705654 
        3.75422         6.87613        0.698256 
        3.76993         6.84224        0.690958 
        3.78564         6.79151        0.683768 
        3.80137         6.76552        0.676667 
        3.81707         6.67516        0.669683 
        3.83279         6.64823        0.662791 
        3.84853         6.58773        0.655985 
        3.86424         6.55205        0.649288 
        3.87992         6.50438        0.642695 
        3.89561         6.46769        0.636192 
        3.91134         6.39599        0.629767 
        3.92704         6.36838        0.623437 
        3.94273         6.32941        0.617201 
        3.95845         6.29584        0.611038 
        3.97418           6.237        0.604958 
        3.98988         6.20085         0.59897 
        4.00554         6.15436        0.593078 
        4.02125         6.10404        0.587249 
        4.03698          6.0686        0.581489 
        4.05268         6.00564         0.57582 
        4.06839         5.96081        0.570222 
         4.0841         5.93345          0.5647 
        4.09983         5.88712        0.559243 
        4.11555         5.84089         0.55386 
        4.13124         5.79468        0.548564 
        4.14693         5.76448        0.543331 
        4.16266         5.73145        0.538156 
        4.17839         5.69791         0.53305 
        4.19408         5.64566        0.528022 
        4.20977         5.61475        0.523057 
        4.22551         5.57913        0.518144 
        4.24123          5.5238        0.513299 
        4.25691         5.49021        0.508529 
        4.27259          5.4449        0.503818 
        4.28831         5.40459        0.499158 
        4.30404         5.36648        0.494552 
        4.31974         5.33382        0.490014 
        4.33543         5.29015        0.485535 
        4.35116         5.25957        0.481102 
        4.36688         5.22363        0.476725 
        4.38255         5.19728         0.47242 
        4.39825         5.15496        0.468158 
        4.41398         5.11918         0.46394 
         4.4297         5.10506        0.459779 
        4.44541         5.04815        0.455669 
        4.46111         5.01731        0.451613 
        4.47683         4.99135        0.447603 
        4.49251         4.96318         0.44365 
        4.50819         4.92798        0.439746 
         4.5239         4.89417        0.435883 
        4.53962         4.85364        0.432062 
        4.55535         4.82953        0.428285 
        4.57106         4.80136        0.424558 
        4.58678         4.75788        0.420875 
         4.6025          4.7369        0.417234 
        4.61821         4.69322        0.413637 
        4.63391         4.65826        0.410087 
         4.6496         4.63081        0.406581 
        4.66532         4.60287         0.40311 
        4.68103         4.56944         0.39968 
        4.69673         4.55041        0.396294 
        4.71241         4.52627        0.392951 
        4.72811         4.48733        0.389641 
        4.74384          4.4634        0.386364 
        4.75955         4.42527         0.38313 
        4.77525         4.39461        0.379935 
        4.79096         4.37853        0.376772 
        4.80669         4.35486        0.373644 
         4.8224         4.31113        0.370555 
        4.83809          4.2922        0.367504 
        4.85379         4.25128        0.364486 
         4.8695          4.2335        0.361499 
        4.88521         4.20907        0.358547 
        4.90093         4.18235        0.355627 
        4.91663         4.16572        0.352742 
        4.93234         4.12566        0.349887 
        4.94807         4.10431         0.34706 
        4.96377         4.08004        0.344271 
        4.97943         4.05267        0.341518 
        4.99514         4.03151        0.338788 
        5.01086         4.00651        0.336085 
        5.02654         3.97864        0.333419 
        5.04227         3.95439        0.330775 
          5.058         3.92707        0.328157 
        5.07371          3.9047        0.325573 
        5.08942         3.87557        0.323016 
        5.10513         3.85001        0.320487 
        5.12084         3.83412        0.317983 
        5.13656         3.81041        0.315507 
        5.15225         3.79116        0.313061 
        5.16796         3.76841        0.310637 
        5.18369         3.73297        0.308237 
         5.1994          3.7176        0.305866 
        5.21509         3.68773        0.303522 
        5.23079          3.6705        0.301201 
        5.24649         3.64459        0.298905 
        5.26217         3.61956        0.296635 
        5.27788         3.60629        0.294385 
        5.29359          3.5862        0.292158 
        5.30933         3.56551         0.28995 
        5.32504         3.53798         0.28777 
        5.34073         3.52165        0.285614 
        5.35646         3.49629        0.283476 
        5.37218          3.4833        0.281359 
        5.38789         3.46148        0.279267 
        5.40357          3.4376        0.277199 
        5.41929          3.4103        0.275147 
        5.43502         3.39477        0.273116 
         5.4507         3.37681         0.27111 
        5.46639         3.34736        0.269124 
        5.48212         3.33205        0.267154 
        5.49786         3.31408          0.2652 
        5.51353         3.29412        0.263276 
        5.52921         3.26965        0.261369 
        5.54495         3.25712        0.259475 
        5.56066         3.24433        0.257602 
        5.57637         3.21859        0.255748 
        5.59207         3.20111        0.253914 
        5.60778         3.18288        0.252097 
        5.62346         3.16742          0.2503 
        5.63916         3.13802        0.248519 
        5.65487         3.12665        0.246754 
         5.6706         3.10388        0.245005 
        5.68633         3.09705        0.243272 
        5.70203         3.08066        0.241559 
        5.71773         3.04698        0.239863 
        5.73344         3.03624        0.238182 
        5.74916         3.02257        0.236516 
        5.76486         3.00431        0.234868 
        5.78054         2.98831        0.233238 
        5.79626         2.97365        0.231619 
          5.812         2.94901        0.230014 
         5.8277         2.93766        0.228428 
        5.84339         2.92004        0.226858 
        5.85911         2.90342          0.2253 
        5.87484          2.8835        0.223756 
        5.89053         2.86878         0.22223 
        5.90623         2.85501        0.220717 
        5.92195         2.84314        0.219216 
        5.93767         2.82318        0.217729 
        5.95336         2.80813        0.216259 
        5.96905         2.79316        0.214803 
        5.98476         2.77388        0.213358 
        6.00048         2.76545        0.211926 
        6.01617         2.74545         0.21051 
        6.03185         2.73059        0.209107 
        6.04756         2.71266        0.207715 
        6.06331         2.69964        0.206331 
        6.07903         2.68931        0.204964 
        6.09473            2.67         0.20361 
        6.11044         2.65675        0.202267 
        6.12616         2.64665        0.200936 
        6.14186         2.62894        0.199619 
        6.15755         2.61851        0.198313 
        6.17326         2.60343        0.197019 
        6.18898         2.58294        0.195735 
        6.20467         2.57649        0.194465 
        6.22036         2.56358        0.193206 
         6.2361         2.54703        0.191955 
         6.2518          2.5324        0.190717 
        6.26748         2.52097        0.189492 
        6.28319         2.50706        0.188275 
        6.29893         2.49209        0.187068 
        6.31463         2.48263        0.185873 
        6.33033         2.47492         0.18469 
        6.34604          2.4543        0.183515 
        6.36177         2.44634         0.18235 
        6.37747         2.43202        0.181197 
