# k  (h/Mpc)    Pcb(k)  (Mpc/h)^3    Pcb_linear(k) (Mpc/h)^3   ShotnoiseSubtracted = true
      0.0200456         18740.7           19056 
      0.0350414         14271.5           13853 
      0.0492313         9883.96         10065.4 
      0.0637834         7974.01         8367.24 
      0.0800726          6264.7         6640.87 
       0.096163         5002.09         4818.53 
       0.111083         4073.11         3843.38 
       0.126058         3371.57         3406.02 
       0.142273         2941.66         2885.65 
       0.158546         2415.96         2279.06 
        0.17375         2145.47          1920.1 
       0.188953         2020.97         1738.61 
       0.204907         1735.87         1538.32 
       0.220756         1565.43         1301.51 
        0.23588         1396.71          1132.2 
         0.2514         1259.33         1028.59 
       0.267535         1219.55         930.699 
       0.283568         1079.73         820.752 
       0.299022         1031.13         731.247 
       0.314451         1068.21          668.31 
       0.330372         932.562           613.1 
       0.346141         858.578         556.481 
       0.361624         824.019         505.765 
       0.377134         786.157         465.384 
       0.392932         754.162         430.611 
       0.408854         720.678          396.94 
       0.424564         703.352         365.865 
       0.440253         647.247         339.199 
       0.455999         619.536         316.013 
       0.471626         631.156         294.704 
        0.48727         595.768         274.771 
       0.502856         563.074         256.864 
       0.518488         553.865         240.887 
       0.534347         525.247         226.033 
       0.550082         502.559         212.338 
       0.565732         497.637         199.808 
       0.581496         486.058         188.332 
       0.597222         473.368         177.808 
       0.612804         462.758         168.131 
       0.628434         444.003         159.111 
       0.644267         429.478         150.677 
       0.660051         424.034         142.905 
       0.675724         416.035         135.728 
       0.691403          406.48         129.038 
       0.707174         391.959         122.761 
       0.722871         385.955         116.927 
        0.73838         380.237         111.534 
       0.754018         367.815         106.441 
       0.769845         365.217          101.61 
        0.78569         357.487         97.0754 
       0.801365         345.953         92.8624 
       0.817031         343.155         88.9033 
       0.832809         337.423          85.151 
       0.848511         330.238         81.6332 
       0.864097         322.119         78.3392 
       0.879701         320.235         75.2247 
       0.895507         310.078         72.2436 
       0.911279         303.817          69.431 
        0.92691         301.347         66.7921 
       0.942635         298.634         64.2764 
       0.958396         289.269         61.8855 
       0.974128         286.526         59.6211 
       0.989692         276.069         57.4929 
        1.00528         275.781         55.4659 
        1.02113         271.692         53.5052 
        1.03692         266.021         51.6469 
        1.05264         261.669         49.8858 
        1.06832         259.971         48.2099 
        1.08405          254.32         46.6068 
        1.09979         251.356          45.076 
        1.11537         245.731         43.6294 
        1.13105         242.006         42.2378 
        1.14679         239.695         40.9019 
        1.16256         237.152         39.6213 
        1.17828         233.839            38.4 
        1.19395         227.691         37.2344 
         1.2097         227.616         36.1115 
        1.22537         224.558         35.0405 
          1.241         218.634         34.0163 
        1.25666         217.122         33.0306 
        1.27241         213.301         32.0795 
        1.28819         210.466         31.1644 
        1.30392         208.247         30.2877 
        1.31957         202.857         29.4488 
        1.33529         200.177         28.6387 
        1.35108         199.235         27.8559 
        1.36674          194.41         27.1081 
         1.3824         193.198         26.3885 
        1.39811         191.209         25.6927 
        1.41389         186.389         25.0195 
        1.42964         184.415         24.3715 
        1.44531         182.795         23.7497 
        1.46101         179.365         23.1484 
        1.47667          177.82         22.5697 
        1.49229         175.197         22.0124 
        1.50793         172.293         21.4733 
        1.52367         170.675         20.9489 
        1.53953         166.817         20.4385 
        1.55526         166.258         19.9493 
        1.57092         164.831         19.4781 
        1.58662         160.519          19.021 
        1.60235          159.23         18.5778 
        1.61809         156.783         18.1485 
        1.63369         154.347         17.7366 
        1.64941         153.056         17.3345 
        1.66519         151.131         16.9435 
        1.68085           148.5         16.5674 
        1.69652         146.823         16.2026 
        1.71228         145.015         15.8468 
        1.72806         143.772         15.5013 
        1.74368         141.834         15.1697 
        1.75933         140.626         14.8471 
        1.77505          138.37         14.5324 
        1.79081         135.794         14.2263 
         1.8065         134.133         13.9303 
        1.82218         132.203          13.643 
        1.83797         131.585         13.3619 
        1.85367         129.825         13.0903 
        1.86928         128.373         12.8278 
        1.88497         126.584         12.5712 
        1.90073         125.552         12.3206 
        1.91647         123.428         12.0771 
        1.93218         122.204         11.8407 
        1.94787         120.173         11.6109 
        1.96363         119.465         11.3864 
        1.97935         117.985         11.1683 
        1.99499         117.061         10.9571 
        2.01064         114.377         10.7511 
         2.0264         113.724         10.5491 
        2.04216         111.766         10.3524 
        2.05781         110.892          10.162 
        2.07353         109.378         9.97569 
        2.08928         108.016         9.79364 
        2.10499         106.938         9.61663 
        2.12065         106.006         9.44454 
        2.13633         105.052         9.27651 
        2.15211         103.298         9.11149 
        2.16785         101.897         8.95094 
        2.18349         100.525         8.79528 
        2.19916         99.4803           8.643 
        2.21489         98.8044         8.49382 
        2.23063         97.0383         8.34807 
         2.2463         96.2662         8.20639 
        2.26194         95.2076         8.06836 
        2.27765         93.8524          7.9328 
        2.29341         92.9924             7.8 
        2.30914         91.7765         7.67052 
        2.32486         90.2159         7.54405 
        2.34061         89.7763         7.42023 
        2.35635          88.465          7.2993 
        2.37203         87.1959         7.18149 
        2.38768         86.3606         7.06652 
        2.40339         85.9231         6.95365 
        2.41914         84.2402         6.84299 
        2.43483         83.6032         6.73513 
         2.4505         82.5821         6.62978 
        2.46622         81.8088         6.52632 
        2.48195         80.7839         6.42506 
        2.49759          79.809         6.32649 
        2.51328         78.9296         6.22974 
        2.52906          77.489          6.1344 
        2.54479         76.9939         6.04141 
        2.56049         76.0115         5.95053 
        2.57618         75.0858         5.86159 
        2.59189         74.6676         5.77435 
        2.60758         73.2423         5.68901 
        2.62325         72.8382         5.60551 
        2.63898         72.0535         5.52339 
        2.65468         71.2592         5.44309 
        2.67044         70.4008         5.36404 
        2.68618         69.7704         5.28675 
        2.70184         68.7462         5.21129 
        2.71755         68.0421         5.13711 
        2.73329         67.1304         5.06426 
        2.74897         66.6576         4.99307 
        2.76462         66.0033          4.9234 
        2.78034         65.2293         4.85477 
        2.79607         64.5824         4.78738 
        2.81179         63.8992         4.72135 
        2.82749         63.2892         4.65664 
        2.84321         62.6785         4.59306 
        2.85893         61.9809          4.5307 
        2.87462          61.276          4.4696 
        2.89033         60.5711         4.40957 
        2.90605         59.9934         4.35059 
        2.92176         59.3628         4.29272 
        2.93747         58.6892         4.23593 
        2.95318          58.109         4.18016 
        2.96891         57.4303         4.12536 
        2.98456         56.8466          4.0718 
        3.00023         56.1728          4.0191 
        3.01596         55.7024         3.96717 
        3.03164          55.159         3.91631 
        3.04738         54.5896         3.86619 
         3.0631         53.7113         3.81697 
        3.07883         53.2814          3.7686 
        3.09456         52.6921         3.72108 
        3.11026         52.1878         3.67445 
        3.12596         51.7782         3.62862 
        3.14163         51.0569         3.58368 
        3.15734         50.5942          3.5394 
        3.17308         50.0638         3.49576 
        3.18879         49.5815         3.45298 
        3.20447         49.2778         3.41097 
         3.2202         48.5094         3.36953 
         3.2359         48.1098         3.32885 
        3.25157          47.791         3.28894 
        3.26729         47.1538         3.24957 
        3.28304         46.7918         3.21076 
        3.29877         46.1567         3.17264 
        3.31446         45.8115         3.13522 
        3.33014         45.3893         3.09843 
        3.34585         44.8218         3.06218 
        3.36158         44.3943         3.02646 
        3.37727         44.0196         2.99141 
        3.39294         43.6066         2.95696 
        3.40867         43.2211         2.92292 
        3.42439         42.7154         2.88944 
        3.44008         42.2683         2.85654 
        3.45578         41.8863         2.82413 
        3.47153         41.4451         2.79216 
        3.48724         40.9885         2.76074 
        3.50292         40.6451         2.72987 
        3.51859         40.3559         2.69949 
        3.53431          39.912         2.66948 
        3.55007           39.44         2.63985 
        3.56577         39.3233         2.61078 
        3.58146         38.7669         2.58217 
        3.59719         38.4411         2.55392 
        3.61292         38.1255          2.5261 
        3.62859          37.777          2.4988 
        3.64429         37.4601         2.47185 
        3.66003         37.0864         2.44522 
        3.67578         36.8071         2.41899 
        3.69146         36.4356         2.39324 
        3.70712         36.0308         2.36791 
        3.72284         35.6798         2.34286 
        3.73853         35.4795         2.31821 
        3.75422         35.0825         2.29391 
        3.76993         34.7785         2.26993 
        3.78564         34.5127         2.24631 
        3.80137         34.1179         2.22298 
        3.81707         33.8485         2.20004 
        3.83279         33.4795          2.1774 
        3.84853           33.17         2.15504 
        3.86424         32.8659         2.13304 
        3.87992         32.6145         2.11138 
        3.89561          32.393         2.09001 
        3.91134          32.056          2.0689 
        3.92704         31.7095         2.04811 
        3.94273         31.4791         2.02762 
        3.95845         31.2102         2.00738 
        3.97418         30.8338          1.9874 
        3.98988         30.5688         1.96773 
        4.00554         30.2751         1.94838 
        4.02125         30.0967         1.92923 
        4.03698         29.7566          1.9103 
        4.05268         29.5219         1.89168 
        4.06839         29.2344         1.87329 
         4.0841         29.0608         1.85515 
        4.09983         28.6978         1.83722 
        4.11555         28.3842         1.81954 
        4.13124          28.326         1.80214 
        4.14693         28.0427         1.78495 
        4.16266         27.7609         1.76794 
        4.17839         27.6042         1.75117 
        4.19408         27.2458         1.73466 
        4.20977         27.0526         1.71834 
        4.22551         26.8664          1.7022 
        4.24123         26.6303         1.68629 
        4.25691         26.3772         1.67062 
        4.27259         26.2086         1.65514 
        4.28831         25.9633         1.63983 
        4.30404         25.7731          1.6247 
        4.31974         25.4877         1.60979 
        4.33543         25.3201         1.59508 
        4.35116         25.0921         1.58051 
        4.36688         24.9154         1.56613 
        4.38255         24.6895         1.55199 
        4.39825         24.4477         1.53799 
        4.41398         24.2792         1.52413 
         4.4297         24.0505         1.51046 
        4.44541         23.8551         1.49696 
        4.46111         23.6389         1.48364 
        4.47683          23.449         1.47046 
        4.49251         23.2705         1.45748 
        4.50819         23.0751         1.44465 
         4.5239         22.9116         1.43196 
        4.53962         22.7109         1.41941 
        4.55535         22.4979           1.407 
        4.57106         22.3296         1.39475 
        4.58678         22.1641         1.38265 
         4.6025          21.923         1.37069 
        4.61821         21.7966         1.35888 
        4.63391         21.5678         1.34722 
         4.6496         21.4726          1.3357 
        4.66532         21.2622         1.32429 
        4.68103         21.0377         1.31303 
        4.69673          20.977          1.3019 
        4.71241         20.8454         1.29092 
        4.72811         20.5997         1.28004 
        4.74384         20.4283         1.26928 
        4.75955         20.3233         1.25866 
        4.77525         20.1381         1.24816 
        4.79096         19.9694         1.23777 
        4.80669         19.7929         1.22749 
         4.8224         19.6286         1.21735 
        4.83809         19.5029         1.20732 
        4.85379         19.3408         1.19741 
         4.8695         19.1775         1.18759 
        4.88521         19.0274          1.1779 
        4.90093         18.8953          1.1683 
        4.91663         18.7304         1.15883 
        4.93234         18.5453         1.14944 
        4.94807         18.4339         1.14016 
        4.96377          18.314           1.131 
        4.97943         18.1613         1.12195 
        4.99514         18.0222         1.11298 
        5.01086         17.8703         1.10411 
        5.02654          17.775         1.09535 
        5.04227         17.6094         1.08666 
          5.058         17.4492         1.07806 
        5.07371         17.3748         1.06957 
        5.08942         17.2402         1.06117 
        5.10513         17.1064         1.05286 
        5.12084         16.9769         1.04464 
        5.13656         16.8339          1.0365 
        5.15225         16.7098         1.02847 
        5.16796          16.554          1.0205 
        5.18369         16.4496         1.01262 
         5.1994         16.3762         1.00483 
        5.21509         16.2241         0.99713 
        5.23079         16.1093        0.989502 
        5.24649         15.9942         0.98196 
        5.26217         15.8552        0.974502 
        5.27788         15.7429         0.96711 
        5.29359         15.6223        0.959794 
        5.30933         15.5166        0.952543 
        5.32504         15.3836        0.945379 
        5.34073           15.31        0.938296 
        5.35646         15.1823        0.931272 
        5.37218         15.0455        0.924318 
        5.38789         14.9667        0.917446 
        5.40357         14.8329        0.910652 
        5.41929         14.7395        0.903912 
        5.43502         14.6213        0.897239 
         5.4507         14.5448         0.89065 
        5.46639         14.4232        0.884125 
        5.48212         14.2916        0.877651 
        5.49786          14.201        0.871234 
        5.51353         14.0945        0.864912 
        5.52921          14.015        0.858647 
        5.54495         13.9231        0.852426 
        5.56066         13.8352        0.846273 
        5.57637         13.7105        0.840181 
        5.59207         13.6138        0.834155 
        5.60778         13.5124        0.828186 
        5.62346         13.4458        0.822283 
        5.63916         13.3423        0.816432 
        5.65487         13.2282        0.810635 
         5.6706         13.1403        0.804888 
        5.68633         13.0612        0.799194 
        5.70203         12.9583        0.793567 
        5.71773         12.8821        0.787995 
        5.73344         12.7782        0.782473 
        5.74916         12.7047        0.776999 
        5.76486         12.6094        0.771585 
        5.78054         12.5255        0.766231 
        5.79626         12.4409        0.760913 
          5.812         12.3458        0.755639 
         5.8277         12.2535        0.750432 
        5.84339         12.1532        0.745273 
        5.85911         12.1024        0.740152 
        5.87484         11.9982        0.735081 
        5.89053         11.9061        0.730067 
        5.90623         11.8331        0.725098 
        5.92195         11.7388        0.720166 
        5.93767         11.6724        0.715283 
        5.95336         11.6072        0.710453 
        5.96905         11.5122         0.70567 
        5.98476         11.4379        0.700923 
        6.00048         11.3671        0.696219 
        6.01617         11.2872        0.691564 
        6.03185         11.2099        0.686958 
        6.04756           11.12        0.682382 
        6.06331         11.0534        0.677838 
        6.07903         10.9877        0.673346 
        6.09473         10.9174        0.668897 
        6.11044         10.8377        0.664486 
        6.12616         10.7628        0.660114 
        6.14186         10.6841        0.655786 
        6.15755         10.6299        0.651498 
        6.17326         10.5514        0.647244 
        6.18898         10.4781        0.643026 
        6.20467         10.4135        0.638853 
        6.22036         10.3256        0.634718 
         6.2361         10.2924        0.630608 
         6.2518         10.2133        0.626541 
        6.26748         10.1416        0.622519 
        6.28319         10.0932        0.618521 
        6.29893         10.0256        0.614555 
        6.31463         9.94736         0.61063 
        6.33033         9.89389        0.606741 
        6.34604         9.83657        0.602882 
        6.36177         9.74633        0.599054 
        6.37747         9.69392        0.595266 
