# k  (h/Mpc)    Pcb(k)  (Mpc/h)^3    Pcb_linear(k) (Mpc/h)^3   ShotnoiseSubtracted = true
      0.0200456         7635.99         7742.55 
      0.0350414         5759.14         5628.57 
      0.0492313         4071.19         4089.61 
      0.0637834         3304.24         3399.66 
      0.0800726         2607.58         2698.22 
       0.096163         2017.85          1957.8 
       0.111083         1635.25         1561.59 
       0.126058          1373.6         1383.89 
       0.142273         1175.58         1172.46 
       0.158546         961.823         925.994 
        0.17375         834.418         780.149 
       0.188953         764.253         706.407 
       0.204907         650.726         625.027 
       0.220756         580.731          528.81 
        0.23588         513.286         460.019 
         0.2514         460.189         417.923 
       0.267535         441.468         378.148 
       0.283568         384.741         333.476 
       0.299022         363.162          297.11 
       0.314451         357.097         271.538 
       0.330372         308.837         249.106 
       0.346141         285.819         226.101 
       0.361624         270.349         205.495 
       0.377134         248.748         189.088 
       0.392932         242.262          174.96 
       0.408854         228.833         161.279 
       0.424564         219.033         148.653 
       0.440253         197.843         137.819 
       0.455999         186.655         128.398 
       0.471626          182.79          119.74 
        0.48727         175.538         111.641 
       0.502856         160.226         104.365 
       0.518488         158.636         97.8736 
       0.534347         148.172         91.8386 
       0.550082          144.69          86.274 
       0.565732         141.989         81.1831 
       0.581496         131.084         76.5205 
       0.597222          128.19         72.2445 
       0.612804         123.951         68.3125 
       0.628434         120.534         64.6475 
       0.644267         114.342         61.2211 
       0.660051         110.883         58.0631 
       0.675724         109.121         55.1471 
       0.691403         106.561         52.4289 
       0.707174          102.83         49.8786 
       0.722871         100.878         47.5081 
        0.73838         98.2305          45.317 
       0.754018         92.3895         43.2475 
       0.769845         91.8842         41.2848 
        0.78569         89.1977         39.4423 
       0.801365         86.4577         37.7305 
       0.817031          83.633         36.1219 
       0.832809         82.1653         34.5973 
       0.848511         80.2852          33.168 
       0.864097         78.8437         31.8297 
       0.879701         77.3558         30.5642 
       0.895507         74.4534          29.353 
       0.911279         73.3688         28.2102 
        0.92691         71.2723          27.138 
       0.942635         69.7574         26.1159 
       0.958396          69.546         25.1444 
       0.974128         67.8579         24.2244 
       0.989692         66.2344         23.3597 
        1.00528         65.0035         22.5361 
        1.02113         63.5419         21.7394 
        1.03692         63.3468         20.9844 
        1.05264          62.048         20.2689 
        1.06832         60.2336         19.5879 
        1.08405         59.4382         18.9366 
        1.09979         59.0392         18.3146 
        1.11537         57.4326         17.7269 
        1.13105         56.1537         17.1615 
        1.14679         55.5737         16.6187 
        1.16256         54.6551         16.0983 
        1.17828         54.0972         15.6021 
        1.19395         52.6475         15.1285 
         1.2097         52.7573         14.6723 
        1.22537         51.4536         14.2371 
          1.241         50.8952          13.821 
        1.25666         49.5591         13.4205 
        1.27241         49.4679         13.0341 
        1.28819         48.5058         12.6623 
        1.30392         47.8046         12.3061 
        1.31957         47.5012         11.9652 
        1.33529         46.6794         11.6361 
        1.35108           45.88          11.318 
        1.36674         45.2725         11.0142 
         1.3824         44.6105         10.7218 
        1.39811         43.8945         10.4391 
        1.41389         43.3008         10.1655 
        1.42964         42.9997         9.90228 
        1.44531         42.0981         9.64965 
        1.46101         41.8694         9.40532 
        1.47667         41.2992         9.17019 
        1.49229         40.6524         8.94376 
        1.50793         40.2857         8.72474 
        1.52367         39.6573         8.51166 
        1.53953         39.4205         8.30429 
        1.55526         38.7761          8.1055 
        1.57092         38.3406         7.91405 
        1.58662         37.7999         7.72834 
        1.60235          37.333         7.54825 
        1.61809         36.8841         7.37382 
        1.63369         36.4624         7.20647 
        1.64941          36.031         7.04312 
        1.66519         35.4777         6.88426 
        1.68085         35.0632         6.73144 
        1.69652          34.633         6.58322 
        1.71228          34.469         6.43863 
        1.72806         33.9007         6.29828 
        1.74368         33.4626         6.16353 
        1.75933         33.2668         6.03246 
        1.77505          33.009          5.9046 
        1.79081         32.5448         5.78022 
         1.8065         32.0555         5.65997 
        1.82218         31.6445         5.54324 
        1.83797         31.4665         5.42902 
        1.85367         30.9931         5.31865 
        1.86928         31.0427         5.21202 
        1.88497         30.3387         5.10773 
        1.90073         30.1568         5.00592 
        1.91647          29.919         4.90698 
        1.93218         29.8006         4.81093 
        1.94787         29.3763         4.71759 
        1.96363         28.9032         4.62636 
        1.97935          28.686         4.53774 
        1.99499         28.4833         4.45194 
        2.01064         28.0305         4.36824 
         2.0264         27.7983         4.28617 
        2.04216         27.6679         4.20625 
        2.05781         27.3441         4.12888 
        2.07353         27.0512         4.05318 
        2.08928         26.7113         3.97921 
        2.10499         26.5121         3.90729 
        2.12065         26.2094         3.83737 
        2.13633         26.0174          3.7691 
        2.15211         25.5838         3.70205 
        2.16785         25.4981         3.63682 
        2.18349         25.2126         3.57357 
        2.19916         24.9665          3.5117 
        2.21489         24.6946         3.45109 
        2.23063          24.585         3.39187 
         2.2463         24.3004          3.3343 
        2.26194          24.043         3.27822 
        2.27765         23.7723         3.22314 
        2.29341         23.5158         3.16918 
        2.30914         23.3162         3.11658 
        2.32486         23.1388         3.06519 
        2.34061         22.9407         3.01488 
        2.35635          22.613         2.96575 
        2.37203         22.4923         2.91788 
        2.38768         22.2962         2.87117 
        2.40339         22.1803         2.82531 
        2.41914         21.9072         2.78035 
        2.43483         21.7962         2.73652 
         2.4505         21.4093         2.69372 
        2.46622         21.2642         2.65168 
        2.48195         21.0697         2.61054 
        2.49759         20.7878         2.57049 
        2.51328         20.6954         2.53118 
        2.52906         20.5528         2.49244 
        2.54479         20.3288         2.45466 
        2.56049         20.2316         2.41773 
        2.57618           20.07          2.3816 
        2.59189         19.7378         2.34615 
        2.60758         19.5782         2.31148 
        2.62325           19.42         2.27755 
        2.63898         19.2985         2.24418 
        2.65468         19.1202         2.21156 
        2.67044         18.8814         2.17944 
        2.68618         18.7364         2.14804 
        2.70184         18.5563         2.11737 
        2.71755         18.3653         2.08724 
        2.73329          18.242         2.05764 
        2.74897         18.0953         2.02871 
        2.76462         17.9585         2.00041 
        2.78034         17.6992         1.97252 
        2.79607         17.6105         1.94514 
        2.81179         17.4699         1.91831 
        2.82749         17.2594         1.89202 
        2.84321         17.1898         1.86619 
        2.85893         16.9411         1.84085 
        2.87462         16.8612         1.81602 
        2.89033         16.7245         1.79163 
        2.90605         16.5439         1.76767 
        2.92176         16.3741         1.74416 
        2.93747         16.2572         1.72108 
        2.95318         16.1454         1.69842 
        2.96891         15.9718         1.67616 
        2.98456         15.8945         1.65439 
        3.00023         15.7023         1.63298 
        3.01596         15.5975         1.61188 
        3.03164         15.4482         1.59122 
        3.04738         15.3114         1.57086 
         3.0631         15.2077         1.55086 
        3.07883         15.0867          1.5312 
        3.09456         14.9449          1.5119 
        3.11026         14.8371         1.49295 
        3.12596         14.7079         1.47433 
        3.14163          14.551         1.45607 
        3.15734         14.4399         1.43808 
        3.17308         14.3641         1.42035 
        3.18879         14.1552         1.40296 
        3.20447         14.1386          1.3859 
         3.2202         13.9627         1.36906 
         3.2359         13.8588         1.35253 
        3.25157         13.7885         1.33632 
        3.26729         13.6032         1.32032 
        3.28304         13.5191         1.30455 
        3.29877         13.4747         1.28906 
        3.31446         13.3074         1.27386 
        3.33014         13.2265         1.25891 
        3.34585         13.0589         1.24418 
        3.36158         12.9701         1.22967 
        3.37727          12.898         1.21543 
        3.39294         12.7858         1.20143 
        3.40867         12.6416          1.1876 
        3.42439         12.5555         1.17399 
        3.44008          12.486         1.16063 
        3.45578         12.3245         1.14746 
        3.47153         12.2548         1.13447 
        3.48724         12.1991          1.1217 
        3.50292         12.0938         1.10916 
        3.51859          11.983         1.09682 
        3.53431         11.8426         1.08462 
        3.55007         11.7954         1.07258 
        3.56577         11.6665         1.06078 
        3.58146         11.5481         1.04915 
        3.59719         11.4781         1.03767 
        3.61292         11.4205         1.02637 
        3.62859          11.301         1.01528 
        3.64429         11.2298         1.00433 
        3.66003         11.1091        0.993505 
        3.67578         11.0364        0.982847 
        3.69146         10.9605        0.972386 
        3.70712         10.8416        0.962096 
        3.72284         10.7785        0.951916 
        3.73853         10.7043        0.941901 
        3.75422         10.5994        0.932027 
        3.76993         10.5069        0.922286 
        3.78564         10.4563        0.912687 
        3.80137          10.358         0.90321 
        3.81707         10.2706        0.893887 
        3.83279          10.199        0.884688 
        3.84853         10.1215        0.875604 
        3.86424         10.0202        0.866665 
        3.87992         9.97494        0.857864 
        3.89561         9.89041        0.849185 
        3.91134         9.81568        0.840608 
        3.92704         9.74252        0.832159 
        3.94273         9.65414        0.823834 
        3.95845         9.56619        0.815609 
        3.97418         9.50007        0.807494 
        3.98988         9.47255          0.7995 
        4.00554          9.3691        0.791636 
        4.02125         9.30419        0.783855 
        4.03698         9.23846        0.776167 
        4.05268         9.16619          0.7686 
        4.06839         9.06985        0.761127 
         4.0841         8.99273        0.753756 
        4.09983         8.93829        0.746473 
        4.11555         8.83578        0.739289 
        4.13124         8.79538        0.732218 
        4.14693         8.70842        0.725234 
        4.16266         8.67157        0.718326 
        4.17839         8.57294        0.711511 
        4.19408         8.55373          0.7048 
        4.20977         8.42833        0.698173 
        4.22551         8.39653        0.691615 
        4.24123         8.34916        0.685148 
        4.25691         8.28619        0.678781 
        4.27259         8.20163        0.672493 
        4.28831         8.13766        0.666272 
        4.30404         8.11447        0.660124 
        4.31974         8.02702        0.654066 
        4.33543         7.97824        0.648088 
        4.35116         7.87034        0.642171 
        4.36688         7.84222        0.636329 
        4.38255         7.80852        0.630582 
        4.39825         7.70738        0.624894 
        4.41398         7.66356        0.619264 
         4.4297         7.60856        0.613709 
        4.44541         7.55629        0.608224 
        4.46111         7.51485         0.60281 
        4.47683         7.46474        0.597457 
        4.49251         7.39662        0.592181 
        4.50819         7.33743         0.58697 
         4.5239         7.27321        0.581814 
        4.53962         7.22557        0.576713 
        4.55535         7.16842        0.571671 
        4.57106         7.14004        0.566696 
        4.58678         7.07336         0.56178 
         4.6025          7.0167        0.556921 
        4.61821         6.97162         0.55212 
        4.63391         6.92286        0.547381 
         4.6496         6.87104        0.542701 
        4.66532         6.82673        0.538067 
        4.68103         6.76846         0.53349 
        4.69673          6.7276        0.528971 
        4.71241         6.66773        0.524508 
        4.72811         6.63521        0.520089 
        4.74384         6.60394        0.515716 
        4.75955         6.54448        0.511399 
        4.77525         6.49887        0.507134 
        4.79096         6.46217        0.502913 
        4.80669         6.39259        0.498738 
         4.8224         6.34336        0.494614 
        4.83809         6.30558        0.490542 
        4.85379         6.25847        0.486513 
         4.8695         6.22586        0.482526 
        4.88521         6.17561        0.478585 
        4.90093         6.13214        0.474688 
        4.91663         6.08299        0.470838 
        4.93234         6.04325        0.467026 
        4.94807          6.0003        0.463254 
        4.96377          5.9608         0.45953 
        4.97943         5.90884        0.455855 
        4.99514         5.87904        0.452211 
        5.01086           5.842        0.448604 
        5.02654         5.79573        0.445046 
        5.04227         5.76513        0.441515 
          5.058         5.70321        0.438021 
        5.07371           5.671        0.434572 
        5.08942          5.6295         0.43116 
        5.10513         5.59861        0.427784 
        5.12084         5.56367        0.424442 
        5.13656         5.50972        0.421136 
        5.15225         5.47923        0.417871 
        5.16796          5.4463        0.414636 
        5.18369         5.40053        0.411432 
         5.1994         5.36533        0.408268 
        5.21509          5.3398        0.405139 
        5.23079         5.30126         0.40204 
        5.24649         5.25826        0.398976 
        5.26217         5.23163        0.395945 
        5.27788         5.19311        0.392942 
        5.29359         5.15603         0.38997 
        5.30933         5.13024        0.387023 
        5.32504         5.08859        0.384113 
        5.34073         5.05821        0.381235 
        5.35646         5.02799        0.378381 
        5.37218         4.98095        0.375556 
        5.38789         4.95783        0.372764 
        5.40357         4.91369        0.370003 
        5.41929         4.88362        0.367265 
        5.43502          4.8495        0.364553 
         5.4507         4.83125        0.361876 
        5.46639         4.78995        0.359225 
        5.48212         4.76556        0.356594 
        5.49786         4.73602        0.353987 
        5.51353         4.70398        0.351419 
        5.52921         4.67965        0.348873 
        5.54495         4.64048        0.346345 
        5.56066         4.60698        0.343845 
        5.57637         4.57257         0.34137 
        5.59207         4.55338        0.338922 
        5.60778         4.51652        0.336496 
        5.62346         4.49295        0.334098 
        5.63916         4.45675        0.331721 
        5.65487          4.4349        0.329366 
         5.6706         4.40853         0.32703 
        5.68633         4.37987        0.324717 
        5.70203         4.35005        0.322431 
        5.71773         4.33209        0.320167 
        5.73344         4.29216        0.317923 
        5.74916         4.27409        0.315699 
        5.76486         4.23879        0.313499 
        5.78054         4.22383        0.311324 
        5.79626          4.1876        0.309163 
          5.812         4.16427        0.307021 
         5.8277         4.13478        0.304905 
        5.84339         4.11187        0.302808 
        5.85911         4.08367        0.300728 
        5.87484         4.05997        0.298668 
        5.89053         4.03595         0.29663 
        5.90623         4.01657        0.294611 
        5.92195         3.98884        0.292608 
        5.93767         3.95817        0.290624 
        5.95336         3.93992        0.288661 
        5.96905         3.90803        0.286718 
        5.98476         3.89778        0.284789 
        6.00048         3.86439        0.282878 
        6.01617         3.84466        0.280986 
        6.03185         3.81359        0.279115 
        6.04756         3.79011        0.277256 
        6.06331         3.77587         0.27541 
        6.07903         3.74875        0.273584 
        6.09473         3.72728        0.271777 
        6.11044         3.70106        0.269984 
        6.12616         3.68478        0.268208 
        6.14186         3.65893         0.26645 
        6.15755         3.63397        0.264707 
        6.17326         3.61367        0.262979 
        6.18898         3.58841        0.261265 
        6.20467         3.57198         0.25957 
        6.22036         3.54536        0.257889 
         6.2361         3.52941         0.25622 
         6.2518         3.51117        0.254567 
        6.26748         3.49395        0.252933 
        6.28319         3.46495        0.251309 
        6.29893         3.44521        0.249697 
        6.31463         3.42292        0.248102 
        6.33033         3.41414        0.246522 
        6.34604          3.3907        0.244955 
        6.36177         3.37203        0.243399 
        6.37747         3.34706         0.24186 
