# k  (h/Mpc)    Pcb(k)  (Mpc/h)^3    Pcb_linear(k) (Mpc/h)^3   ShotnoiseSubtracted = true
      0.0200456         434.822         440.418 
      0.0350414         323.121         320.169 
      0.0492313         233.551         232.628 
      0.0637834         192.154         193.382 
      0.0800726         152.179         153.483 
       0.096163         112.687         111.365 
       0.111083         90.1915         88.8275 
       0.126058         78.3849         78.7193 
       0.142273         66.2351         66.6925 
       0.158546         52.9019         52.6731 
        0.17375         44.9157         44.3771 
       0.188953          40.328         40.1824 
       0.204907         35.0438         35.5533 
       0.220756          30.197         30.0802 
        0.23588         26.2922         26.1672 
         0.2514          23.866         23.7726 
       0.267535         21.6655         21.5101 
       0.283568         19.1007          18.969 
       0.299022         17.0824         16.9004 
       0.314451         15.8149         15.4459 
       0.330372         14.3583         14.1698 
       0.346141          13.046         12.8613 
       0.361624         11.8413         11.6891 
       0.377134         10.8585         10.7559 
       0.392932         10.2879         9.95219 
       0.408854         9.30965         9.17399 
       0.424564         8.74743          8.4558 
       0.440253         8.02374         7.83951 
       0.455999         7.38981         7.30362 
       0.471626         6.90301         6.81114 
        0.48727         6.56189         6.35045 
       0.502856         6.14514         5.93659 
       0.518488          5.6669         5.56732 
       0.534347           5.293         5.22403 
       0.550082         5.05293          4.9075 
       0.565732         4.81093         4.61792 
       0.581496         4.50263          4.3527 
       0.597222         4.24319         4.10947 
       0.612804         4.00014          3.8858 
       0.628434         3.81018         3.67733 
       0.644267         3.62487         3.48243 
       0.660051          3.4361         3.30279 
       0.675724          3.2385         3.13692 
       0.691403          3.0944          2.9823 
       0.707174         2.94203         2.83724 
       0.722871         2.86158         2.70239 
        0.73838         2.67057         2.57776 
       0.754018         2.55037         2.46004 
       0.769845         2.41346          2.3484 
        0.78569         2.34131         2.24359 
       0.801365         2.24187         2.14622 
       0.817031         2.15573         2.05472 
       0.832809         2.04419         1.96799 
       0.848511         1.97347         1.88669 
       0.864097         1.90258         1.81056 
       0.879701         1.84069         1.73858 
       0.895507         1.74629         1.66968 
       0.911279         1.69208         1.60467 
        0.92691         1.64159         1.54368 
       0.942635         1.55657         1.48554 
       0.958396         1.50635         1.43029 
       0.974128         1.45627         1.37795 
       0.989692         1.40081         1.32876 
        1.00528         1.34891         1.28192 
        1.02113         1.31474          1.2366 
        1.03692         1.27574         1.19365 
        1.05264         1.21749         1.15295 
        1.06832         1.18328         1.11422 
        1.08405         1.13737         1.07717 
        1.09979         1.10879         1.04179 
        1.11537         1.06792         1.00835 
        1.13105         1.02689        0.976192 
        1.14679         1.00349        0.945315 
        1.16256        0.972382        0.915719 
        1.17828        0.948454        0.887492 
        1.19395         0.91671        0.860554 
         1.2097        0.887108        0.834602 
        1.22537          0.8573        0.809848 
          1.241        0.835974        0.786177 
        1.25666        0.818332        0.763397 
        1.27241        0.791376        0.741415 
        1.28819        0.764852        0.720265 
        1.30392        0.746555        0.700004 
        1.31957        0.726532        0.680615 
        1.33529        0.703316        0.661892 
        1.35108         0.68534        0.643801 
        1.36674        0.665606        0.626517 
         1.3824        0.654197        0.609886 
        1.39811         0.63277        0.593805 
        1.41389        0.618182        0.578245 
        1.42964        0.601786        0.563269 
        1.44531        0.586048        0.548899 
        1.46101        0.568407        0.535001 
        1.47667         0.55722        0.521626 
        1.49229        0.539844        0.508746 
        1.50793        0.529464        0.496288 
        1.52367        0.513628        0.484167 
        1.53953        0.501261        0.472371 
        1.55526        0.491269        0.461063 
        1.57092        0.484067        0.450173 
        1.58662        0.472206         0.43961 
        1.60235        0.459386        0.429366 
        1.61809        0.447165        0.419444 
        1.63369        0.435234        0.409924 
        1.64941        0.427837        0.400632 
        1.66519        0.419556        0.391596 
        1.68085        0.407423        0.382903 
        1.69652        0.399177        0.374472 
        1.71228         0.38948        0.366247 
        1.72806        0.382278        0.358264 
        1.74368        0.373705        0.350599 
        1.75933        0.366492        0.343143 
        1.77505        0.359627         0.33587 
        1.79081        0.348424        0.328795 
         1.8065        0.344534        0.321955 
        1.82218        0.334628        0.315315 
        1.83797        0.325945        0.308818 
        1.85367        0.322298         0.30254 
        1.86928        0.314623        0.296474 
        1.88497        0.307106        0.290542 
        1.90073        0.302312        0.284751 
        1.91647        0.296288        0.279123 
        1.93218        0.291286        0.273659 
        1.94787        0.284172         0.26835 
        1.96363           0.279        0.263161 
        1.97935        0.273106        0.258119 
        1.99499        0.267826        0.253239 
        2.01064        0.263197        0.248478 
         2.0264        0.257509        0.243809 
        2.04216        0.251824        0.239263 
        2.05781        0.248041        0.234862 
        2.07353        0.243524        0.230556 
        2.08928        0.239605        0.226349 
        2.10499        0.233859        0.222258 
        2.12065        0.230096         0.21828 
        2.13633        0.226185        0.214397 
        2.15211        0.221996        0.210583 
        2.16785        0.217776        0.206872 
        2.18349        0.214325        0.203275 
        2.19916        0.209454        0.199755 
        2.21489        0.205551        0.196307 
        2.23063        0.202148        0.192939 
         2.2463        0.199127        0.189664 
        2.26194        0.195906        0.186474 
        2.27765        0.191842        0.183341 
        2.29341        0.188639        0.180272 
        2.30914         0.18477        0.177279 
        2.32486        0.181819        0.174357 
        2.34061         0.17871        0.171495 
        2.35635        0.175854          0.1687 
        2.37203        0.174273        0.165977 
        2.38768        0.170308         0.16332 
        2.40339        0.167508        0.160711 
        2.41914        0.164822        0.158154 
        2.43483        0.162034        0.155661 
         2.4505        0.159108        0.153226 
        2.46622        0.156807        0.150835 
        2.48195        0.154032        0.148495 
        2.49759        0.152512        0.146217 
        2.51328        0.148399         0.14398 
        2.52906        0.146677        0.141777 
        2.54479        0.144431        0.139628 
        2.56049         0.14156        0.137527 
        2.57618        0.140472        0.135472 
        2.59189        0.137434        0.133456 
        2.60758        0.136051        0.131483 
        2.62325        0.133569        0.129553 
        2.63898        0.132084        0.127655 
        2.65468        0.129118          0.1258 
        2.67044        0.127497        0.123973 
        2.68618        0.125436        0.122186 
        2.70184        0.123954        0.120442 
        2.71755        0.121602        0.118728 
        2.73329        0.120314        0.117044 
        2.74897        0.118194        0.115399 
        2.76462        0.116465        0.113789 
        2.78034        0.114791        0.112203 
        2.79607        0.113415        0.110645 
        2.81179        0.110928        0.109119 
        2.82749        0.109959        0.107623 
        2.84321        0.108392        0.106154 
        2.85893        0.106403        0.104713 
        2.87462        0.105461          0.1033 
        2.89033        0.103414        0.101913 
        2.90605         0.10242         0.10055 
        2.92176         0.10116       0.0992124 
        2.93747        0.099395       0.0978999 
        2.95318       0.0983457       0.0966109 
        2.96891       0.0969753       0.0953446 
        2.98456       0.0958372       0.0941065 
        3.00023       0.0944676       0.0928886 
        3.01596       0.0927669       0.0916885 
        3.03164       0.0915053        0.090513 
        3.04738       0.0905787       0.0893547 
         3.0631       0.0892052       0.0882171 
        3.07883       0.0880711       0.0870992 
        3.09456       0.0870228       0.0860008 
        3.11026       0.0855539       0.0849231 
        3.12596       0.0848022        0.083864 
        3.14163       0.0835982       0.0828254 
        3.15734       0.0828195       0.0818019 
        3.17308       0.0815155       0.0807933 
        3.18879       0.0805324       0.0798045 
        3.20447       0.0793052       0.0788336 
         3.2202       0.0785741       0.0778759 
         3.2359       0.0776064       0.0769357 
        3.25157       0.0766517       0.0760134 
        3.26729       0.0756404       0.0751034 
        3.28304       0.0750065       0.0742064 
        3.29877       0.0737397       0.0733253 
        3.31446       0.0729603       0.0724605 
        3.33014       0.0723386       0.0716103 
        3.34585       0.0711081       0.0707725 
        3.36158       0.0703689       0.0699468 
        3.37727       0.0696069       0.0691369 
        3.39294       0.0689736       0.0683406 
        3.40867        0.068088       0.0675539 
        3.42439       0.0673519         0.06678 
        3.44008       0.0667344       0.0660198 
        3.45578       0.0660807       0.0652708 
        3.47153       0.0653733       0.0645318 
        3.48724       0.0645691       0.0638056 
        3.50292       0.0639986       0.0630922 
        3.51859       0.0631806         0.06239 
        3.53431       0.0625526       0.0616964 
        3.55007       0.0619263       0.0610116 
        3.56577       0.0613522       0.0603399 
        3.58146       0.0606686       0.0596785 
        3.59719       0.0599408       0.0590256 
        3.61292       0.0593135       0.0583827 
        3.62859       0.0588089       0.0577517 
        3.64429       0.0581517       0.0571289 
        3.66003       0.0579101       0.0565134 
        3.67578        0.057257       0.0559071 
        3.69146       0.0567041        0.055312 
        3.70712       0.0561407       0.0547267 
        3.72284       0.0554745       0.0541476 
        3.73853       0.0552545        0.053578 
        3.75422       0.0545068       0.0530163 
        3.76993       0.0540655       0.0524622 
        3.78564       0.0537115       0.0519162 
        3.80137       0.0532987       0.0513771 
        3.81707       0.0524565       0.0508468 
        3.83279       0.0521432       0.0503235 
        3.84853       0.0516881       0.0498068 
        3.86424       0.0513325       0.0492983 
        3.87992       0.0509024       0.0487977 
        3.89561       0.0502502        0.048304 
        3.91134       0.0498821       0.0478161 
        3.92704       0.0493851       0.0473355 
        3.94273       0.0489197        0.046862 
        3.95845       0.0485167       0.0463941 
        3.97418       0.0481018       0.0459325 
        3.98988       0.0474253       0.0454778 
        4.00554       0.0471334       0.0450305 
        4.02125       0.0466863       0.0445879 
        4.03698       0.0458906       0.0441506 
        4.05268       0.0455524       0.0437201 
        4.06839       0.0448148        0.043295 
         4.0841       0.0440288       0.0428758 
        4.09983       0.0434441       0.0424615 
        4.11555       0.0428621       0.0420528 
        4.13124       0.0422436       0.0416506 
        4.14693       0.0417544       0.0412534 
        4.16266       0.0410372       0.0408604 
        4.17839        0.040621       0.0404727 
        4.19408        0.040093        0.040091 
        4.20977       0.0396346        0.039714 
        4.22551       0.0391543        0.039341 
        4.24123       0.0386391       0.0389731 
        4.25691       0.0382716        0.038611 
        4.27259       0.0378528       0.0382533 
        4.28831       0.0375669       0.0378994 
        4.30404       0.0370946       0.0375497 
        4.31974       0.0367146       0.0372051 
        4.33543       0.0363694       0.0368651 
        4.35116        0.036107       0.0365285 
        4.36688       0.0357192       0.0361962 
        4.38255       0.0354001       0.0358693 
        4.39825       0.0352415       0.0355457 
        4.41398       0.0348692       0.0352255 
         4.4297        0.034721       0.0349095 
        4.44541       0.0345242       0.0345975 
        4.46111       0.0341842       0.0342895 
        4.47683       0.0340622        0.033985 
        4.49251       0.0339356       0.0336849 
        4.50819       0.0336787       0.0333885 
         4.5239       0.0335421       0.0330952 
        4.53962        0.033507        0.032805 
        4.55535       0.0334173       0.0325182 
        4.57106       0.0332487       0.0322353 
        4.58678       0.0332045       0.0319556 
         4.6025       0.0329889       0.0316792 
        4.61821        0.033077       0.0314061 
        4.63391        0.032978       0.0311366 
         4.6496         0.03283       0.0308703 
        4.66532       0.0329225       0.0306068 
        4.68103       0.0330589       0.0303464 
        4.69673        0.032948       0.0300893 
        4.71241       0.0330014       0.0298355 
        4.72811       0.0329462       0.0295841 
        4.74384        0.033033       0.0293353 
        4.75955       0.0331409       0.0290898 
        4.77525       0.0332517       0.0288472 
        4.79096       0.0333591       0.0286071 
        4.80669       0.0334671       0.0283696 
         4.8224       0.0335607        0.028135 
        4.83809       0.0336447       0.0279034 
        4.85379       0.0339217       0.0276742 
         4.8695       0.0340864       0.0274474 
        4.88521       0.0342914       0.0272233 
        4.90093       0.0345157       0.0270016 
        4.91663       0.0348314       0.0267826 
        4.93234       0.0348055       0.0265657 
        4.94807       0.0352405       0.0263512 
        4.96377       0.0354159       0.0261394 
        4.97943       0.0358221       0.0259303 
        4.99514       0.0360139        0.025723 
        5.01086       0.0364046       0.0255179 
        5.02654       0.0366873       0.0253154 
        5.04227       0.0370474       0.0251146 
          5.058       0.0374214       0.0249159 
        5.07371       0.0377279       0.0247197 
        5.08942       0.0382458       0.0245256 
        5.10513       0.0385422       0.0243335 
        5.12084       0.0391281       0.0241434 
        5.13656       0.0396185       0.0239554 
        5.15225       0.0400072       0.0237697 
        5.16796       0.0405907       0.0235857 
        5.18369       0.0410972       0.0234034 
         5.1994        0.041534       0.0232234 
        5.21509        0.042307       0.0230455 
        5.23079       0.0426258       0.0228692 
        5.24649       0.0433941       0.0226949 
        5.26217       0.0438738       0.0225225 
        5.27788       0.0448181       0.0223516 
        5.29359       0.0454024       0.0221826 
        5.30933       0.0461007        0.022015 
        5.32504       0.0467763       0.0218494 
        5.34073       0.0473189       0.0216857 
        5.35646       0.0481092       0.0215234 
        5.37218       0.0490808       0.0213626 
        5.38789       0.0498078       0.0212038 
        5.40357       0.0506724       0.0210468 
        5.41929       0.0517336        0.020891 
        5.43502       0.0526196       0.0207368 
         5.4507       0.0533849       0.0205845 
        5.46639       0.0540911       0.0204337 
        5.48212       0.0551767       0.0202841 
        5.49786       0.0565977       0.0201358 
        5.51353       0.0576468       0.0199897 
        5.52921       0.0583233       0.0198449 
        5.54495       0.0594603       0.0197011 
        5.56066       0.0607666       0.0195589 
        5.57637        0.062081       0.0194181 
        5.59207       0.0629042       0.0192788 
        5.60778       0.0640577       0.0191409 
        5.62346       0.0653051       0.0190044 
        5.63916       0.0670083       0.0188692 
        5.65487        0.068304       0.0187352 
         5.6706       0.0691595       0.0186024 
        5.68633       0.0706517       0.0184708 
        5.70203        0.072152       0.0183407 
        5.71773       0.0740548        0.018212 
        5.73344       0.0758921       0.0180844 
        5.74916       0.0774147       0.0179578 
        5.76486       0.0790634       0.0178327 
        5.78054        0.081023        0.017709 
        5.79626       0.0821337       0.0175861 
          5.812       0.0844428       0.0174642 
         5.8277       0.0857321       0.0173438 
        5.84339       0.0878105       0.0172246 
        5.85911       0.0894535       0.0171063 
        5.87484        0.091281        0.016989 
        5.89053       0.0939343       0.0168732 
        5.90623       0.0959613       0.0167583 
        5.92195       0.0979374       0.0166443 
        5.93767        0.099977       0.0165315 
        5.95336        0.101943       0.0164198 
        5.96905        0.105162       0.0163093 
        5.98476        0.106723       0.0161996 
        6.00048        0.109247       0.0160909 
        6.01617        0.112247       0.0159833 
        6.03185         0.11418       0.0158768 
        6.04756         0.11651       0.0157711 
        6.06331        0.119966       0.0156661 
        6.07903        0.121883       0.0155622 
        6.09473        0.124411       0.0154594 
        6.11044        0.128169       0.0153575 
        6.12616         0.13109       0.0152564 
        6.14186        0.133469       0.0151564 
        6.15755        0.136837       0.0150573 
        6.17326        0.140071        0.014959 
        6.18898        0.144109       0.0148615 
        6.20467        0.146204        0.014765 
        6.22036        0.150632       0.0146695 
         6.2361        0.152366       0.0145745 
         6.2518        0.157982       0.0144805 
        6.26748        0.160171       0.0143875 
        6.28319        0.163864       0.0142951 
        6.29893        0.168972       0.0142035 
        6.31463         0.17233       0.0141128 
        6.33033        0.175062       0.0140229 
        6.34604        0.180123       0.0139337 
        6.36177         0.18404       0.0138452 
        6.37747        0.187815       0.0137577 
