# k  (h/Mpc)    Pcb(k)  (Mpc/h)^3    Pcb_linear(k) (Mpc/h)^3   ShotnoiseSubtracted = true
      0.0200456         773.608          781.32 
      0.0350414         467.054         458.005 
      0.0492313         297.888         295.957 
      0.0637834         237.566          239.22 
      0.0800726         178.536         180.332 
       0.096163          121.29         118.923 
       0.111083         93.6224         91.7239 
       0.126058         81.9288         82.4193 
       0.142273         67.1044         67.5817 
       0.158546         50.6465         50.1496 
        0.17375         42.4019         41.7194 
       0.188953         38.4018         38.2036 
       0.204907         32.6689         33.1315 
       0.220756         27.2237         26.9514 
        0.23588         23.4176          23.187 
         0.2514         21.3002         21.1777 
       0.267535         19.1271          18.935 
       0.283568         16.4877         16.2939 
       0.299022         14.6058         14.3632 
       0.314451         13.5227         13.1322 
       0.330372         12.1659         11.9564 
       0.346141         10.8973         10.6887 
       0.361624         9.80217           9.622 
       0.377134         8.95216         8.82844 
       0.392932         8.43214         8.12473 
       0.408854         7.56189         7.41657 
       0.424564         7.06317         6.78138 
       0.440253         6.43422         6.25946 
       0.455999          5.8874         5.80499 
       0.471626         5.46554         5.37742 
        0.48727         5.16879         4.98127 
       0.502856         4.82878         4.63549 
       0.518488         4.42028         4.32822 
       0.534347         4.10442          4.0409 
       0.550082         3.90061         3.77597 
       0.565732         3.70002         3.53777 
       0.581496         3.44429         3.32088 
       0.597222         3.23423         3.12231 
       0.612804         3.02806         2.93963 
       0.628434         2.88273         2.77088 
       0.644267         2.72512         2.61424 
       0.660051          2.5697         2.47014 
       0.675724          2.4151         2.33757 
       0.691403         2.30221         2.21449 
       0.707174         2.17705         2.09947 
       0.722871         2.11021         1.99297 
        0.73838         1.96322         1.89491 
       0.754018         1.86411         1.80262 
       0.769845         1.76135         1.71542 
        0.78569          1.7062         1.63384 
       0.801365         1.62643         1.55831 
       0.817031         1.55657         1.48758 
       0.832809         1.47353         1.42075 
       0.848511         1.41669          1.3583 
       0.864097         1.36076             1.3 
       0.879701         1.31418         1.24504 
       0.895507         1.24239         1.19259 
       0.911279         1.19838         1.14324 
        0.92691         1.15992         1.09707 
       0.942635          1.0963         1.05318 
       0.958396         1.06126         1.01158 
       0.974128         1.02229        0.972278 
       0.989692        0.977957        0.935437 
        1.00528        0.940465        0.900435 
        1.02113        0.912367        0.866663 
        1.03692        0.887189        0.834734 
        1.05264        0.843146        0.804547 
        1.06832        0.816929        0.775887 
        1.08405        0.781944        0.748537 
        1.09979        0.760416        0.722478 
        1.11537        0.731283        0.697907 
        1.13105        0.701523        0.674323 
        1.14679        0.684179        0.651729 
        1.16256        0.661276        0.630119 
        1.17828        0.643636        0.609551 
        1.19395         0.62056        0.589963 
         1.2097        0.598296        0.571129 
        1.22537        0.577487        0.553201 
          1.241         0.56199         0.53609 
        1.25666        0.548847        0.519655 
        1.27241        0.529895        0.503826 
        1.28819        0.509583        0.488624 
        1.30392        0.496749        0.474088 
        1.31957        0.483158        0.460203 
        1.33529        0.464967        0.446818 
        1.35108        0.453512        0.433909 
        1.36674        0.440036        0.421597 
         1.3824        0.431148         0.40977 
        1.39811        0.416928        0.398353 
        1.41389        0.404741        0.387324 
        1.42964         0.39365        0.376728 
        1.44531        0.382508        0.366576 
        1.46101         0.37094        0.356773 
        1.47667        0.362537        0.347355 
        1.49229        0.351055        0.338299 
        1.50793        0.342682        0.329552 
        1.52367        0.333106        0.321056 
        1.53953        0.322913          0.3128 
        1.55526         0.31683        0.304897 
        1.57092        0.310861        0.297297 
        1.58662        0.303863        0.289936 
        1.60235        0.294358        0.282808 
        1.61809        0.285674        0.275914 
        1.63369        0.277199        0.269308 
        1.64941        0.272389         0.26287 
        1.66519        0.266983        0.256616 
        1.68085         0.25864        0.250609 
        1.69652         0.25271        0.244791 
        1.71228        0.246509        0.239122 
        1.72806        0.241507        0.233627 
        1.74368        0.235245        0.228358 
        1.75933        0.230588         0.22324 
        1.77505        0.225783        0.218253 
        1.79081        0.218254        0.213408 
         1.8065        0.215841        0.208729 
        1.82218        0.209222        0.204194 
        1.83797        0.202723         0.19976 
        1.85367        0.200969        0.195482 
        1.86928        0.195444        0.191354 
        1.88497         0.19024        0.187321 
        1.90073        0.187787        0.183388 
        1.91647        0.182689        0.179571 
        1.93218        0.179401        0.175869 
        1.94787        0.175288        0.172276 
        1.96363        0.171619        0.168768 
        1.97935        0.167811        0.165365 
        1.99499        0.164338        0.162073 
        2.01064        0.161204        0.158865 
         2.0264        0.157208        0.155724 
        2.04216        0.153642        0.152667 
        2.05781        0.151078        0.149712 
        2.07353        0.147816        0.146823 
        2.08928        0.145678        0.144003 
        2.10499        0.141929        0.141265 
        2.12065        0.139244        0.138605 
        2.13633        0.136552         0.13601 
        2.15211        0.133865        0.133465 
        2.16785        0.131715        0.130991 
        2.18349         0.12882        0.128595 
        2.19916         0.12581        0.126253 
        2.21489        0.123208        0.123961 
        2.23063        0.121244        0.121724 
         2.2463        0.118903        0.119551 
        2.26194        0.116757        0.117437 
        2.27765        0.114386        0.115362 
        2.29341        0.112314        0.113331 
        2.30914        0.109904        0.111353 
        2.32486        0.108151        0.109423 
        2.34061         0.10577        0.107535 
        2.35635        0.104303        0.105693 
        2.37203        0.102707          0.1039 
        2.38768        0.101013        0.102151 
        2.40339       0.0985213        0.100436 
        2.41914       0.0972025       0.0987566 
        2.43483       0.0951482       0.0971207 
         2.4505       0.0935161       0.0955242 
        2.46622       0.0918731       0.0939578 
        2.48195       0.0900543        0.092426 
        2.49759       0.0890608       0.0909362 
        2.51328       0.0868315        0.089475 
        2.52906       0.0854699       0.0880363 
        2.54479       0.0840526       0.0866343 
        2.56049       0.0824139       0.0852653 
        2.57618       0.0815689       0.0839267 
        2.59189       0.0797325       0.0826145 
        2.60758       0.0788778       0.0813322 
        2.62325       0.0773206       0.0800783 
        2.63898       0.0762946       0.0788462 
        2.65468       0.0744604       0.0776424 
        2.67044       0.0734261       0.0764583 
        2.68618       0.0721982       0.0753013 
        2.70184       0.0713012       0.0741727 
        2.71755       0.0698769       0.0730641 
        2.73329       0.0689944       0.0719763 
        2.74897       0.0674969       0.0709139 
        2.76462       0.0667795       0.0698751 
        2.78034        0.065457       0.0688526 
        2.79607       0.0646624       0.0678493 
        2.81179       0.0631925       0.0668669 
        2.82749       0.0623786       0.0659048 
        2.84321       0.0616911       0.0649604 
        2.85893       0.0605616       0.0640346 
        2.87462       0.0597447       0.0631282 
        2.89033       0.0587815       0.0622383 
        2.90605       0.0579443       0.0613647 
        2.92176        0.057137       0.0605081 
        2.93747        0.056103       0.0596681 
        2.95318       0.0554204       0.0588437 
        2.96891       0.0546104       0.0580343 
        2.98456       0.0539589       0.0572436 
        3.00023       0.0528703       0.0564663 
        3.01596         0.05218       0.0557008 
        3.03164       0.0513347       0.0549516 
        3.04738       0.0508253       0.0542138 
         3.0631       0.0499616       0.0534897 
        3.07883       0.0491874       0.0527787 
        3.09456       0.0486871       0.0520805 
        3.11026       0.0478273       0.0513959 
        3.12596       0.0472324       0.0507235 
        3.14163       0.0466668       0.0500646 
        3.15734       0.0461278       0.0494158 
        3.17308       0.0454595       0.0487767 
        3.18879       0.0447991       0.0481506 
        3.20447       0.0441209       0.0475362 
         3.2202       0.0436316       0.0469306 
         3.2359       0.0429949       0.0463365 
        3.25157       0.0423249       0.0457539 
        3.26729       0.0420121       0.0451796 
        3.28304       0.0414836       0.0446138 
        3.29877       0.0407651       0.0440584 
        3.31446       0.0404012       0.0435135 
        3.33014       0.0400115       0.0429782 
        3.34585       0.0393062        0.042451 
        3.36158        0.038791       0.0419318 
        3.37727        0.038432       0.0414227 
        3.39294       0.0379841       0.0409226 
        3.40867       0.0374551       0.0404287 
        3.42439       0.0370688       0.0399433 
        3.44008       0.0367189       0.0394666 
        3.45578       0.0363508       0.0389973 
        3.47153       0.0359083       0.0385345 
        3.48724       0.0354885       0.0380799 
        3.50292       0.0351766       0.0376337 
        3.51859       0.0347726       0.0371947 
        3.53431       0.0344113       0.0367613 
        3.55007       0.0340326       0.0363337 
        3.56577       0.0337693       0.0359145 
        3.58146       0.0333006        0.035502 
        3.59719       0.0328578       0.0350949 
        3.61292       0.0325388       0.0346943 
        3.62859       0.0323163       0.0343014 
        3.64429       0.0318365       0.0339138 
        3.66003       0.0317649       0.0335309 
        3.67578        0.031353        0.033154 
        3.69146       0.0311057       0.0327843 
        3.70712       0.0307291       0.0324208 
        3.72284       0.0304387       0.0320614 
        3.73853       0.0302059        0.031708 
        3.75422       0.0299234       0.0313598 
        3.76993       0.0296092       0.0310164 
        3.78564       0.0293958       0.0306782 
        3.80137        0.029213       0.0303445 
        3.81707       0.0287751       0.0300164 
        3.83279       0.0285851       0.0296929 
        3.84853       0.0283911       0.0293735 
        3.86424       0.0280839       0.0290594 
        3.87992       0.0278462       0.0287503 
        3.89561       0.0275899       0.0284456 
        3.91134       0.0273514       0.0281447 
        3.92704       0.0270946       0.0278484 
        3.94273       0.0268611       0.0275567 
        3.95845       0.0266079       0.0272685 
        3.97418       0.0263964       0.0269844 
        3.98988       0.0260309       0.0267046 
        4.00554       0.0258068       0.0264296 
        4.02125        0.025592       0.0261575 
        4.03698       0.0252009       0.0258889 
        4.05268       0.0248861       0.0256246 
        4.06839       0.0245589       0.0253637 
         4.0841       0.0241529       0.0251065 
        4.09983       0.0238181       0.0248525 
        4.11555       0.0234514        0.024602 
        4.13124       0.0231387       0.0243557 
        4.14693       0.0228357       0.0241125 
        4.16266       0.0225747        0.023872 
        4.17839       0.0222711       0.0236349 
        4.19408       0.0219861       0.0234015 
        4.20977       0.0217999       0.0231711 
        4.22551       0.0214374       0.0229433 
        4.24123       0.0212087       0.0227187 
        4.25691       0.0210155       0.0224977 
        4.27259        0.020815       0.0222795 
        4.28831       0.0206126       0.0220638 
        4.30404       0.0203689       0.0218507 
        4.31974       0.0201853       0.0216408 
        4.33543       0.0199915       0.0214338 
        4.35116       0.0198528       0.0212289 
        4.36688       0.0197018       0.0210268 
        4.38255       0.0194981        0.020828 
        4.39825       0.0194601       0.0206314 
        4.41398       0.0192362       0.0204368 
         4.4297        0.019175        0.020245 
        4.44541       0.0190532       0.0200556 
        4.46111       0.0189668       0.0198688 
        4.47683       0.0188895       0.0196841 
        4.49251       0.0187846       0.0195022 
        4.50819       0.0187327       0.0193226 
         4.5239       0.0186501        0.019145 
        4.53962       0.0186607       0.0189694 
        4.55535       0.0185801       0.0187958 
        4.57106       0.0185597       0.0186247 
        4.58678       0.0185096       0.0184556 
         4.6025       0.0185137       0.0182886 
        4.61821       0.0185389       0.0181236 
        4.63391       0.0185113       0.0179609 
         4.6496       0.0184548       0.0178002 
        4.66532       0.0185315       0.0176412 
        4.68103       0.0185732       0.0174841 
        4.69673       0.0185751       0.0173292 
        4.71241       0.0186179       0.0171762 
        4.72811       0.0186167       0.0170248 
        4.74384       0.0187107       0.0168751 
        4.75955       0.0188149       0.0167273 
        4.77525        0.018866       0.0165814 
        4.79096       0.0190167        0.016437 
        4.80669       0.0191156       0.0162942 
         4.8224        0.019208       0.0161533 
        4.83809        0.019354       0.0160142 
        4.85379       0.0194915       0.0158766 
         4.8695       0.0197003       0.0157405 
        4.88521       0.0197533        0.015606 
        4.90093       0.0199462       0.0154731 
        4.91663       0.0200798       0.0153418 
        4.93234       0.0202298       0.0152119 
        4.94807       0.0203939       0.0150834 
        4.96377       0.0205453       0.0149566 
        4.97943       0.0208885       0.0148315 
        4.99514           0.021       0.0147075 
        5.01086       0.0212455       0.0145848 
        5.02654        0.021566       0.0144638 
        5.04227        0.021812       0.0143438 
          5.058       0.0220367       0.0142251 
        5.07371       0.0223154        0.014108 
        5.08942       0.0226709       0.0139921 
        5.10513       0.0229163       0.0138775 
        5.12084       0.0231628       0.0137641 
        5.13656       0.0235608       0.0136521 
        5.15225       0.0238838       0.0135414 
        5.16796       0.0241774       0.0134318 
        5.18369       0.0246065       0.0133232 
         5.1994       0.0249319       0.0132161 
        5.21509       0.0253186       0.0131102 
        5.23079       0.0257264       0.0130053 
        5.24649       0.0262848       0.0129017 
        5.26217       0.0266618       0.0127992 
        5.27788       0.0271671       0.0126977 
        5.29359       0.0276417       0.0125973 
        5.30933       0.0279464       0.0124978 
        5.32504       0.0285687       0.0123995 
        5.34073       0.0289231       0.0123024 
        5.35646       0.0295911       0.0122061 
        5.37218       0.0300735       0.0121108 
        5.38789        0.030671       0.0120167 
        5.40357       0.0313806       0.0119236 
        5.41929        0.031909       0.0118314 
        5.43502       0.0327147       0.0117401 
         5.4507       0.0331018       0.0116499 
        5.46639       0.0338155       0.0115607 
        5.48212       0.0344633       0.0114722 
        5.49786       0.0352587       0.0113845 
        5.51353       0.0361061       0.0112982 
        5.52921       0.0367139       0.0112126 
        5.54495       0.0375672       0.0111277 
        5.56066       0.0383879       0.0110437 
        5.57637       0.0392152       0.0109606 
        5.59207       0.0398289       0.0108785 
        5.60778       0.0407849       0.0107971 
        5.62346       0.0418339       0.0107167 
        5.63916       0.0426912        0.010637 
        5.65487       0.0441125        0.010558 
         5.6706       0.0441748       0.0104798 
        5.68633       0.0456426       0.0104023 
        5.70203       0.0467958       0.0103257 
        5.71773       0.0479386         0.01025 
        5.73344       0.0492467       0.0101749 
        5.74916       0.0505887       0.0101005 
        5.76486        0.051582        0.010027 
        5.78054       0.0529179      0.00995424 
        5.79626       0.0539716      0.00988204 
          5.812       0.0555563      0.00981047 
         5.8277       0.0568916      0.00973981 
        5.84339       0.0581694      0.00966984 
        5.85911       0.0596251      0.00960041 
        5.87484       0.0609376      0.00953167 
        5.89053       0.0628624      0.00946373 
        5.90623       0.0645321      0.00939642 
        5.92195       0.0659993      0.00932963 
        5.93767       0.0677545      0.00926353 
        5.95336       0.0695482      0.00919817 
        5.96905       0.0716166      0.00913345 
        5.98476        0.072688      0.00906926 
        6.00048       0.0749416      0.00900566 
        6.01617       0.0768729      0.00894275 
        6.03185       0.0787989      0.00888051 
        6.04756        0.080409       0.0088187 
        6.06331       0.0830952      0.00875735 
        6.07903       0.0853981       0.0086967 
        6.09473       0.0873348      0.00863667 
        6.11044       0.0902827      0.00857716 
        6.12616       0.0923307       0.0085182 
        6.14186       0.0950483      0.00845986 
        6.15755       0.0974177      0.00840205 
        6.17326        0.100044      0.00834474 
        6.18898        0.103033      0.00828793 
        6.20467        0.105821      0.00823174 
        6.22036        0.109017      0.00817607 
         6.2361        0.111118      0.00812076 
         6.2518        0.114958      0.00806605 
        6.26748        0.118039      0.00801195 
        6.28319        0.120902       0.0079582 
        6.29893        0.124466      0.00790489 
        6.31463        0.128153      0.00785215 
        6.33033        0.131411      0.00779991 
        6.34604         0.13534      0.00774809 
        6.36177        0.138464       0.0076967 
        6.37747        0.141787      0.00764586 
