# k  (h/Mpc)    Pcb(k)  (Mpc/h)^3    Pcb_linear(k) (Mpc/h)^3   ShotnoiseSubtracted = true
      0.0200456         87.9679         88.8481 
      0.0350414         52.8571         52.0822 
      0.0492313          33.893         33.6549 
      0.0637834         27.1459          27.203 
      0.0800726         20.4148         20.5065 
       0.096163         13.7019         13.5234 
       0.111083         10.5566         10.4304 
       0.126058         9.32985         9.37233 
       0.142273         7.64806         7.68508 
       0.158546         5.73922         5.70278 
        0.17375          4.7785         4.74414 
       0.188953         4.33655         4.34433 
       0.204907         3.73583         3.76756 
       0.220756          3.0741         3.06479 
        0.23588         2.64223         2.63672 
         0.2514          2.4065         2.40823 
       0.267535         2.15055          2.1532 
       0.283568           1.856         1.85287 
       0.299022         1.63591         1.63332 
       0.314451         1.50099         1.49333 
       0.330372         1.36063         1.35962 
       0.346141         1.21758         1.21546 
       0.361624         1.09542         1.09417 
       0.377134         1.00283         1.00393 
       0.392932         0.93067        0.923906 
       0.408854        0.842697        0.843377 
       0.424564         0.77593        0.771147 
       0.440253        0.713154        0.711796 
       0.455999         0.65864        0.660116 
       0.471626         0.60972        0.611495 
        0.48727        0.568442        0.566447 
       0.502856        0.529809        0.527127 
       0.518488        0.490699        0.492185 
       0.534347        0.456522        0.459512 
       0.550082        0.430019        0.429386 
       0.565732        0.405085        0.402299 
       0.581496        0.377966        0.377635 
       0.597222        0.355218        0.355054 
       0.612804        0.334148        0.334281 
       0.628434        0.314648        0.315091 
       0.644267        0.297612         0.29728 
       0.660051        0.281473        0.280893 
       0.675724        0.265306        0.265817 
       0.691403        0.251293        0.251821 
       0.707174        0.238267        0.238742 
       0.722871        0.227924        0.226632 
        0.73838         0.21482         0.21548 
       0.754018         0.20413        0.204986 
       0.769845        0.193713        0.195069 
        0.78569        0.185455        0.185792 
       0.801365         0.17715        0.177204 
       0.817031         0.16908         0.16916 
       0.832809        0.161036        0.161561 
       0.848511         0.15401         0.15446 
       0.864097         0.14777         0.14783 
       0.879701        0.141969         0.14158 
       0.895507        0.134803        0.135615 
       0.911279        0.129743        0.130004 
        0.92691        0.124922        0.124754 
       0.942635        0.119183        0.119763 
       0.958396        0.114783        0.115032 
       0.974128        0.110368        0.110563 
       0.989692        0.106057        0.106374 
        1.00528        0.101553        0.102393 
        1.02113       0.0985205       0.0985529 
        1.03692       0.0949939       0.0949221 
        1.05264       0.0911047       0.0914893 
        1.06832       0.0879941       0.0882303 
        1.08405       0.0846618       0.0851201 
        1.09979       0.0818578       0.0821568 
        1.11537       0.0786864       0.0793627 
        1.13105        0.075959       0.0766809 
        1.14679       0.0736696       0.0741116 
        1.16256        0.071391       0.0716542 
        1.17828       0.0690998       0.0693153 
        1.19395       0.0668686       0.0670878 
         1.2097       0.0645429       0.0649461 
        1.22537       0.0623623       0.0629074 
          1.241       0.0604596       0.0609617 
        1.25666       0.0587611       0.0590927 
        1.27241       0.0568343       0.0572927 
        1.28819       0.0550627        0.055564 
        1.30392       0.0536212       0.0539111 
        1.31957       0.0518667       0.0523321 
        1.33529       0.0505589       0.0508101 
        1.35108       0.0488099       0.0493421 
        1.36674       0.0476727        0.047942 
         1.3824       0.0461456       0.0465971 
        1.39811       0.0447477       0.0452989 
        1.41389       0.0436937       0.0440447 
        1.42964       0.0424238       0.0428397 
        1.44531       0.0412186       0.0416853 
        1.46101       0.0400861       0.0405706 
        1.47667       0.0391191       0.0394996 
        1.49229       0.0380841       0.0384697 
        1.50793       0.0370711       0.0374751 
        1.52367       0.0360764        0.036509 
        1.53953       0.0350445       0.0355701 
        1.55526       0.0341788       0.0346715 
        1.57092        0.033474       0.0338073 
        1.58662       0.0325886       0.0329702 
        1.60235       0.0317335       0.0321596 
        1.61809       0.0309282       0.0313756 
        1.63369       0.0302112       0.0306245 
        1.64941        0.029439       0.0298923 
        1.66519       0.0287879       0.0291812 
        1.68085       0.0280623       0.0284981 
        1.69652       0.0274421       0.0278365 
        1.71228       0.0267076       0.0271919 
        1.72806       0.0262129        0.026567 
        1.74368       0.0255581       0.0259678 
        1.75933       0.0249788       0.0253858 
        1.77505       0.0244675       0.0248187 
        1.79081       0.0238613       0.0242677 
         1.8065       0.0233995       0.0237357 
        1.82218       0.0227816       0.0232199 
        1.83797        0.022307       0.0227158 
        1.85367       0.0218232       0.0222293 
        1.86928       0.0212613       0.0217598 
        1.88497       0.0208583       0.0213012 
        1.90073       0.0203647        0.020854 
        1.91647       0.0200684       0.0204199 
        1.93218       0.0196859        0.019999 
        1.94787       0.0191513       0.0195904 
        1.96363       0.0187701       0.0191916 
        1.97935       0.0183896       0.0188045 
        1.99499       0.0180383       0.0184302 
        2.01064       0.0176308       0.0180654 
         2.0264       0.0173348       0.0177082 
        2.04216       0.0169857       0.0173606 
        2.05781       0.0166105       0.0170245 
        2.07353       0.0163005        0.016696 
        2.08928       0.0159925       0.0163754 
        2.10499       0.0157128        0.016064 
        2.12065       0.0153869       0.0157615 
        2.13633       0.0150887       0.0154665 
        2.15211         0.01482        0.015177 
        2.16785       0.0144514       0.0148957 
        2.18349       0.0142359       0.0146232 
        2.19916        0.013939       0.0143569 
        2.21489       0.0136846       0.0140963 
        2.23063       0.0134809       0.0138419 
         2.2463       0.0132126       0.0135948 
        2.26194       0.0129831       0.0133544 
        2.27765       0.0127701       0.0131184 
        2.29341       0.0124755       0.0128875 
        2.30914        0.012291       0.0126626 
        2.32486       0.0120348       0.0124431 
        2.34061       0.0118233       0.0122284 
        2.35635       0.0116324       0.0120189 
        2.37203       0.0114786        0.011815 
        2.38768       0.0113142       0.0116162 
        2.40339       0.0110759       0.0114212 
        2.41914       0.0108732       0.0112301 
        2.43483       0.0107314       0.0110441 
         2.4505       0.0105149       0.0108626 
        2.46622       0.0103242       0.0106844 
        2.48195       0.0101385       0.0105103 
        2.49759      0.00998705       0.0103408 
        2.51328      0.00980044       0.0101747 
        2.52906      0.00964926       0.0100111 
        2.54479       0.0095004      0.00985165 
        2.56049      0.00932944      0.00969597 
        2.57618      0.00920336      0.00954375 
        2.59189      0.00902315      0.00939454 
        2.60758      0.00892307      0.00924871 
        2.62325      0.00872541      0.00910613 
        2.63898       0.0086245      0.00896603 
        2.65468      0.00846978      0.00882913 
        2.67044      0.00833786      0.00869448 
        2.68618      0.00819679      0.00856292 
        2.70184      0.00811852      0.00843458 
        2.71755      0.00797346      0.00830852 
        2.73329      0.00786827      0.00818481 
        2.74897      0.00772739        0.008064 
        2.76462      0.00761052      0.00794587 
        2.78034      0.00750346       0.0078296 
        2.79607      0.00738781       0.0077155 
        2.81179      0.00726894      0.00760379 
        2.82749      0.00717047      0.00749439 
        2.84321      0.00705171      0.00738699 
        2.85893      0.00696612      0.00728171 
        2.87462      0.00685554      0.00717864 
        2.89033       0.0067617      0.00707745 
        2.90605      0.00664407      0.00697811 
        2.92176      0.00657144       0.0068807 
        2.93747      0.00646775      0.00678518 
        2.95318      0.00637911      0.00669143 
        2.96891       0.0062751      0.00659939 
        2.98456      0.00618429      0.00650947 
        3.00023      0.00613269      0.00642108 
        3.01596      0.00602408      0.00633404 
        3.03164      0.00594031      0.00624884 
        3.04738      0.00586789      0.00616495 
         3.0631      0.00575899       0.0060826 
        3.07883      0.00570276      0.00600174 
        3.09456      0.00562309      0.00592235 
        3.11026      0.00553412       0.0058445 
        3.12596      0.00548128      0.00576804 
        3.14163      0.00540848      0.00569312 
        3.15734      0.00533845      0.00561933 
        3.17308      0.00526286      0.00554666 
        3.18879      0.00517726      0.00547546 
        3.20447       0.0051272       0.0054056 
         3.2202      0.00505238      0.00533673 
         3.2359      0.00499525      0.00526917 
        3.25157      0.00491414      0.00520293 
        3.26729      0.00486263      0.00513761 
        3.28304      0.00480889      0.00507327 
        3.29877       0.0047347      0.00501011 
        3.31446      0.00466172      0.00494815 
        3.33014      0.00461815      0.00488728 
        3.34585       0.0045705      0.00482733 
        3.36158      0.00450183      0.00476829 
        3.37727      0.00444007       0.0047104 
        3.39294      0.00439234      0.00465352 
        3.40867      0.00434214      0.00459737 
        3.42439      0.00428036      0.00454216 
        3.44008       0.0042393      0.00448796 
        3.45578      0.00418595      0.00443459 
        3.47153      0.00413442      0.00438196 
        3.48724      0.00407957      0.00433027 
        3.50292      0.00404134      0.00427952 
        3.51859      0.00401286      0.00422961 
        3.53431      0.00394727      0.00418032 
        3.55007      0.00389564       0.0041317 
        3.56577      0.00385096      0.00408402 
        3.58146      0.00381378      0.00403712 
        3.59719       0.0037774      0.00399083 
        3.61292      0.00373614      0.00394528 
        3.62859      0.00367522       0.0039006 
        3.64429      0.00364907      0.00385652 
        3.66003      0.00361028      0.00381298 
        3.67578      0.00356763      0.00377012 
        3.69146      0.00353572      0.00372808 
        3.70712      0.00348841      0.00368674 
        3.72284      0.00345724      0.00364587 
        3.73853      0.00341144      0.00360569 
        3.75422      0.00338123      0.00356609 
        3.76993      0.00335452      0.00352704 
        3.78564      0.00331772      0.00348859 
        3.80137      0.00327709      0.00345064 
        3.81707      0.00324096      0.00341333 
        3.83279      0.00320504      0.00337653 
        3.84853      0.00318959      0.00334022 
        3.86424      0.00315184       0.0033045 
        3.87992      0.00312448      0.00326935 
        3.89561      0.00309416       0.0032347 
        3.91134      0.00305562      0.00320048 
        3.92704      0.00303061      0.00316679 
        3.94273      0.00300909      0.00313362 
        3.95845      0.00298368      0.00310085 
        3.97418      0.00295176      0.00306854 
        3.98988      0.00291538      0.00303673 
        4.00554      0.00288495      0.00300545 
        4.02125      0.00285398      0.00297451 
        4.03698      0.00281111      0.00294396 
        4.05268      0.00277252      0.00291391 
        4.06839      0.00274892      0.00288424 
         4.0841      0.00270283      0.00285499 
        4.09983      0.00267789      0.00282611 
        4.11555       0.0026398      0.00279763 
        4.13124      0.00261347      0.00276962 
        4.14693      0.00258239      0.00274196 
        4.16266      0.00255354      0.00271461 
        4.17839       0.0025238      0.00268765 
        4.19408      0.00248857      0.00266111 
        4.20977      0.00246331      0.00263491 
        4.22551      0.00244573        0.002609 
        4.24123       0.0024163      0.00258346 
        4.25691      0.00240411      0.00255833 
        4.27259      0.00237618      0.00253352 
        4.28831      0.00235747      0.00250899 
        4.30404       0.0023356      0.00248475 
        4.31974      0.00232535      0.00246089 
        4.33543      0.00230597      0.00243735 
        4.35116      0.00228613      0.00241405 
        4.36688      0.00227065      0.00239107 
        4.38255      0.00226486      0.00236847 
        4.39825       0.0022513       0.0023461 
        4.41398      0.00223522      0.00232398 
         4.4297      0.00222393      0.00230216 
        4.44541      0.00221762      0.00228063 
        4.46111      0.00220671      0.00225938 
        4.47683      0.00219937      0.00223839 
        4.49251       0.0021905       0.0022177 
        4.50819      0.00218523      0.00219728 
         4.5239      0.00217912      0.00217708 
        4.53962      0.00217834      0.00215711 
        4.55535      0.00217335      0.00213737 
        4.57106      0.00217495      0.00211791 
        4.58678      0.00216894      0.00209868 
         4.6025      0.00216955      0.00207969 
        4.61821      0.00217384      0.00206093 
        4.63391      0.00217585      0.00204242 
         4.6496      0.00216743      0.00202415 
        4.66532      0.00218236      0.00200607 
        4.68103       0.0021824      0.00198822 
        4.69673      0.00217915      0.00197059 
        4.71241      0.00220859       0.0019532 
        4.72811      0.00221001      0.00193598 
        4.74384      0.00221291      0.00191895 
        4.75955      0.00222505      0.00190215 
        4.77525      0.00223495      0.00188556 
        4.79096      0.00225526      0.00186914 
        4.80669      0.00226601       0.0018529 
         4.8224      0.00227998      0.00183688 
        4.83809      0.00228801      0.00182106 
        4.85379      0.00231166      0.00180541 
         4.8695      0.00232547      0.00178994 
        4.88521      0.00234719      0.00177464 
        4.90093      0.00236065      0.00175953 
        4.91663      0.00239556       0.0017446 
        4.93234      0.00240035      0.00172983 
        4.94807      0.00243146      0.00171521 
        4.96377      0.00245381      0.00170079 
        4.97943      0.00249395      0.00168657 
        4.99514      0.00249993      0.00167247 
        5.01086      0.00253456      0.00165852 
        5.02654      0.00255904      0.00164476 
        5.04227      0.00258908      0.00163111 
          5.058      0.00262932      0.00161761 
        5.07371      0.00265397      0.00160429 
        5.08942      0.00270454      0.00159112 
        5.10513      0.00273007      0.00157809 
        5.12084      0.00276407       0.0015652 
        5.13656      0.00280465      0.00155245 
        5.15225      0.00285139      0.00153986 
        5.16796      0.00289858       0.0015274 
        5.18369      0.00293727      0.00151505 
         5.1994      0.00298919      0.00150287 
        5.21509      0.00301901      0.00149083 
        5.23079      0.00307455       0.0014789 
        5.24649      0.00312548      0.00146712 
        5.26217       0.0031782      0.00145547 
        5.27788      0.00323344      0.00144392 
        5.29359      0.00328508       0.0014325 
        5.30933      0.00334465      0.00142119 
        5.32504      0.00339171      0.00141001 
        5.34073      0.00345134      0.00139897 
        5.35646      0.00352258      0.00138802 
        5.37218      0.00361448      0.00137718 
        5.38789      0.00366037      0.00136648 
        5.40357      0.00372752       0.0013559 
        5.41929       0.0038016      0.00134541 
        5.43502      0.00388111      0.00133502 
         5.4507      0.00395529      0.00132477 
        5.46639      0.00401536      0.00131463 
        5.48212      0.00408307      0.00130457 
        5.49786      0.00421932      0.00129459 
        5.51353      0.00428734      0.00128478 
        5.52921      0.00435351      0.00127505 
        5.54495      0.00447316      0.00126539 
        5.56066       0.0045718      0.00125584 
        5.57637      0.00468146      0.00124639 
        5.59207      0.00476322      0.00123705 
        5.60778      0.00486937       0.0012278 
        5.62346      0.00497678      0.00121865 
        5.63916      0.00505727      0.00120959 
        5.65487      0.00516903      0.00120061 
         5.6706      0.00530305      0.00119171 
        5.68633      0.00543768       0.0011829 
        5.70203      0.00556096       0.0011742 
        5.71773      0.00568338      0.00116558 
        5.73344      0.00576917      0.00115704 
        5.74916      0.00596155      0.00114858 
        5.76486      0.00609496      0.00114022 
        5.78054      0.00621307      0.00113195 
        5.79626      0.00636064      0.00112374 
          5.812      0.00653101       0.0011156 
         5.8277      0.00666442      0.00110757 
        5.84339      0.00686293      0.00109961 
        5.85911      0.00706933      0.00109171 
        5.87484      0.00720028       0.0010839 
        5.89053      0.00739317      0.00107617 
        5.90623      0.00760176      0.00106852 
        5.92195      0.00774269      0.00106092 
        5.93767      0.00796226      0.00105341 
        5.95336       0.0081914      0.00104597 
        5.96905      0.00841568      0.00103861 
        5.98476       0.0085637      0.00103131 
        6.00048      0.00888113      0.00102408 
        6.01617      0.00901751      0.00101693 
        6.03185      0.00925206      0.00100985 
        6.04756      0.00958467      0.00100282 
        6.06331      0.00978065     0.000995845 
        6.07903       0.0100745     0.000988948 
        6.09473       0.0102583     0.000982123 
        6.11044       0.0106792     0.000975355 
        6.12616       0.0109147     0.000968651 
        6.14186       0.0112187     0.000962016 
        6.15755       0.0115386     0.000955442 
        6.17326       0.0117875     0.000948925 
        6.18898       0.0121664     0.000942464 
        6.20467       0.0125131     0.000936075 
        6.22036       0.0128896     0.000929745 
         6.2361       0.0131861     0.000923455 
         6.2518       0.0136098     0.000917234 
        6.26748       0.0138875     0.000911082 
        6.28319       0.0144656      0.00090497 
        6.29893       0.0148739     0.000898907 
        6.31463       0.0152667      0.00089291 
        6.33033       0.0156257     0.000886969 
        6.34604       0.0161243     0.000881077 
        6.36177       0.0165132     0.000875233 
        6.37747       0.0171214     0.000869452 
