# k  (h/Mpc)    Pcb(k)  (Mpc/h)^3    Pcb_linear(k) (Mpc/h)^3   ShotnoiseSubtracted = true
      0.0200456          8086.6         8174.57 
      0.0350414         4961.66         4791.88 
      0.0492313         3104.74         3096.45 
      0.0637834         2451.38         2502.84 
      0.0800726         1838.93         1886.73 
       0.096163         1309.23         1244.24 
       0.111083         1019.45         959.663 
       0.126058         865.021         862.312 
       0.142273         717.582         707.074 
       0.158546         556.561          524.69 
        0.17375         472.959          436.49 
       0.188953         434.471         399.705 
       0.204907         362.577         346.638 
       0.220756         314.069         281.979 
        0.23588         273.668         242.595 
         0.2514         243.914         221.572 
       0.267535         229.641         198.108 
       0.283568         196.592         170.475 
       0.299022         182.823         150.275 
       0.314451         176.004         137.396 
       0.330372         151.871         125.094 
       0.346141         138.491          111.83 
       0.361624         128.627          100.67 
       0.377134         117.307         92.3677 
       0.392932         112.418          85.005 
       0.408854         105.376         77.5959 
       0.424564         99.3456         70.9502 
       0.440253         89.8247         65.4896 
       0.455999         82.3579         60.7347 
       0.471626         79.7307         56.2613 
        0.48727         76.0446         52.1166 
       0.502856          69.368         48.4989 
       0.518488         67.3845         45.2841 
       0.534347         62.8063         42.2779 
       0.550082         60.7891         39.5062 
       0.565732         58.8299          37.014 
       0.581496         53.6274         34.7447 
       0.597222         51.9649         32.6672 
       0.612804          49.462         30.7559 
       0.628434         48.4058         28.9903 
       0.644267         45.4794         27.3515 
       0.660051         43.9033         25.8439 
       0.675724         42.2854         24.4568 
       0.691403         41.2177         23.1691 
       0.707174          39.416         21.9657 
       0.722871         38.4398         20.8515 
        0.73838         36.8251         19.8255 
       0.754018         34.5003           18.86 
       0.769845         34.0854         17.9476 
        0.78569         32.8918          17.094 
       0.801365         31.6538         16.3039 
       0.817031         30.4067         15.5638 
       0.832809         29.6462         14.8646 
       0.848511         28.8587         14.2112 
       0.864097          28.136         13.6013 
       0.879701         27.3977         13.0262 
       0.895507         26.2681         12.4774 
       0.911279         25.5344         11.9612 
        0.92691         25.0939         11.4781 
       0.942635         24.3477         11.0189 
       0.958396         23.9625         10.5836 
       0.974128         23.2845         10.1725 
       0.989692         22.3753         9.78702 
        1.00528         21.9061         9.42082 
        1.02113           21.27         9.06748 
        1.03692         21.0317         8.73342 
        1.05264         20.5184         8.41758 
        1.06832         19.9872         8.11773 
        1.08405         19.4798         7.83157 
        1.09979         19.2269         7.55893 
        1.11537         18.5732         7.30185 
        1.13105         18.1866         7.05511 
        1.14679         17.7828         6.81872 
        1.16256         17.4964         6.59262 
        1.17828         17.2176         6.37743 
        1.19395         16.6994         6.17249 
         1.2097         16.6156         5.97544 
        1.22537          16.127         5.78787 
          1.241         15.8406         5.60885 
        1.25666          15.461         5.43689 
        1.27241         15.2898         5.27128 
        1.28819         14.8412         5.11223 
        1.30392         14.6869         4.96015 
        1.31957         14.4542         4.81488 
        1.33529         14.1721         4.67484 
        1.35108         13.9015         4.53977 
        1.36674         13.6601         4.41096 
         1.3824         13.4003         4.28722 
        1.39811         13.1183         4.16777 
        1.41389         12.9096         4.05238 
        1.42964         12.8539         3.94152 
        1.44531         12.5575          3.8353 
        1.46101         12.3917         3.73274 
        1.47667         12.1725          3.6342 
        1.49229         11.8629         3.53945 
        1.50793         11.7891         3.44794 
        1.52367         11.5457         3.35905 
        1.53953         11.4738         3.27267 
        1.55526         11.2253         3.18999 
        1.57092         11.0913         3.11048 
        1.58662         10.9861         3.03346 
        1.60235         10.8041         2.95888 
        1.61809          10.604         2.88675 
        1.63369         10.4599         2.81764 
        1.64941         10.2796         2.75028 
        1.66519         10.2336         2.68485 
        1.68085         9.97303           2.622 
        1.69652         9.92025         2.56113 
        1.71228         9.83111         2.50182 
        1.72806         9.59874         2.44433 
        1.74368         9.54359          2.3892 
        1.75933         9.40589         2.33565 
        1.77505         9.26564         2.28347 
        1.79081         9.15609         2.23278 
         1.8065         9.05919         2.18383 
        1.82218         8.95342         2.13638 
        1.83797         8.89033            2.09 
        1.85367         8.78906         2.04523 
        1.86928         8.65572         2.00204 
        1.88497         8.51857         1.95985 
        1.90073         8.42344          1.9187 
        1.91647         8.28835         1.87876 
        1.93218         8.23987         1.84003 
        1.94787         8.12215         1.80244 
        1.96363         8.03191         1.76574 
        1.97935          7.8866         1.73013 
        1.99499         7.82609         1.69569 
        2.01064         7.71964         1.66213 
         2.0264         7.62969         1.62926 
        2.04216         7.60172         1.59728 
        2.05781         7.49217         1.56636 
        2.07353         7.42575         1.53614 
        2.08928         7.33665         1.50664 
        2.10499         7.22773         1.47798 
        2.12065         7.18545         1.45015 
        2.13633         7.09664         1.42301 
        2.15211         7.00367         1.39638 
        2.16785         6.96833          1.3705 
        2.18349         6.86255         1.34542 
        2.19916         6.79868         1.32092 
        2.21489         6.69226         1.29694 
        2.23063         6.65865         1.27354 
         2.2463         6.58274         1.25081 
        2.26194         6.52518         1.22868 
        2.27765         6.42228         1.20697 
        2.29341         6.39222         1.18573 
        2.30914         6.31601         1.16504 
        2.32486         6.27008         1.14484 
        2.34061         6.19981         1.12509 
        2.35635         6.14824         1.10581 
        2.37203         6.07682         1.08705 
        2.38768         5.99494         1.06876 
        2.40339         5.98178         1.05082 
        2.41914         5.89643         1.03324 
        2.43483         5.82812         1.01613 
         2.4505         5.78271        0.999423 
        2.46622         5.73401        0.983034 
        2.48195         5.69432        0.967008 
        2.49759         5.62904         0.95142 
        2.51328         5.58406        0.936133 
        2.52906         5.51019        0.921081 
        2.54479         5.47648        0.906413 
        2.56049           5.411        0.892089 
        2.57618         5.38852        0.878084 
        2.59189         5.33249        0.864355 
        2.60758         5.26569        0.850939 
        2.62325         5.23694         0.83782 
        2.63898          5.1983         0.82493 
        2.65468         5.14506        0.812334 
        2.67044         5.11565        0.799946 
        2.68618         5.04065        0.787841 
        2.70184         5.00902        0.776033 
        2.71755         4.96981        0.764434 
        2.73329          4.9169        0.753053 
        2.74897         4.87858        0.741938 
        2.76462         4.83501        0.731069 
        2.78034         4.79344        0.720371 
        2.79607         4.74822        0.709874 
        2.81179         4.72764        0.699595 
        2.82749         4.67628         0.68953 
        2.84321         4.64919        0.679649 
        2.85893         4.60503        0.669962 
        2.87462         4.57256        0.660479 
        2.89033           4.528        0.651169 
        2.90605         4.48226        0.642029 
        2.92176         4.45704        0.633066 
        2.93747          4.4114        0.624278 
        2.95318         4.38344        0.615653 
        2.96891         4.35609        0.607185 
        2.98456         4.29846        0.598912 
        3.00023         4.27232        0.590779 
        3.01596         4.24533        0.582771 
        3.03164         4.20771        0.574932 
        3.04738         4.18522        0.567213 
         3.0631         4.14343        0.559637 
        3.07883         4.10059        0.552197 
        3.09456         4.06339        0.544893 
        3.11026         4.02686         0.53773 
        3.12596         3.99636        0.530695 
        3.14163         3.99664        0.523802 
        3.15734         3.95671        0.517013 
        3.17308         3.91874        0.510327 
        3.18879         3.89019        0.503776 
        3.20447         3.86022        0.497349 
         3.2202         3.82513        0.491012 
         3.2359         3.79883        0.484796 
        3.25157         3.78662        0.478701 
        3.26729         3.75384        0.472692 
        3.28304         3.71007        0.466772 
        3.29877         3.70648        0.460961 
        3.31446         3.67101         0.45526 
        3.33014         3.63194         0.44966 
        3.34585         3.60426        0.444144 
        3.36158         3.58424        0.438712 
        3.37727         3.54794        0.433386 
        3.39294         3.53725        0.428153 
        3.40867         3.49449        0.422986 
        3.42439         3.49354        0.417907 
        3.44008         3.46377         0.41292 
        3.45578         3.43767        0.408009 
        3.47153         3.41931        0.403167 
        3.48724         3.37276        0.398411 
        3.50292         3.36237        0.393743 
        3.51859         3.33954         0.38915 
        3.53431         3.30924        0.384615 
        3.55007         3.28553        0.380141 
        3.56577         3.25597        0.375755 
        3.58146         3.24038         0.37144 
        3.59719         3.21043        0.367181 
        3.61292         3.19905         0.36299 
        3.62859         3.17349        0.358879 
        3.64429         3.15205        0.354824 
        3.66003          3.1324        0.350818 
        3.67578         3.11197        0.346874 
        3.69146         3.09748        0.343006 
        3.70712         3.07345        0.339203 
        3.72284         3.05124        0.335443 
        3.73853         3.03367        0.331745 
        3.75422         3.00251        0.328102 
        3.76993         2.99371        0.324509 
        3.78564         2.97609        0.320971 
        3.80137         2.94686         0.31748 
        3.81707         2.92498        0.314047 
        3.83279         2.90828        0.310662 
        3.84853         2.89303         0.30732 
        3.86424          2.8631        0.304034 
        3.87992         2.84216          0.3008 
        3.89561         2.82393        0.297613 
        3.91134         2.81402        0.294464 
        3.92704         2.80452        0.291364 
        3.94273         2.77451        0.288312 
        3.95845         2.75672        0.285297 
        3.97418          2.7408        0.282324 
        3.98988         2.72194        0.279397 
        4.00554         2.70139        0.276519 
        4.02125         2.68009        0.273673 
        4.03698         2.66146        0.270863 
        4.05268         2.63665        0.268097 
        4.06839         2.61955        0.265368 
         4.0841         2.61241        0.262677 
        4.09983         2.58426        0.260019 
        4.11555         2.57835        0.257399 
        4.13124         2.54125        0.254822 
        4.14693         2.52974        0.252277 
        4.16266         2.51464        0.249761 
        4.17839          2.5039         0.24728 
        4.19408         2.48631        0.244838 
        4.20977         2.47396        0.242428 
        4.22551         2.45467        0.240044 
        4.24123         2.43189        0.237694 
        4.25691          2.4259        0.235382 
        4.27259         2.40335          0.2331 
        4.28831          2.3857        0.230842 
        4.30404         2.37766        0.228613 
        4.31974         2.35753        0.226417 
        4.33543         2.33913        0.224251 
        4.35116         2.32549        0.222108 
        4.36688         2.31633        0.219993 
        4.38255         2.30099        0.217913 
        4.39825         2.28454        0.215856 
        4.41398         2.27652         0.21382 
         4.4297         2.25421        0.211813 
        4.44541         2.24666        0.209832 
        4.46111         2.22843        0.207877 
        4.47683         2.21045        0.205946 
        4.49251         2.20632        0.204042 
        4.50819         2.19332        0.202163 
         4.5239          2.1724        0.200305 
        4.53962         2.16004        0.198467 
        4.55535         2.15054        0.196651 
        4.57106         2.13286        0.194861 
        4.58678         2.12554        0.193092 
         4.6025         2.11276        0.191344 
        4.61821         2.10096        0.189618 
        4.63391         2.08613        0.187916 
         4.6496         2.07274        0.186234 
        4.66532         2.06041        0.184571 
        4.68103           2.051        0.182928 
        4.69673          2.0334        0.181307 
        4.71241         2.02541        0.179706 
        4.72811         2.01606        0.178122 
        4.74384         2.00098        0.176555 
        4.75955         1.99353        0.175009 
        4.77525         1.98446        0.173483 
        4.79096         1.97048        0.171972 
        4.80669         1.96542        0.170478 
         4.8224         1.94893        0.169004 
        4.83809         1.93896        0.167548 
        4.85379         1.93005        0.166109 
         4.8695         1.91873        0.164685 
        4.88521         1.91013        0.163278 
        4.90093         1.89299        0.161887 
        4.91663         1.88751        0.160514 
        4.93234         1.87572        0.159155 
        4.94807         1.86906         0.15781 
        4.96377         1.85611        0.156483 
        4.97943         1.84696        0.155175 
        4.99514         1.83956        0.153877 
        5.01086         1.82876        0.152594 
        5.02654           1.821        0.151328 
        5.04227         1.80957        0.150072 
          5.058         1.79943         0.14883 
        5.07371         1.79442        0.147605 
        5.08942         1.78375        0.146392 
        5.10513          1.7736        0.145194 
        5.12084         1.76423        0.144008 
        5.13656         1.75448        0.142835 
        5.15225         1.74282        0.141677 
        5.16796         1.73665         0.14053 
        5.18369         1.72897        0.139394 
         5.1994         1.71997        0.138273 
        5.21509          1.7105        0.137165 
        5.23079         1.70234        0.136068 
        5.24649         1.69672        0.134984 
        5.26217          1.6869        0.133912 
        5.27788         1.67865         0.13285 
        5.29359         1.67276        0.131799 
        5.30933         1.66768        0.130758 
        5.32504         1.65546         0.12973 
        5.34073         1.64493        0.128714 
        5.35646         1.64217        0.127706 
        5.37218          1.6311        0.126709 
        5.38789         1.62645        0.125724 
        5.40357         1.61931        0.124751 
        5.41929          1.6074        0.123786 
        5.43502         1.60148         0.12283 
         5.4507         1.59639        0.121887 
        5.46639         1.58712        0.120954 
        5.48212         1.58076        0.120028 
        5.49786         1.57105        0.119111 
        5.51353         1.56753        0.118207 
        5.52921         1.55992        0.117312 
        5.54495         1.55219        0.116424 
        5.56066         1.54563        0.115545 
        5.57637         1.53812        0.114676 
        5.59207         1.52783        0.113816 
        5.60778         1.52615        0.112965 
        5.62346         1.51667        0.112123 
        5.63916         1.51311        0.111289 
        5.65487          1.5056        0.110463 
         5.6706         1.49682        0.109645 
        5.68633         1.49121        0.108834 
        5.70203         1.48536        0.108033 
        5.71773         1.48058         0.10724 
        5.73344         1.47267        0.106455 
        5.74916         1.46812        0.105677 
        5.76486         1.45991        0.104907 
        5.78054         1.45528        0.104146 
        5.79626         1.44701        0.103391 
          5.812         1.44474        0.102642 
         5.8277         1.43724        0.101903 
        5.84339         1.43007        0.101171 
        5.85911          1.4236        0.100444 
        5.87484         1.41938       0.0997252 
        5.89053         1.41121       0.0990144 
        5.90623         1.40782       0.0983101 
        5.92195         1.40115       0.0976114 
        5.93767         1.39553       0.0969198 
        5.95336         1.38764       0.0962359 
        5.96905         1.38326       0.0955588 
        5.98476         1.37697       0.0948873 
        6.00048          1.3727       0.0942218 
        6.01617         1.36902       0.0935636 
        6.03185         1.36046       0.0929124 
        6.04756         1.35296       0.0922658 
        6.06331         1.34928       0.0916239 
        6.07903         1.34486       0.0909893 
        6.09473          1.3417       0.0903613 
        6.11044         1.33421       0.0897386 
        6.12616         1.33141       0.0891218 
        6.14186         1.32739       0.0885113 
        6.15755         1.32014       0.0879066 
        6.17326         1.31749       0.0873069 
        6.18898         1.31003       0.0867125 
        6.20467         1.30573       0.0861247 
        6.22036         1.30368       0.0855422 
         6.2361         1.29905       0.0849636 
         6.2518         1.28915       0.0843911 
        6.26748         1.28817       0.0838252 
        6.28319         1.28328       0.0832628 
        6.29893         1.27802        0.082705 
        6.31463         1.27387       0.0821532 
        6.33033           1.269       0.0816066 
        6.34604         1.26204       0.0810645 
        6.36177         1.25613       0.0805268 
        6.37747         1.25562       0.0799949 
