# k  (h/Mpc)    Pcb(k)  (Mpc/h)^3    Pcb_linear(k) (Mpc/h)^3   ShotnoiseSubtracted = true
      0.0200456         26096.4         26467.3 
      0.0350414         16303.5           15515 
      0.0492313         9952.55         10025.6 
      0.0637834         7828.67         8103.62 
      0.0800726         5859.15         6108.78 
       0.096163         4411.58         4028.54 
       0.111083         3459.72         3107.16 
       0.126058         2871.42         2791.97 
       0.142273         2456.64         2289.34 
       0.158546         1933.64         1698.82 
        0.17375         1697.66         1413.25 
       0.188953         1607.15         1294.15 
       0.204907         1354.05         1122.33 
       0.220756         1209.01         912.983 
        0.23588         1067.03         785.465 
         0.2514         953.008         717.399 
       0.267535         914.977         641.426 
       0.283568         803.061          551.96 
       0.299022         755.845         486.556 
       0.314451         785.478         444.855 
       0.330372         676.082         405.024 
       0.346141          618.07          362.08 
       0.361624         588.634         325.947 
       0.377134         562.321         299.065 
       0.392932         528.396         275.226 
       0.408854         507.582         251.237 
       0.424564         491.764          229.72 
       0.440253          450.25          212.04 
       0.455999         426.779         196.645 
       0.471626         434.795         182.161 
        0.48727         404.865         168.741 
       0.502856         388.207         157.028 
       0.518488         373.333         146.619 
       0.534347         358.782         136.886 
       0.550082         339.892         127.912 
       0.565732         334.524         119.843 
       0.581496         323.899         112.495 
       0.597222         315.382         105.769 
       0.612804         304.918         99.5803 
       0.628434         293.678         93.8638 
       0.644267          282.86         88.5579 
       0.660051         279.958         83.6766 
       0.675724         271.193         79.1855 
       0.691403          265.39         75.0161 
       0.707174         255.899         71.1199 
       0.722871         253.133         67.5123 
        0.73838         245.782         64.1902 
       0.754018         238.212         61.0641 
       0.769845         237.959           58.11 
        0.78569         229.252         55.3465 
       0.801365         221.976         52.7881 
       0.817031           221.1         50.3919 
       0.832809         215.653         48.1282 
       0.848511         212.046         46.0126 
       0.864097         203.984         44.0377 
       0.879701          204.59         42.1759 
       0.895507         197.984         40.3991 
       0.911279         193.885         38.7275 
        0.92691         191.223         37.1635 
       0.942635         188.163         35.6766 
       0.958396         183.444         34.2673 
       0.974128         181.303         32.9361 
       0.989692         175.303         31.6881 
        1.00528         174.141         30.5024 
        1.02113         172.463         29.3584 
        1.03692         169.088         28.2768 
        1.05264          165.19         27.2542 
        1.06832         162.623         26.2833 
        1.08405         160.306         25.3568 
        1.09979         156.947          24.474 
        1.11537         156.408         23.6417 
        1.13105         152.427         22.8428 
        1.14679         151.116         22.0774 
        1.16256         148.139         21.3454 
        1.17828         146.078         20.6486 
        1.19395         142.907         19.9851 
         1.2097         142.301         19.3471 
        1.22537         140.543         18.7398 
          1.241         135.926         18.1601 
        1.25666         135.844         17.6034 
        1.27241          133.22         17.0672 
        1.28819         131.738         16.5522 
        1.30392         130.219         16.0598 
        1.31957         127.624         15.5894 
        1.33529         124.596          15.136 
        1.35108         124.397         14.6987 
        1.36674         120.994         14.2817 
         1.3824         120.031          13.881 
        1.39811         118.937         13.4943 
        1.41389         116.933         13.1207 
        1.42964         114.147         12.7617 
        1.44531         113.698         12.4178 
        1.46101         111.698         12.0857 
        1.47667         110.925         11.7667 
        1.49229         110.079         11.4599 
        1.50793         107.778         11.1636 
        1.52367         105.458         10.8758 
        1.53953         104.409         10.5961 
        1.55526         102.969         10.3284 
        1.57092         101.839          10.071 
        1.58662          100.81         9.82164 
        1.60235          99.459         9.58017 
        1.61809         97.6553         9.34662 
        1.63369         96.4307         9.12285 
        1.64941         95.8915         8.90475 
        1.66519         93.2897         8.69292 
        1.68085          92.774         8.48943 
        1.69652         91.7333         8.29233 
        1.71228          89.919         8.10031 
        1.72806          89.497         7.91416 
        1.74368         88.8562         7.73567 
        1.75933         87.4878         7.56228 
        1.77505         86.0971         7.39334 
        1.79081         85.3237         7.22922 
         1.8065         83.5657         7.07073 
        1.82218         82.6757         6.91709 
        1.83797         82.1535         6.76692 
        1.85367         80.7738         6.62199 
        1.86928         80.4008         6.48214 
        1.88497         79.1672         6.34552 
        1.90073          78.457          6.2123 
        1.91647         76.8766         6.08299 
        1.93218          76.044         5.95759 
        1.94787         74.7009         5.83588 
        1.96363         74.1502         5.71706 
        1.97935         73.3429         5.60175 
        1.99499         72.6161         5.49025 
        2.01064         71.7403         5.38159 
         2.0264         70.6694         5.27516 
        2.04216         69.8089         5.17163 
        2.05781         68.7969         5.07151 
        2.07353         68.1861         4.97365 
        2.08928         67.3364         4.87814 
        2.10499         66.7138         4.78537 
        2.12065         65.7577         4.69526 
        2.13633         65.0955         4.60737 
        2.15211         63.8482         4.52114 
        2.16785         63.0476         4.43734 
        2.18349         62.4383         4.35617 
        2.19916         62.1814         4.27684 
        2.21489         61.0375          4.1992 
        2.23063         60.1045         4.12341 
         2.2463         59.4472         4.04982 
        2.26194          59.176         3.97819 
        2.27765         57.9372          3.9079 
        2.29341         57.5332         3.83912 
        2.30914         56.6236         3.77211 
        2.32486         56.1926         3.70673 
        2.34061         55.4265         3.64277 
        2.35635          55.108         3.58036 
        2.37203         54.0472         3.51962 
        2.38768         53.7753         3.46039 
        2.40339         52.8775          3.4023 
        2.41914         52.2948         3.34539 
        2.43483          51.803         3.28998 
         2.4505          51.278          3.2359 
        2.46622         50.6851         3.18283 
        2.48195          50.398         3.13094 
        2.49759         49.5427         3.08048 
        2.51328          48.891         3.03098 
        2.52906         48.5788         2.98224 
        2.54479         47.7245         2.93475 
        2.56049         47.3707         2.88837 
        2.57618         46.7364         2.84303 
        2.59189          46.154         2.79858 
        2.60758         45.7575         2.75514 
        2.62325         45.2442         2.71266 
        2.63898         44.9387         2.67093 
        2.65468         44.1298         2.63015 
        2.67044         43.9055         2.59004 
        2.68618         43.6148         2.55085 
        2.70184         42.9306         2.51261 
        2.71755         42.4893         2.47506 
        2.73329         41.8427         2.43821 
        2.74897         41.6485         2.40222 
        2.76462         40.9184         2.36703 
        2.78034         40.6131         2.33239 
        2.79607         40.3563          2.2984 
        2.81179         39.7508         2.26513 
        2.82749         39.4639         2.23254 
        2.84321         38.8784         2.20054 
        2.85893         38.4551         2.16918 
        2.87462         38.3626         2.13848 
        2.89033         37.6615         2.10833 
        2.90605         37.3195         2.07874 
        2.92176         37.0042         2.04972 
        2.93747          36.581         2.02127 
        2.95318         36.2171         1.99334 
        2.96891         35.8024         1.96592 
        2.98456         35.4172         1.93914 
        3.00023          35.163          1.9128 
        3.01596         34.5012         1.88687 
        3.03164         34.1525         1.86149 
        3.04738          33.841          1.8365 
         3.0631         33.5203         1.81197 
        3.07883         33.2316         1.78789 
        3.09456         32.8726         1.76423 
        3.11026         32.5636         1.74104 
        3.12596         32.3168         1.71827 
        3.14163         31.9667         1.69595 
        3.15734         31.6454         1.67397 
        3.17308         31.3528         1.65232 
        3.18879         31.0241         1.63111 
        3.20447         30.6625          1.6103 
         3.2202         30.3699         1.58978 
         3.2359         30.1438         1.56966 
        3.25157         29.8698         1.54992 
        3.26729          29.472         1.53046 
        3.28304         29.1732          1.5113 
        3.29877         28.8088         1.49248 
        3.31446         28.5326         1.47403 
        3.33014         28.3263         1.45589 
        3.34585         28.0654         1.43803 
        3.36158         27.6869         1.42045 
        3.37727          27.407          1.4032 
        3.39294          27.195         1.38626 
        3.40867         26.9711         1.36953 
        3.42439         26.6561         1.35308 
        3.44008         26.4824         1.33694 
        3.45578         26.1497         1.32104 
        3.47153         25.8418         1.30536 
        3.48724         25.7183         1.28996 
        3.50292         25.4229         1.27485 
        3.51859         25.2055         1.25998 
        3.53431         24.9287         1.24529 
        3.55007         24.6801         1.23081 
        3.56577         24.5164         1.21661 
        3.58146         24.2548         1.20263 
        3.59719         24.0651         1.18885 
        3.61292         23.8889         1.17528 
        3.62859         23.5526         1.16197 
        3.64429         23.3654         1.14884 
        3.66003         23.2005         1.13587 
        3.67578         22.9268          1.1231 
        3.69146         22.7159         1.11057 
        3.70712          22.464         1.09826 
        3.72284         22.3786         1.08608 
        3.73853         22.0751         1.07411 
        3.75422          21.827         1.06232 
        3.76993         21.6778         1.05069 
        3.78564         21.4434         1.03923 
        3.80137         21.3441         1.02793 
        3.81707         21.1034         1.01681 
        3.83279         20.9249         1.00585 
        3.84853          20.747        0.995031 
        3.86424         20.5274        0.984391 
        3.87992         20.3321         0.97392 
        3.89561         20.0928          0.9636 
        3.91134         19.9688        0.953406 
        3.92704         19.7925         0.94337 
        3.94273         19.6122        0.933487 
        3.95845         19.4408        0.923725 
        3.97418         19.2655          0.9141 
        3.98988         19.0571        0.904623 
        4.00554         18.9345        0.895305 
        4.02125         18.6828         0.88609 
        4.03698          18.574         0.87699 
        4.05268         18.4247        0.868036 
        4.06839         18.1884        0.859199 
         4.0841         18.0558        0.850487 
        4.09983         17.9066        0.841882 
        4.11555         17.7312        0.833398 
        4.13124         17.5749        0.825053 
        4.14693         17.3838        0.816814 
        4.16266         17.2721        0.808667 
        4.17839         17.1216        0.800635 
        4.19408         16.9744        0.792729 
        4.20977         16.8649        0.784926 
        4.22551         16.6907        0.777207 
        4.24123         16.5041        0.769599 
        4.25691         16.4239        0.762113 
        4.27259         16.2995        0.754722 
        4.28831         16.1355        0.747414 
        4.30404         16.0328        0.740194 
        4.31974         15.8655        0.733085 
        4.33543         15.7499        0.726072 
        4.35116         15.6339        0.719132 
        4.36688          15.493        0.712286 
        4.38255         15.3543        0.705552 
        4.39825         15.2427        0.698891 
        4.41398         15.1086        0.692301 
         4.4297         14.9639        0.685802 
        4.44541         14.8205        0.679387 
        4.46111         14.7268        0.673057 
        4.47683          14.623        0.666803 
        4.49251         14.4487        0.660641 
        4.50819         14.3557        0.654557 
         4.5239         14.2872         0.64854 
        4.53962         14.1346         0.64259 
        4.55535         14.0082        0.636711 
        4.57106         13.8722        0.630914 
        4.58678         13.7627        0.625186 
         4.6025         13.6625        0.619528 
        4.61821         13.5381         0.61394 
        4.63391         13.4493        0.608427 
         4.6496         13.3277        0.602983 
        4.66532         13.2097        0.597597 
        4.68103         13.1402        0.592278 
        4.69673         13.0042        0.587029 
        4.71241         12.9075        0.581847 
        4.72811         12.8253        0.576719 
        4.74384         12.7101        0.571645 
        4.75955         12.5981         0.56664 
        4.77525          12.482        0.561696 
        4.79096         12.4228        0.556805 
        4.80669         12.3112        0.551969 
         4.8224         12.2028        0.547196 
        4.83809         12.0993        0.542483 
        4.85379         12.0177        0.537822 
         4.8695         11.9158        0.533212 
        4.88521         11.8334        0.528657 
        4.90093         11.7521        0.524154 
        4.91663         11.6716        0.519706 
        4.93234          11.554        0.515306 
        4.94807         11.4514        0.510952 
        4.96377         11.3719        0.506657 
        4.97943         11.2948        0.502419 
        4.99514         11.2033        0.498219 
        5.01086         11.1103        0.494062 
        5.02654         11.0265        0.489964 
        5.04227          10.935        0.485899 
          5.058         10.8422        0.481878 
        5.07371         10.7805        0.477909 
        5.08942         10.7031        0.473985 
        5.10513         10.5982        0.470103 
        5.12084         10.5268        0.466263 
        5.13656         10.4634        0.462466 
        5.15225         10.3676        0.458717 
        5.16796           10.31        0.455003 
        5.18369         10.2031        0.451326 
         5.1994         10.1231        0.447696 
        5.21509         10.0904        0.444109 
        5.23079          9.9801        0.440557 
        5.24649         9.93284        0.437046 
        5.26217         9.84512        0.433575 
        5.27788         9.78014        0.430137 
        5.29359         9.68859        0.426734 
        5.30933         9.64516        0.423364 
        5.32504         9.56399        0.420034 
        5.34073         9.48155        0.416744 
        5.35646          9.4119        0.413483 
        5.37218         9.35924        0.410255 
        5.38789         9.27934        0.407066 
        5.40357          9.2105        0.403915 
        5.41929         9.13823        0.400789 
        5.43502         9.07167        0.397696 
         5.4507         9.02121        0.394643 
        5.46639         8.95918        0.391621 
        5.48212         8.88092        0.388623 
        5.49786         8.82268        0.385652 
        5.51353         8.76473        0.382727 
        5.52921         8.69171        0.379829 
        5.54495         8.62721        0.376953 
        5.56066         8.55618        0.374108 
        5.57637         8.50726        0.371294 
        5.59207         8.44724         0.36851 
        5.60778         8.39379        0.365754 
        5.62346         8.32375        0.363029 
        5.63916         8.26125        0.360329 
        5.65487         8.21394        0.357655 
         5.6706         8.14886        0.355004 
        5.68633         8.07917        0.352379 
        5.70203         8.02447        0.349786 
        5.71773          7.9788        0.347219 
        5.73344         7.90299        0.344677 
        5.74916          7.8618        0.342157 
        5.76486         7.81717        0.339665 
        5.78054         7.74089        0.337202 
        5.79626         7.69656        0.334756 
          5.812         7.64164        0.332331 
         5.8277         7.60263        0.329938 
        5.84339         7.54004        0.327567 
        5.85911         7.49341        0.325215 
        5.87484         7.44513        0.322887 
        5.89053         7.38942        0.320585 
        5.90623         7.32785        0.318305 
        5.92195         7.28221        0.316043 
        5.93767         7.22662        0.313804 
        5.95336         7.16668        0.311589 
        5.96905         7.12817        0.309397 
        5.98476         7.07706        0.307223 
        6.00048         7.03545        0.305068 
        6.01617         6.99972        0.302937 
        6.03185         6.94906        0.300829 
        6.04756         6.89142        0.298735 
        6.06331          6.8635        0.296657 
        6.07903         6.81159        0.294602 
        6.09473         6.74763        0.292569 
        6.11044         6.73263        0.290553 
        6.12616         6.67773        0.288556 
        6.14186         6.62237        0.286579 
        6.15755         6.59096        0.284621 
        6.17326         6.54267        0.282679 
        6.18898         6.48171        0.280755 
        6.20467         6.45259        0.278851 
        6.22036         6.41408        0.276966 
         6.2361         6.36739        0.275092 
         6.2518         6.33368        0.273239 
        6.26748          6.2987        0.271406 
        6.28319         6.24454        0.269585 
        6.29893         6.20736        0.267779 
        6.31463          6.1713        0.265993 
        6.33033         6.11791        0.264223 
        6.34604         6.08206        0.262468 
        6.36177         6.05264        0.260727 
        6.37747         6.00987        0.259005 
