# k  (h/Mpc)    Pcb(k)  (Mpc/h)^3    Pcb_linear(k) (Mpc/h)^3   ShotnoiseSubtracted = true
      0.0200456         1726.34         1745.21 
      0.0350414         1023.72         1023.03 
      0.0492313         665.446         661.069 
      0.0637834         540.608         534.337 
      0.0800726         407.223         402.801 
       0.096163         265.927         265.635 
       0.111083         204.395          204.88 
       0.126058         185.065         184.097 
       0.142273         153.273         150.955 
       0.158546          115.18         112.017 
        0.17375         93.6871         93.1871 
       0.188953         86.7804         85.3339 
       0.204907         77.5223         74.0046 
       0.220756         62.4549         60.2004 
        0.23588         53.6641         51.7921 
         0.2514         48.2404         47.3039 
       0.267535         43.6232         42.2944 
       0.283568         37.9272         36.3952 
       0.299022         33.8381         32.0826 
       0.314451          30.174         29.3329 
       0.330372         27.8019         26.7065 
       0.346141          24.869         23.8749 
       0.361624         22.6417         21.4923 
       0.377134         21.0364         19.7198 
       0.392932         18.6152         18.1479 
       0.408854         17.6423         16.5661 
       0.424564         16.1916         15.1473 
       0.440253         14.8806         13.9815 
       0.455999         13.8678         12.9664 
       0.471626         12.9596         12.0113 
        0.48727          12.052         11.1265 
       0.502856         11.1758         10.3541 
       0.518488         10.5824          9.6678 
       0.534347          10.066           9.026 
       0.550082         9.11498         8.43426 
       0.565732         8.38316         7.90219 
       0.581496         8.15094         7.41773 
       0.597222         7.76379         6.97419 
       0.612804          7.2014         6.56614 
       0.628434         6.90077         6.18921 
       0.644267         6.56324         5.83934 
       0.660051         6.14824         5.51747 
       0.675724         5.81229         5.22134 
       0.691403          5.5874         4.94642 
       0.707174         5.28092         4.68951 
       0.722871         5.03632         4.45163 
        0.73838         4.78995         4.23258 
       0.754018         4.63209         4.02646 
       0.769845         4.37144         3.83166 
        0.78569         4.20252         3.64945 
       0.801365         3.99993         3.48075 
       0.817031         3.83872         3.32275 
       0.832809         3.70192         3.17348 
       0.848511         3.47953         3.03399 
       0.864097           3.345         2.90376 
       0.879701         3.22464           2.781 
       0.895507         3.05524         2.66384 
       0.911279         3.00642         2.55362 
        0.92691         2.88071         2.45049 
       0.942635         2.74371         2.35245 
       0.958396         2.64243         2.25952 
       0.974128         2.55442         2.17174 
       0.989692          2.4884         2.08945 
        1.00528         2.37261         2.01127 
        1.02113         2.28189         1.93584 
        1.03692         2.22103         1.86452 
        1.05264         2.14175         1.79709 
        1.06832         2.08169         1.73307 
        1.08405         1.97805         1.67198 
        1.09979         1.93424         1.61377 
        1.11537         1.87469         1.55889 
        1.13105         1.81512         1.50621 
        1.14679         1.76213         1.45574 
        1.16256         1.69544         1.40747 
        1.17828         1.65213         1.36153 
        1.19395         1.60063         1.31778 
         1.2097         1.53433         1.27571 
        1.22537          1.4915         1.23567 
          1.241         1.45748         1.19745 
        1.25666         1.43823         1.16073 
        1.27241         1.36543         1.12538 
        1.28819         1.33849         1.09142 
        1.30392         1.30592         1.05895 
        1.31957         1.27308         1.02794 
        1.33529         1.22765        0.998042 
        1.35108         1.19754        0.969206 
        1.36674         1.16092        0.941706 
         1.3824         1.12594        0.915288 
        1.39811         1.09717        0.889787 
        1.41389         1.07772        0.865152 
        1.42964         1.04959        0.841483 
        1.44531         1.02075        0.818807 
        1.46101        0.992894        0.796911 
        1.47667        0.960423        0.775874 
        1.49229        0.950209        0.755645 
        1.50793        0.920851        0.736109 
        1.52367        0.901276        0.717131 
        1.53953        0.871802         0.69869 
        1.55526        0.854533        0.681037 
        1.57092        0.833907        0.664062 
        1.58662        0.816764         0.64762 
        1.60235        0.793568        0.631698 
        1.61809        0.775744        0.616298 
        1.63369        0.765949        0.601544 
        1.64941        0.741823        0.587162 
        1.66519        0.727099        0.573195 
        1.68085        0.705859        0.559777 
        1.69652        0.691888         0.54678 
        1.71228        0.680223        0.534119 
        1.72806        0.660743        0.521845 
        1.74368        0.648619        0.510076 
        1.75933        0.633211        0.498642 
        1.77505        0.622694        0.487503 
        1.79081        0.608681        0.476681 
         1.8065        0.591578        0.466231 
        1.82218        0.583398          0.4561 
        1.83797        0.573003        0.446198 
        1.85367        0.562804        0.436642 
        1.86928        0.552366         0.42742 
        1.88497        0.536427        0.418412 
        1.90073        0.523536        0.409627 
        1.91647        0.517498        0.401101 
        1.93218        0.508141        0.392832 
        1.94787        0.495548        0.384807 
        1.96363        0.483933        0.376972 
        1.97935        0.475956        0.369369 
        1.99499        0.466334        0.362017 
        2.01064        0.457349        0.354852 
         2.0264        0.451446        0.347834 
        2.04216         0.44075        0.341008 
        2.05781        0.430745        0.334406 
        2.07353         0.42495        0.327953 
        2.08928        0.415527        0.321655 
        2.10499         0.40822        0.315538 
        2.12065        0.403236        0.309597 
        2.13633        0.395942        0.303801 
        2.15211         0.38813        0.298116 
        2.16785        0.378461         0.29259 
        2.18349         0.37395        0.287238 
        2.19916        0.366771        0.282006 
        2.21489        0.359369        0.276887 
        2.23063        0.352634         0.27189 
         2.2463        0.348895        0.267037 
        2.26194        0.340163        0.262314 
        2.27765        0.333874         0.25768 
        2.29341        0.329999        0.253144 
        2.30914        0.325497        0.248726 
        2.32486        0.320806        0.244415 
        2.34061        0.314091        0.240197 
        2.35635        0.306974        0.236082 
        2.37203        0.303101        0.232077 
        2.38768        0.298458        0.228172 
        2.40339        0.294113        0.224341 
        2.41914        0.289871        0.220589 
        2.43483        0.284136        0.216935 
         2.4505        0.278963        0.213369 
        2.46622        0.274234         0.20987 
        2.48195         0.27119        0.206449 
        2.49759        0.267028        0.203121 
        2.51328        0.261428        0.199857 
        2.52906         0.25694        0.196644 
        2.54479        0.254238        0.193512 
        2.56049         0.24975        0.190454 
        2.57618        0.246149        0.187464 
        2.59189         0.24223        0.184533 
        2.60758        0.239547        0.181669 
        2.62325        0.235777        0.178868 
        2.63898        0.231923        0.176116 
        2.65468        0.228347        0.173427 
        2.67044        0.224729        0.170782 
        2.68618        0.221198        0.168198 
        2.70184        0.217484        0.165677 
        2.71755          0.2142        0.163201 
        2.73329        0.212131        0.160771 
        2.74897        0.209061        0.158398 
        2.76462        0.205479        0.156078 
        2.78034        0.203297        0.153794 
        2.79607        0.199613        0.151552 
        2.81179        0.197037        0.149358 
        2.82749        0.194182        0.147209 
        2.84321        0.191722          0.1451 
        2.85893        0.189092        0.143032 
        2.87462        0.186497        0.141007 
        2.89033        0.183717         0.13902 
        2.90605        0.181242        0.137068 
        2.92176        0.179071        0.135155 
        2.93747        0.176253        0.133278 
        2.95318        0.174605        0.131437 
        2.96891        0.172114        0.129629 
        2.98456        0.170102        0.127863 
        3.00023        0.167366        0.126127 
        3.01596        0.165211        0.124417 
        3.03164        0.163698        0.122743 
        3.04738        0.160988        0.121096 
         3.0631        0.158967        0.119478 
        3.07883        0.156548         0.11789 
        3.09456        0.154828         0.11633 
        3.11026        0.153089        0.114801 
        3.12596        0.150778        0.113299 
        3.14163        0.149288        0.111828 
        3.15734        0.147644        0.110378 
        3.17308        0.145914        0.108951 
        3.18879         0.14354        0.107552 
        3.20447        0.142342         0.10618 
         3.2202        0.140558        0.104827 
         3.2359        0.138961          0.1035 
        3.25157        0.137154        0.102199 
        3.26729        0.135854        0.100916 
        3.28304        0.134532       0.0996522 
        3.29877        0.132568       0.0984116 
        3.31446        0.131668       0.0971945 
        3.33014        0.130036       0.0959989 
        3.34585        0.128943       0.0948213 
        3.36158        0.127138       0.0936615 
        3.37727        0.126011       0.0925245 
        3.39294        0.124358       0.0914073 
        3.40867        0.122915       0.0903042 
        3.42439        0.121951       0.0892198 
        3.44008        0.120263       0.0881551 
        3.45578        0.119644       0.0871068 
        3.47153        0.118577       0.0860731 
        3.48724        0.117384       0.0850577 
        3.50292        0.116122        0.084061 
        3.51859        0.114641       0.0830804 
        3.53431        0.113437       0.0821124 
        3.55007        0.112854       0.0811572 
        3.56577        0.111536       0.0802208 
        3.58146         0.11029       0.0792994 
        3.59719        0.109498       0.0783903 
        3.61292        0.108429       0.0774955 
        3.62859        0.106984       0.0766179 
        3.64429        0.106233       0.0757521 
        3.66003         0.10544       0.0748968 
        3.67578        0.104327        0.074055 
        3.69146        0.103435       0.0732291 
        3.70712        0.102679       0.0724171 
        3.72284        0.101708       0.0716144 
        3.73853         0.10105        0.070825 
        3.75422        0.100005       0.0700472 
        3.76993       0.0993526       0.0692802 
        3.78564       0.0980928       0.0685249 
        3.80137        0.097229       0.0677795 
        3.81707       0.0970014       0.0670466 
        3.83279       0.0961566       0.0663239 
        3.84853       0.0950398       0.0656105 
        3.86424       0.0939036       0.0649089 
        3.87992       0.0936398       0.0642185 
        3.89561       0.0927468       0.0635379 
        3.91134       0.0920109       0.0628658 
        3.92704       0.0907955        0.062204 
        3.94273       0.0903237       0.0615523 
        3.95845       0.0893663       0.0609087 
        3.97418       0.0886761        0.060274 
        3.98988       0.0879948       0.0596492 
        4.00554        0.086711       0.0590347 
        4.02125       0.0861226       0.0584271 
        4.03698       0.0853181        0.057827 
        4.05268       0.0842478       0.0572367 
        4.06839       0.0833043        0.056654 
         4.0841       0.0820355       0.0560795 
        4.09983       0.0809119       0.0555121 
        4.11555       0.0798418       0.0549527 
        4.13124       0.0789051       0.0544024 
        4.14693       0.0784484       0.0538592 
        4.16266       0.0773017        0.053322 
        4.17839       0.0765747       0.0527924 
        4.19408       0.0759161       0.0522711 
        4.20977       0.0749566       0.0517565 
        4.22551       0.0744648       0.0512476 
        4.24123       0.0734487       0.0507459 
        4.25691       0.0728026       0.0502523 
        4.27259       0.0720099        0.049765 
        4.28831       0.0714899       0.0492831 
        4.30404       0.0708492        0.048807 
        4.31974       0.0705203       0.0483382 
        4.33543       0.0697283       0.0478758 
        4.35116       0.0693584       0.0474182 
        4.36688       0.0685434       0.0469668 
        4.38255       0.0680875       0.0465228 
        4.39825       0.0679413       0.0460835 
        4.41398       0.0672635        0.045649 
         4.4297       0.0667765       0.0452205 
        4.44541       0.0663458       0.0447975 
        4.46111       0.0663305       0.0443801 
        4.47683       0.0658022       0.0439678 
        4.49251       0.0653406       0.0435614 
        4.50819       0.0651109       0.0431602 
         4.5239       0.0649976       0.0427635 
        4.53962       0.0644986       0.0423712 
        4.55535       0.0644006       0.0419835 
        4.57106       0.0642959       0.0416013 
        4.58678       0.0639405       0.0412236 
         4.6025       0.0638428       0.0408505 
        4.61821       0.0637415        0.040482 
        4.63391       0.0636652       0.0401185 
         4.6496       0.0636256       0.0397596 
        4.66532       0.0634781       0.0394044 
        4.68103       0.0636554       0.0390537 
        4.69673       0.0634447       0.0387076 
        4.71241       0.0633915       0.0383659 
        4.72811       0.0634119       0.0380278 
        4.74384       0.0635059       0.0376932 
        4.75955       0.0635593       0.0373632 
        4.77525       0.0637887       0.0370372 
        4.79096       0.0638297       0.0367147 
        4.80669       0.0637751       0.0363958 
         4.8224        0.064109        0.036081 
        4.83809       0.0640278       0.0357703 
        4.85379        0.064575        0.035463 
         4.8695       0.0647085        0.035159 
        4.88521       0.0647911       0.0348586 
        4.90093        0.065145       0.0345617 
        4.91663        0.065546       0.0342685 
        4.93234       0.0658244       0.0339783 
        4.94807       0.0662121       0.0336912 
        4.96377       0.0664864        0.033408 
        4.97943       0.0671192       0.0331286 
        4.99514       0.0674562       0.0328516 
        5.01086       0.0678796       0.0325775 
        5.02654       0.0684119       0.0323073 
        5.04227       0.0689976       0.0320392 
          5.058       0.0696152       0.0317741 
        5.07371       0.0701927       0.0315124 
        5.08942       0.0709047       0.0312537 
        5.10513       0.0714005       0.0309977 
        5.12084       0.0719325       0.0307445 
        5.13656        0.072789       0.0304941 
        5.15225       0.0736451       0.0302469 
        5.16796       0.0743997        0.030002 
        5.18369       0.0747362       0.0297596 
         5.1994       0.0758033       0.0295203 
        5.21509       0.0767672       0.0292837 
        5.23079       0.0777666       0.0290495 
        5.24649       0.0788161        0.028818 
        5.26217       0.0793183       0.0285891 
        5.27788       0.0803692       0.0283624 
        5.29359        0.081421       0.0281381 
        5.30933       0.0827528       0.0279158 
        5.32504       0.0836034       0.0276963 
        5.34073       0.0848714       0.0274793 
        5.35646       0.0861606       0.0272643 
        5.37218       0.0868636       0.0270514 
        5.38789       0.0883949       0.0268412 
        5.40357       0.0896109       0.0266334 
        5.41929       0.0908278       0.0264273 
        5.43502       0.0920034       0.0262233 
         5.4507       0.0933982        0.026022 
        5.46639       0.0952965       0.0258227 
        5.48212       0.0963884       0.0256251 
        5.49786       0.0982966       0.0254292 
        5.51353       0.0999121       0.0252363 
        5.52921        0.101292       0.0250452 
        5.54495        0.103211       0.0248555 
        5.56066        0.105444        0.024668 
        5.57637        0.106528       0.0244824 
        5.59207        0.108817       0.0242989 
        5.60778        0.110278       0.0241171 
        5.62346        0.112944       0.0239374 
        5.63916        0.114478       0.0237594 
        5.65487        0.115978       0.0235831 
         5.6706        0.118715       0.0234083 
        5.68633        0.121067       0.0232352 
        5.70203        0.123006       0.0230642 
        5.71773        0.125493        0.022895 
        5.73344        0.126951       0.0227273 
        5.74916        0.129652       0.0225612 
        5.76486        0.131641       0.0223969 
        5.78054        0.135431       0.0222344 
        5.79626         0.13651       0.0220732 
          5.812         0.13909       0.0219133 
         5.8277        0.142582       0.0217555 
        5.84339        0.145256       0.0215992 
        5.85911        0.147934       0.0214441 
        5.87484        0.149455       0.0212906 
        5.89053        0.153427       0.0211388 
        5.90623        0.156008       0.0209884 
        5.92195        0.159011       0.0208393 
        5.93767        0.161589       0.0206916 
        5.95336        0.164411       0.0205456 
        5.96905        0.168491       0.0204011 
        5.98476        0.171903       0.0202577 
        6.00048        0.175132       0.0201156 
        6.01617           0.177       0.0199751 
        6.03185        0.180508       0.0198361 
        6.04756        0.184129        0.019698 
        6.06331        0.188114        0.019561 
        6.07903        0.191466       0.0194255 
        6.09473        0.194092       0.0192914 
        6.11044        0.198904       0.0191585 
        6.12616        0.202004       0.0190268 
        6.14186        0.205798       0.0188965 
        6.15755        0.210001       0.0187674 
        6.17326        0.213282       0.0186393 
        6.18898        0.217904       0.0185124 
        6.20467        0.221993       0.0183869 
        6.22036        0.224426       0.0182626 
         6.2361        0.228411       0.0181391 
         6.2518        0.232483       0.0180168 
        6.26748        0.235611        0.017896 
        6.28319        0.241433        0.017776 
        6.29893        0.244433       0.0176569 
        6.31463        0.250362       0.0175391 
        6.33033        0.253494       0.0174224 
        6.34604        0.257045       0.0173066 
        6.36177        0.261606       0.0171918 
        6.37747        0.267125       0.0170783 
