# k  (h/Mpc)    Pcb(k)  (Mpc/h)^3    Pcb_linear(k) (Mpc/h)^3   ShotnoiseSubtracted = true
      0.0200456         28987.8         29416.2 
      0.0350414         18148.9         17243.6 
      0.0492313         11043.8         11142.6 
      0.0637834         8687.94         9006.48 
      0.0800726         6500.49         6789.39 
       0.096163         4926.87         4477.38 
       0.111083         3865.24         3453.35 
       0.126058         3203.85         3103.03 
       0.142273         2751.39         2544.41 
       0.158546         2166.17          1888.1 
        0.17375         1912.78         1570.71 
       0.188953         1817.48         1438.34 
       0.204907            1533         1247.38 
       0.220756         1374.33          1014.7 
        0.23588         1213.26         872.977 
         0.2514         1087.85         797.328 
       0.267535         1042.27         712.891 
       0.283568         919.854         613.456 
       0.299022         863.682         540.765 
       0.314451         902.085         494.418 
       0.330372         782.795         450.149 
       0.346141         715.206         402.421 
       0.361624         681.783         362.262 
       0.377134         654.093         332.385 
       0.392932         612.046         305.891 
       0.408854         589.668         279.229 
       0.424564         572.146         255.314 
       0.440253         526.823         235.665 
       0.455999         498.893         218.554 
       0.471626         509.157         202.456 
        0.48727         473.906         187.542 
       0.502856         459.258         174.523 
       0.518488          438.14         162.955 
       0.534347         424.244         152.137 
       0.550082         402.172         142.163 
       0.565732         394.133         133.195 
       0.581496         383.315         125.029 
       0.597222         373.947         117.553 
       0.612804         362.079         110.675 
       0.628434         347.921         104.322 
       0.644267         336.224         98.4245 
       0.660051         333.019         92.9994 
       0.675724         322.876         88.0079 
       0.691403         314.527          83.374 
       0.707174          304.53         79.0437 
       0.722871         303.278         75.0342 
        0.73838          292.57          71.342 
       0.754018         284.466         67.8676 
       0.769845         283.321         64.5843 
        0.78569         274.217         61.5129 
       0.801365         265.387         58.6695 
       0.817031         263.408         56.0063 
       0.832809         258.235         53.4904 
       0.848511         254.528         51.1391 
       0.864097         244.942         48.9441 
       0.879701         246.019         46.8749 
       0.895507         237.156         44.9001 
       0.911279         232.457         43.0423 
        0.92691         229.993         41.3041 
       0.942635         225.833         39.6515 
       0.958396         220.071         38.0852 
       0.974128         216.714         36.6056 
       0.989692         211.319         35.2186 
        1.00528         208.103         33.9008 
        1.02113         206.848         32.6293 
        1.03692         203.454         31.4272 
        1.05264         199.612         30.2907 
        1.06832          194.97         29.2117 
        1.08405         193.627         28.1819 
        1.09979         188.904         27.2008 
        1.11537         187.326         26.2757 
        1.13105         183.413         25.3878 
        1.14679         181.237         24.5372 
        1.16256         178.766         23.7236 
        1.17828          176.08         22.9492 
        1.19395         172.381         22.2117 
         1.2097         171.305         21.5026 
        1.22537         169.024         20.8277 
          1.241         163.746         20.1835 
        1.25666         163.377         19.5647 
        1.27241          160.77         18.9687 
        1.28819         158.434         18.3964 
        1.30392         157.382         17.8491 
        1.31957          153.89         17.3263 
        1.33529         149.874         16.8224 
        1.35108         150.319         16.3364 
        1.36674         146.163         15.8728 
         1.3824         144.347         15.4276 
        1.39811         142.974         14.9977 
        1.41389         141.116         14.5825 
        1.42964         138.053         14.1836 
        1.44531         137.319         13.8013 
        1.46101          134.78         13.4323 
        1.47667         133.186         13.0777 
        1.49229         132.854         12.7367 
        1.50793         130.359         12.4074 
        1.52367         127.393         12.0875 
        1.53953          126.34         11.7767 
        1.55526         124.211         11.4792 
        1.57092          123.03         11.1931 
        1.58662         122.053         10.9159 
        1.60235         120.126         10.6475 
        1.61809         117.905          10.388 
        1.63369          116.21         10.1393 
        1.64941          115.79         9.89687 
        1.66519         112.688         9.66144 
        1.68085         111.575         9.43528 
        1.69652         110.683         9.21621 
        1.71228         109.016          9.0028 
        1.72806         107.958         8.79591 
        1.74368         106.553         8.59754 
        1.75933         105.471         8.40483 
        1.77505         103.805         8.21707 
        1.79081         102.812         8.03466 
         1.8065         101.203         7.85851 
        1.82218         99.6676         7.68775 
        1.83797         98.8089         7.52085 
        1.85367         97.3484         7.35978 
        1.86928           96.24         7.20434 
        1.88497         95.8108          7.0525 
        1.90073          94.507         6.90444 
        1.91647         92.9917         6.76072 
        1.93218         91.7834         6.62136 
        1.94787         90.4388         6.48609 
        1.96363         89.3936         6.35402 
        1.97935         88.4646         6.22587 
        1.99499         87.6184         6.10194 
        2.01064         86.3354         5.98118 
         2.0264         85.3006         5.86289 
        2.04216          83.834         5.74783 
        2.05781         83.0534         5.63655 
        2.07353         82.3506         5.52779 
        2.08928          80.856         5.42164 
        2.10499         80.6895         5.31853 
        2.12065         79.4504         5.21838 
        2.13633         78.5828          5.1207 
        2.15211         77.2702         5.02487 
        2.16785         76.2424         4.93173 
        2.18349         75.3623         4.84151 
        2.19916         75.2944         4.75334 
        2.21489         73.9215         4.66705 
        2.23063         72.5143         4.58282 
         2.2463         71.9915         4.50103 
        2.26194         71.1451         4.42141 
        2.27765         70.5981          4.3433 
        2.29341         69.5044         4.26685 
        2.30914         68.4525         4.19238 
        2.32486         67.7699         4.11971 
        2.34061         66.7783         4.04863 
        2.35635         66.3549         3.97927 
        2.37203         65.2205         3.91175 
        2.38768         64.8185         3.84593 
        2.40339         63.8286         3.78137 
        2.41914         63.1129         3.71812 
        2.43483         62.3524         3.65653 
         2.4505         61.7448         3.59642 
        2.46622         61.1115         3.53745 
        2.48195         60.6474         3.47978 
        2.49759         59.5938         3.42369 
        2.51328         59.0805         3.36867 
        2.52906         58.4632         3.31451 
        2.54479          57.521         3.26173 
        2.56049         57.0002         3.21018 
        2.57618          56.321         3.15978 
        2.59189         55.6326         3.11038 
        2.60758         55.0341          3.0621 
        2.62325         54.4117          3.0149 
        2.63898         54.0676         2.96851 
        2.65468         53.4855         2.92319 
        2.67044         52.9345          2.8786 
        2.68618         52.1692         2.83505 
        2.70184         51.7952         2.79255 
        2.71755         51.1161         2.75082 
        2.73329         50.4979         2.70986 
        2.74897         50.0539         2.66986 
        2.76462         49.4337         2.63075 
        2.78034         48.7844         2.59226 
        2.79607         48.5321         2.55448 
        2.81179         47.9572         2.51749 
        2.82749           47.62         2.48127 
        2.84321         46.8224         2.44572 
        2.85893         46.4976         2.41086 
        2.87462         46.0855         2.37674 
        2.89033         45.3381         2.34323 
        2.90605         45.0081         2.31034 
        2.92176         44.4486         2.27809 
        2.93747         44.0394         2.24646 
        2.95318         43.6874         2.21543 
        2.96891         43.1009         2.18495 
        2.98456         42.7636         2.15518 
        3.00023         42.3365         2.12592 
        3.01596         41.7422          2.0971 
        3.03164         41.2323         2.06889 
        3.04738         40.9808         2.04112 
         3.0631         40.3387         2.01385 
        3.07883          40.087         1.98708 
        3.09456         39.5746          1.9608 
        3.11026         39.2246         1.93502 
        3.12596         38.7672         1.90971 
        3.14163         38.4634          1.8849 
        3.15734         38.0263         1.86047 
        3.17308         37.6776         1.83641 
        3.18879          37.307         1.81284 
        3.20447         36.8741         1.78971 
         3.2202         36.6471         1.76691 
         3.2359         36.2126         1.74454 
        3.25157         35.9099         1.72261 
        3.26729         35.5261         1.70098 
        3.28304         35.0345         1.67968 
        3.29877         34.7757         1.65877 
        3.31446         34.3466         1.63825 
        3.33014         34.1889          1.6181 
        3.34585         33.7453         1.59825 
        3.36158         33.4253          1.5787 
        3.37727         33.0136         1.55954 
        3.39294         32.7178         1.54071 
        3.40867          32.408         1.52212 
        3.42439         32.0977         1.50384 
        3.44008         31.9239         1.48589 
        3.45578         31.4466         1.46822 
        3.47153         31.1826          1.4508 
        3.48724         30.8704         1.43368 
        3.50292         30.5529         1.41688 
        3.51859         30.2858         1.40036 
        3.53431         29.8862         1.38404 
        3.55007         29.7084         1.36794 
        3.56577          29.432         1.35216 
        3.58146         29.1755         1.33663 
        3.59719         28.8801          1.3213 
        3.61292         28.6127         1.30622 
        3.62859         28.2963         1.29143 
        3.64429         28.0848         1.27683 
        3.66003         27.7806         1.26242 
        3.67578         27.5367         1.24823 
        3.69146         27.2316         1.23431 
        3.70712         27.0105         1.22062 
        3.72284         26.8088         1.20709 
        3.73853         26.4915         1.19379 
        3.75422         26.2175         1.18067 
        3.76993         26.0425         1.16775 
        3.78564         25.7875         1.15502 
        3.80137         25.5667         1.14245 
        3.81707         25.3161          1.1301 
        3.83279         25.0933         1.11792 
        3.84853         24.8656         1.10589 
        3.86424         24.6278         1.09407 
        3.87992         24.4202         1.08243 
        3.89561         24.1738         1.07096 
        3.91134         23.9894         1.05963 
        3.92704         23.6806         1.04848 
        3.94273         23.4358         1.03749 
        3.95845         23.2787         1.02664 
        3.97418         23.1016         1.01594 
        3.98988         22.8209         1.00541 
        4.00554         22.6986        0.995055 
        4.02125          22.424        0.984814 
        4.03698         22.2358        0.974699 
        4.05268         22.0406        0.964748 
        4.06839         21.8835        0.954927 
         4.0841         21.6746        0.945244 
        4.09983         21.4871         0.93568 
        4.11555         21.2676        0.926251 
        4.13124         21.1123        0.916976 
        4.14693          20.856        0.907819 
        4.16266         20.7009        0.898765 
        4.17839         20.5526        0.889838 
        4.19408         20.3585        0.881051 
        4.20977          20.226        0.872378 
        4.22551         20.0003        0.863799 
        4.24123         19.8025        0.855344 
        4.25691         19.6974        0.847023 
        4.27259         19.4887        0.838809 
        4.28831         19.3227        0.830687 
        4.30404         19.0806        0.822663 
        4.31974         18.9501        0.814761 
        4.33543         18.8286        0.806967 
        4.35116         18.6368        0.799254 
        4.36688         18.5117        0.791645 
        4.38255         18.3542        0.784161 
        4.39825         18.2062        0.776757 
        4.41398         18.0275        0.769433 
         4.4297         17.8833         0.76221 
        4.44541         17.7222         0.75508 
        4.46111         17.5801        0.748046 
        4.47683         17.4748        0.741095 
        4.49251         17.3697        0.734246 
        4.50819         17.1434        0.727484 
         4.5239         17.0382        0.720797 
        4.53962         16.8706        0.714184 
        4.55535         16.7278         0.70765 
        4.57106         16.5614        0.701207 
        4.58678         16.4774        0.694841 
         4.6025         16.3242        0.688552 
        4.61821         16.1833        0.682342 
        4.63391         16.0572        0.676215 
         4.6496         15.9275        0.670164 
        4.66532         15.8188        0.664178 
        4.68103         15.7267        0.658267 
        4.69673         15.5379        0.652432 
        4.71241         15.4427        0.646673 
        4.72811         15.3127        0.640974 
        4.74384         15.1966        0.635335 
        4.75955          15.025        0.629772 
        4.77525         14.9106        0.624277 
        4.79096         14.7944        0.618841 
        4.80669          14.702        0.613467 
         4.8224         14.6044        0.608161 
        4.83809         14.4615        0.602923 
        4.85379         14.3513        0.597743 
         4.8695         14.2554        0.592619 
        4.88521         14.1455        0.587557 
        4.90093         14.0191        0.582552 
        4.91663         13.9316        0.577609 
        4.93234         13.7826        0.572718 
        4.94807         13.6821         0.56788 
        4.96377         13.6009        0.563106 
        4.97943         13.4827        0.558396 
        4.99514         13.3708        0.553728 
        5.01086         13.2749        0.549108 
        5.02654          13.162        0.544553 
        5.04227         13.0764        0.540035 
          5.058         12.9663        0.535566 
        5.07371         12.8806        0.531155 
        5.08942         12.7895        0.526793 
        5.10513         12.6927         0.52248 
        5.12084         12.5623        0.518211 
        5.13656         12.4579        0.513991 
        5.15225         12.4026        0.509824 
        5.16796         12.2873        0.505697 
        5.18369         12.1872        0.501611 
         5.1994          12.127        0.497576 
        5.21509         12.0094         0.49359 
        5.23079         11.9105        0.489642 
        5.24649         11.8338        0.485739 
        5.26217         11.7414        0.481882 
        5.27788          11.626         0.47806 
        5.29359         11.5655        0.474279 
        5.30933         11.4819        0.470533 
        5.32504         11.3747        0.466833 
        5.34073         11.3074        0.463176 
        5.35646         11.2278        0.459551 
        5.37218         11.1307        0.455963 
        5.38789         11.0585        0.452419 
        5.40357         10.9727        0.448917 
        5.41929         10.9024        0.445443 
        5.43502         10.8264        0.442005 
         5.4507         10.7248        0.438612 
        5.46639         10.6749        0.435253 
        5.48212         10.5956        0.431921 
        5.49786         10.4946         0.42862 
        5.51353         10.4318        0.425369 
        5.52921         10.3554        0.422148 
        5.54495         10.2871        0.418951 
        5.56066         10.1852         0.41579 
        5.57637          10.127        0.412661 
        5.59207         10.0469        0.409567 
        5.60778         9.96594        0.406504 
        5.62346         9.90607        0.403475 
        5.63916         9.83476        0.400475 
        5.65487         9.76556        0.397503 
         5.6706         9.68684        0.394557 
        5.68633         9.64058         0.39164 
        5.70203         9.56208        0.388758 
        5.71773         9.51271        0.385905 
        5.73344         9.41396        0.383079 
        5.74916         9.35606        0.380278 
        5.76486         9.26901        0.377509 
        5.78054         9.22836        0.374771 
        5.79626         9.15596        0.372052 
          5.812         9.08986        0.369358 
         5.8277         9.03035        0.366697 
        5.84339         8.96968        0.364063 
        5.85911          8.9125        0.361449 
        5.87484         8.84302        0.358861 
        5.89053         8.77642        0.356303 
        5.90623         8.72307        0.353769 
        5.92195         8.67272        0.351255 
        5.93767         8.60788        0.348766 
        5.95336         8.53801        0.346305 
        5.96905         8.47567        0.343869 
        5.98476         8.42743        0.341452 
        6.00048         8.37598        0.339057 
        6.01617         8.30556        0.336689 
        6.03185         8.26498        0.334345 
        6.04756         8.20246        0.332018 
        6.06331         8.14162        0.329709 
        6.07903         8.09843        0.327425 
        6.09473         8.04231        0.325165 
        6.11044         7.97831        0.322924 
        6.12616         7.92822        0.320705 
        6.14186         7.87271        0.318508 
        6.15755         7.83038        0.316332 
        6.17326          7.7675        0.314174 
        6.18898         7.70525        0.312035 
        6.20467         7.66215         0.30992 
        6.22036          7.6208        0.307824 
         6.2361         7.56742        0.305741 
         6.2518         7.52355        0.303682 
        6.26748         7.46065        0.301645 
        6.28319         7.43124        0.299621 
        6.29893         7.36267        0.297614 
        6.31463         7.31874        0.295628 
        6.33033         7.27742        0.293661 
        6.34604         7.23779        0.291711 
        6.36177         7.18687        0.289776 
        6.37747         7.12663        0.287862 
