#  k  (h/Mpc)          P(k)  (Mpc/h)^3     P_linear(k) (Mpc/h)^3
      0.0200456         33994.7         34767.9 
      0.0350414         26441.5         25592.6 
      0.0492313         18642.9         19448.5 
      0.0637834         15364.7         16655.2 
      0.0800726         11767.1         12823.8 
       0.096163         9695.36         9376.33 
       0.111083         8207.43          7968.9 
       0.126058         6816.51         7107.88 
       0.142273         5920.42         5721.81 
       0.158546         4890.09         4602.06 
        0.17375         4558.79         4124.04 
       0.188953         4438.53         3715.02 
       0.204907          3809.2         3147.02 
       0.220756         3503.17         2702.82 
        0.23588         3155.94         2462.44 
         0.2514         2902.52         2235.91 
       0.267535         2770.69         1964.79 
       0.283568         2533.11         1747.88 
       0.299022         2416.51         1603.77 
       0.314451         2499.16         1470.34 
       0.330372          2318.5         1328.36 
       0.346141          2168.2         1209.84 
       0.361624         2054.32         1118.44 
       0.377134         2020.14         1034.42 
       0.392932         1885.82         951.551 
       0.408854         1845.97         878.347 
       0.424564         1802.28         817.126 
       0.440253         1734.64         761.302 
       0.455999         1653.62         708.722 
       0.471626         1635.27         661.742 
        0.48727         1576.53           620.1 
       0.502856         1558.63         582.064 
       0.518488         1479.53         546.603 
       0.534347         1436.29          513.72 
       0.550082         1408.36         484.119 
       0.565732         1364.03         457.004 
       0.581496         1332.53          431.66 
       0.597222         1325.73         408.298 
       0.612804         1274.28         386.986 
       0.628434         1238.59         367.175 
       0.644267         1224.48         348.522 
       0.660051         1185.62         331.222 
       0.675724          1175.7         315.212 
       0.691403         1125.27         300.263 
       0.707174          1102.8         286.215 
       0.722871         1102.53         273.136 
        0.73838         1053.42         261.028 
       0.754018         1059.33         249.574 
       0.769845         1020.43         238.695 
        0.78569         996.391         228.465 
       0.801365         981.133         218.945 
       0.817031         964.143         209.982 
       0.832809         944.936         201.473 
       0.848511         906.947          193.48 
       0.864097          903.22         185.983 
       0.879701         889.663         178.882 
       0.895507         874.525         172.073 
       0.911279         860.413         165.638 
        0.92691         847.033         159.591 
       0.942635         818.478         153.816 
       0.958396         820.265          148.32 
       0.974128         796.714         143.106 
       0.989692         786.285         138.198 
        1.00528         764.108         133.516 
        1.02113         749.278         128.981 
        1.03692         732.566         124.677 
        1.05264         727.009         120.593 
        1.06832         717.436         116.701 
        1.08405         699.893         112.972 
        1.09979         690.824         109.407 
        1.11537         672.187         106.034 
        1.13105         661.958         102.785 
        1.14679         654.951         99.6616 
        1.16256         641.058          96.664 
        1.17828         634.751         93.8014 
        1.19395          622.21         91.0662 
         1.2097         609.781         88.4279 
        1.22537         596.475         85.9083 
          1.241         586.591          83.496 
        1.25666          572.16         81.1717 
        1.27241         566.452         78.9263 
        1.28819          556.35         76.7632 
        1.30392         547.709         74.6887 
        1.31957         538.387         72.7012 
        1.33529         528.793         70.7797 
        1.35108         523.756         68.9211 
        1.36674         514.136         67.1435 
         1.3824         509.784         65.4311 
        1.39811         497.151         63.7736 
        1.41389         494.581         62.1679 
        1.42964         479.726         60.6211 
        1.44531         475.498         59.1351 
        1.46101         465.958         57.6965 
        1.47667         461.504         56.3108 
        1.49229         456.183         54.9748 
        1.50793         442.887         53.6814 
        1.52367         439.986         52.4217 
        1.53953         430.568         51.1946 
        1.55526         421.104         50.0171 
        1.57092         416.362          48.882 
        1.58662          411.04           47.78 
        1.60235         404.031         46.7102 
        1.61809           396.7         45.6731 
        1.63369         391.147         44.6771 
        1.64941         387.497         43.7041 
        1.66519         380.646          42.757 
        1.68085         373.471          41.845 
        1.69652         367.135         40.9597 
        1.71228         364.681         40.0954 
        1.72806         356.069         39.2556 
        1.74368         352.537         38.4487 
        1.75933         344.929         37.6631 
        1.77505         342.734         36.8961 
        1.79081         337.905         36.1493 
         1.8065         332.282         35.4267 
        1.82218         327.543         34.7248 
        1.83797         322.704         34.0373 
        1.85367         317.667         33.3724 
        1.86928         312.959         32.7295 
        1.88497         308.521         32.1003 
        1.90073         304.415         31.4855 
        1.91647         300.103         30.8876 
        1.93218         295.658         30.3066 
        1.94787          294.22         29.7417 
        1.96363         288.116         29.1891 
        1.97935         283.488         28.6518 
        1.99499         279.562         28.1313 
        2.01064         277.652         27.6231 
         2.0264          272.48         27.1244 
        2.04216         266.836         26.6385 
        2.05781         262.275         26.1676 
        2.07353         260.632         25.7066 
        2.08928         257.061         25.2558 
        2.10499         254.144         24.8172 
        2.12065         249.812         24.3905 
        2.13633         247.507         23.9735 
        2.15211         243.574         23.5637 
        2.16785         239.725         23.1648 
        2.18349          238.03         22.7777 
        2.19916         234.874         22.3987 
        2.21489         231.914         22.0272 
        2.23063         228.759          21.664 
         2.2463         226.406         21.3107 
        2.26194         221.745         20.9663 
        2.27765         218.257         20.6278 
        2.29341          216.96          20.296 
        2.30914         213.866         19.9722 
        2.32486         211.625         19.6558 
        2.34061         208.105         19.3458 
        2.35635         206.061         19.0428 
        2.37203         203.153         18.7475 
        2.38768         200.035         18.4591 
        2.40339         197.582         18.1757 
        2.41914         196.669         17.8978 
        2.43483         193.126         17.6267 
         2.4505         190.799         17.3617 
        2.46622         189.043         17.1014 
        2.48195         186.722         16.8464 
        2.49759         183.631         16.5981 
        2.51328         182.027         16.3541 
        2.52906         179.755         16.1136 
        2.54479         176.996         15.8789 
        2.56049         175.054         15.6493 
        2.57618         173.815         15.4246 
        2.59189           171.5         15.2039 
        2.60758         169.001          14.988 
        2.62325         167.104         14.7766 
        2.63898         164.947         14.5686 
        2.65468         163.169         14.3651 
        2.67044         161.581         14.1646 
        2.68618         160.022         13.9684 
        2.70184         157.879         13.7768 
        2.71755         155.425         13.5884 
        2.73329         153.996         13.4032 
        2.74897         152.543         13.2221 
        2.76462         150.649         13.0448 
        2.78034         148.401         12.8701 
        2.79607         147.448         12.6984 
        2.81179         145.688         12.5301 
        2.82749         144.093         12.3651 
        2.84321          142.21         12.2028 
        2.85893         139.989         12.0436 
        2.87462         139.346         11.8875 
        2.89033          137.75         11.7341 
        2.90605         135.542         11.5832 
        2.92176         134.686         11.4352 
        2.93747         133.147         11.2898 
        2.95318         131.409         11.1469 
        2.96891          130.02         11.0065 
        2.98456         128.495         10.8692 
        3.00023         127.275          10.734 
        3.01596          126.39         10.6007 
        3.03164         124.609         10.4701 
        3.04738         123.189         10.3413 
         3.0631         122.005         10.2148 
        3.07883         120.591         10.0904 
        3.09456         119.154         9.96811 
        3.11026         117.571         9.84806 
        3.12596          116.82         9.73002 
        3.14163         115.774         9.61422 
        3.15734         114.416         9.50004 
        3.17308         113.119         9.38747 
        3.18879          111.65         9.27705 
        3.20447         110.842         9.16858 
         3.2202         109.746         9.06153 
         3.2359         108.195          8.9564 
        3.25157         107.131         8.85321 
        3.26729         106.275         8.75134 
        3.28304         105.411          8.6509 
        3.29877         104.101         8.55218 
        3.31446         103.211         8.45524 
        3.33014         102.122          8.3599 
        3.34585         100.774          8.2659 
        3.36158         99.7387         8.17322 
        3.37727         98.8405         8.08226 
        3.39294         97.6962         7.99279 
        3.40867         96.6632         7.90437 
        3.42439         95.6531         7.81734 
        3.44008         94.8871         7.73181 
        3.45578         94.1112         7.64751 
        3.47153         93.0906          7.5643 
        3.48724          92.238         7.48248 
        3.50292         91.0112         7.40207 
        3.51859         90.6544          7.3229 
        3.53431          89.261         7.24465 
        3.55007         88.5766         7.16737 
        3.56577         87.7263         7.09153 
        3.58146         86.8837         7.01683 
        3.59719         86.2045         6.94305 
        3.61292         85.0832         6.87037 
        3.62859         84.3929         6.79901 
        3.64429         83.6495         6.72853 
        3.66003         82.8227         6.65886 
        3.67578         81.6052          6.5902 
        3.69146         81.2439         6.52278 
        3.70712         80.2445         6.45644 
        3.72284         79.7024         6.39078 
        3.73853         78.9968         6.32616 
        3.75422         78.3392         6.26242 
        3.76993         77.4043         6.19951 
        3.78564         76.7327          6.1375 
        3.80137         75.8426         6.07625 
        3.81707         75.1688         6.01597 
        3.83279         74.4212         5.95647 
        3.84853         73.8546         5.89768 
        3.86424         73.1006         5.83981 
        3.87992         72.5723         5.78281 
        3.89561         71.6464         5.72658 
        3.91134         70.9075         5.67099 
        3.92704         70.4439         5.61621 
        3.94273         69.5957         5.56221 
        3.95845         69.1175         5.50883 
        3.97418         68.7297         5.45615 
        3.98988         67.8073         5.40424 
        4.00554         67.3881         5.35315 
        4.02125         66.8592         5.30258 
        4.03698         66.1222         5.25259 
        4.05268         65.3687         5.20337 
        4.06839         64.7565         5.15475 
         4.0841         64.3548         5.10677 
        4.09983         63.6986         5.05934 
        4.11555          63.037         5.01254 
        4.13124         62.7051         4.96646 
        4.14693         62.1508         4.92093 
        4.16266         61.3606         4.87588 
        4.17839         60.7993         4.83142 
        4.19408          60.301         4.78762 
        4.20977          59.819         4.74435 
        4.22551         59.3074         4.70151 
        4.24123         58.7386         4.65926 
        4.25691         58.2118         4.61765 
        4.27259         57.8055         4.57653 
        4.28831         57.2335         4.53584 
        4.30404         56.6833         4.49561 
        4.31974         56.0523         4.45596 
        4.33543         55.7088         4.41681 
        4.35116         55.2288         4.37805 
        4.36688         54.7973         4.33977 
        4.38255         54.2973          4.3021 
        4.39825         53.8349          4.2648 
        4.41398         53.3043         4.22786 
         4.4297         52.8355         4.19142 
        4.44541         52.4216         4.15541 
        4.46111         51.8927         4.11985 
        4.47683         51.3856         4.08469 
        4.49251         50.9922         4.05002 
        4.50819         50.6449         4.01576 
         4.5239         50.2094         3.98186 
        4.53962         49.6825          3.9483 
        4.55535         49.4239         3.91512 
        4.57106         48.9705         3.88238 
        4.58678         48.5598            3.85 
         4.6025         48.1678         3.81799 
        4.61821         47.7345         3.78636 
        4.63391         47.4562         3.75512 
         4.6496         46.8875         3.72426 
        4.66532         46.5714         3.69369 
        4.68103         46.2047         3.66349 
        4.69673         45.8408         3.63366 
        4.71241         45.4766         3.60419 
        4.72811         45.1807         3.57501 
        4.74384          44.552         3.54611 
        4.75955         44.2961         3.51758 
        4.77525         43.9525         3.48938 
        4.79096         43.5544         3.46147 
        4.80669         43.2603         3.43384 
         4.8224         42.7908         3.40655 
        4.83809         42.6534         3.37959 
        4.85379         42.2366         3.35291 
         4.8695         41.8777          3.3265 
        4.88521         41.4193         3.30039 
        4.90093          41.285         3.27455 
        4.91663         40.9325         3.24902 
        4.93234         40.5248         3.22374 
        4.94807         40.1618         3.19871 
        4.96377         39.8734         3.17399 
        4.97943          39.548          3.1496 
        4.99514         39.2306          3.1254 
        5.01086         38.9054         3.10143 
        5.02654         38.5728         3.07778 
        5.04227         38.2688         3.05431 
          5.058         38.0165         3.03108 
        5.07371          37.658         3.00814 
        5.08942         37.3767         2.98543 
        5.10513         37.0856         2.96296 
        5.12084         36.8133         2.94071 
        5.13656         36.5212          2.9187 
        5.15225         36.2613         2.89695 
        5.16796         35.9012         2.87539 
        5.18369         35.7798         2.85403 
         5.1994         35.3844         2.83293 
        5.21509         35.2056         2.81206 
        5.23079         34.8699         2.79138 
        5.24649         34.4763         2.77093 
        5.26217         34.3978          2.7507 
        5.27788         34.0722         2.73065 
        5.29359         33.7837         2.71079 
        5.30933         33.5662          2.6911 
        5.32504          33.272         2.67165 
        5.34073         33.0694         2.65241 
        5.35646         32.6844         2.63332 
        5.37218         32.6359         2.61442 
        5.38789         32.3513         2.59573 
        5.40357         32.0124         2.57726 
        5.41929         31.8252         2.55892 
        5.43502         31.5419         2.54076 
         5.4507         31.3558         2.52282 
        5.46639         30.9768         2.50506 
        5.48212         30.8415         2.48742 
        5.49786         30.6029         2.46994 
        5.51353         30.3966         2.45271 
        5.52921         30.1483         2.43563 
        5.54495         29.9093         2.41867 
        5.56066         29.6642         2.40189 
        5.57637         29.4187         2.38527 
        5.59207         29.2911         2.36882 
        5.60778         29.0429         2.35253 
        5.62346         28.8357         2.33641 
        5.63916         28.6485         2.32043 
        5.65487          28.389         2.30459 
         5.6706         28.1838         2.28888 
        5.68633         27.9526         2.27332 
        5.70203          27.769         2.25793 
        5.71773         27.5241         2.24269 
        5.73344         27.3751         2.22758 
        5.74916         27.1862          2.2126 
        5.76486         26.8939         2.19778 
        5.78054         26.7765         2.18312 
        5.79626         26.5091         2.16856 
          5.812         26.3255         2.15411 
         5.8277         26.2075         2.13984 
        5.84339          26.004          2.1257 
        5.85911         25.8221         2.11166 
        5.87484          25.615         2.09775 
        5.89053         25.4036         2.08399 
        5.90623         25.2532         2.07036 
        5.92195         25.0592         2.05682 
        5.93767         24.8613         2.04341 
        5.95336         24.6825         2.03015 
        5.96905         24.5335         2.01701 
        5.98476           24.34         2.00397 
        6.00048         24.2262         1.99104 
        6.01617         24.0428         1.97824 
        6.03185         23.8625         1.96557 
        6.04756         23.6514         1.95299 
        6.06331         23.5322         1.94049 
        6.07903         23.2893         1.92812 
        6.09473         23.1739         1.91588 
        6.11044         23.0338         1.90373 
        6.12616         22.8512         1.89169 
        6.14186         22.6667         1.87977 
        6.15755          22.515         1.86795 
        6.17326         22.3741         1.85623 
        6.18898         22.2106          1.8446 
        6.20467         22.0018         1.83309 
        6.22036         21.8703         1.82168 
         6.2361         21.7115         1.81035 
         6.2518         21.5719         1.79912 
        6.26748         21.4197         1.78802 
        6.28319         21.2817         1.77698 
        6.29893          21.131         1.76603 
        6.31463         21.0137         1.75518 
        6.33033         20.8424         1.74444 
        6.34604         20.7331         1.73377 
        6.36177         20.5728         1.72319 
        6.37747         20.3729         1.71271 
