# k  (h/Mpc)    Pcb(k)  (Mpc/h)^3    Pcb_linear(k) (Mpc/h)^3   ShotnoiseSubtracted = true
      0.0200456         10601.8           10743 
      0.0350414         7485.93         7266.81 
      0.0492313         5145.73          5173.6 
      0.0637834         4123.63         4257.39 
      0.0800726         3118.56         3224.03 
       0.096163          2379.8         2275.96 
       0.111083            1957         1853.48 
       0.126058         1631.94         1638.14 
       0.142273         1353.24         1322.09 
       0.158546         1097.55         1030.86 
        0.17375         970.371         894.722 
       0.188953         892.143         806.658 
       0.204907          743.35         686.128 
       0.220756         660.726          574.95 
        0.23588         590.168         511.781 
         0.2514         526.625         464.974 
       0.267535         502.866         409.299 
       0.283568         435.831         357.655 
       0.299022         414.176         322.894 
       0.314451         412.183         295.659 
       0.330372          352.27         266.804 
       0.346141         325.177         240.131 
       0.361624         308.331         219.481 
       0.377134         285.372         202.306 
       0.392932         276.054         185.597 
       0.408854           261.4         169.911 
       0.424564         250.781         156.776 
       0.440253         225.913          145.45 
       0.455999         213.803          134.91 
       0.471626         211.627         125.226 
        0.48727         201.043         116.606 
       0.502856         183.342         108.981 
       0.518488         182.992         101.944 
       0.534347          169.83         95.3538 
       0.550082         165.407         89.4096 
       0.565732         163.324         84.0513 
       0.581496         151.413         79.0826 
       0.597222         147.773         74.5001 
       0.612804         142.526         70.3136 
       0.628434         138.298         66.4535 
       0.644267          131.14         62.8431 
       0.660051         127.858         59.5069 
       0.675724         125.935         56.4304 
       0.691403           122.6         53.5677 
       0.707174         117.976         50.8865 
       0.722871         115.927         48.3987 
        0.73838         113.999         46.1031 
       0.754018         106.941         43.9386 
       0.769845         106.607          41.889 
        0.78569         103.483         39.9681 
       0.801365         99.8772         38.1864 
       0.817031         97.0752         36.5144 
       0.832809         95.1694         34.9319 
       0.848511         92.8483         33.4501 
       0.864097         91.0535         32.0644 
       0.879701         89.5428         30.7557 
       0.895507         86.4878         29.5045 
       0.911279         84.5114         28.3255 
        0.92691         82.5894         27.2205 
       0.942635          80.517         26.1682 
       0.958396         80.2112         25.1693 
       0.974128         78.3079         24.2242 
       0.989692         76.2326         23.3368 
        1.00528         74.9872         22.4925 
        1.02113         73.0927         21.6767 
        1.03692         72.8726         20.9043 
        1.05264         71.7722         20.1731 
        1.06832         69.3509         19.4779 
        1.08405         68.5103         18.8135 
        1.09979          67.899         18.1797 
        1.11537         65.9849         17.5813 
        1.13105         64.8882         17.0063 
        1.14679         64.0141         16.4547 
        1.16256         62.6601         15.9265 
        1.17828         62.1725         15.4231 
        1.19395         60.5303         14.9432 
         1.2097         60.3696         14.4812 
        1.22537         58.8766         14.0409 
          1.241          58.741         13.6202 
        1.25666         56.5627         13.2157 
        1.27241         56.3955         12.8257 
        1.28819          55.838         12.4507 
        1.30392         54.6108         12.0918 
        1.31957         54.2917         11.7486 
        1.33529         53.4134         11.4174 
        1.35108         52.8873         11.0977 
        1.36674         51.8504         10.7924 
         1.3824         51.2498         10.4989 
        1.39811         50.1677         10.2153 
        1.41389         49.4927         9.94101 
        1.42964         48.9725         9.67726 
        1.44531         48.3543         9.42434 
        1.46101         47.9006          9.1799 
        1.47667         47.1217         8.94483 
        1.49229         46.4067          8.7186 
        1.50793         45.9307         8.49991 
        1.52367         45.5772          8.2873 
        1.53953         44.8829         8.08051 
        1.55526         43.9601          7.8824 
        1.57092         43.8986         7.69173 
        1.58662         43.2818          7.5069 
        1.60235         42.6934         7.32777 
        1.61809         41.9448         7.15437 
        1.63369         41.4209          6.9881 
        1.64941          41.091         6.82591 
        1.66519         40.2777         6.66827 
        1.68085         39.9564         6.51671 
        1.69652          39.294          6.3698 
        1.71228         39.0204         6.22657 
        1.72806         38.6171         6.08762 
        1.74368         37.9753         5.95429 
        1.75933         37.7765         5.82467 
        1.77505         37.2707         5.69829 
        1.79081         36.8954         5.57542 
         1.8065         36.4887         5.45669 
        1.82218         35.6044         5.34151 
        1.83797         35.3355         5.22885 
        1.85367         35.0519         5.12006 
        1.86928         34.8272           5.015 
        1.88497         34.2236          4.9123 
        1.90073          33.855         4.81209 
        1.91647         33.7162         4.71476 
        1.93218         33.4393         4.62031 
        1.94787         32.9368         4.52858 
        1.96363         32.4548         4.43897 
        1.97935         32.1438         4.35196 
        1.99499         31.8251         4.26776 
        2.01064          31.293         4.18566 
         2.0264         31.2601          4.1052 
        2.04216         30.8605         4.02688 
        2.05781         30.5211         3.95109 
        2.07353         30.0085         3.87697 
        2.08928         30.0166         3.80459 
        2.10499         29.6304         3.73424 
        2.12065         29.2203         3.66587 
        2.13633          29.109         3.59915 
        2.15211         28.6094         3.53365 
        2.16785         28.2141         3.46996 
        2.18349          28.012         3.40823 
        2.19916         27.7225         3.34786 
        2.21489         27.5364         3.28876 
        2.23063         27.1921         3.23103 
         2.2463         27.0003         3.17494 
        2.26194         26.6456         3.12032 
        2.27765         26.3521         3.06669 
        2.29341         26.0507         3.01418 
        2.30914         25.7824         2.96301 
        2.32486         25.5331         2.91304 
        2.34061         25.2955         2.86414 
        2.35635          25.045          2.8164 
        2.37203         24.8374         2.76991 
        2.38768         24.6228         2.72456 
        2.40339         24.3698         2.68006 
        2.41914         24.1696         2.63644 
        2.43483           23.98         2.59395 
         2.4505         23.6646         2.55245 
        2.46622         23.3541         2.51172 
        2.48195         23.2115         2.47187 
        2.49759         22.8889         2.43309 
        2.51328         22.6672         2.39504 
        2.52906         22.4714         2.35756 
        2.54479         22.3267         2.32102 
        2.56049         22.1498         2.28532 
        2.57618         21.8846          2.2504 
        2.59189         21.6567         2.21615 
        2.60758          21.437         2.18266 
        2.62325         21.1928          2.1499 
        2.63898         21.1446          2.1177 
        2.65468          20.842         2.08623 
        2.67044         20.6353         2.05525 
        2.68618         20.4273         2.02497 
        2.70184         20.2108         1.99542 
        2.71755          20.004         1.96639 
        2.73329         19.8313         1.93788 
        2.74897          19.674         1.91003 
        2.76462         19.5096         1.88278 
        2.78034         19.2272         1.85596 
        2.79607         19.1042         1.82962 
        2.81179          18.911         1.80382 
        2.82749         18.6972         1.77855 
        2.84321         18.5518         1.75373 
        2.85893          18.408         1.72939 
        2.87462         18.2394         1.70555 
        2.89033         18.0404         1.68213 
        2.90605         17.8506         1.65913 
        2.92176         17.6459         1.63658 
        2.93747         17.5395         1.61445 
        2.95318         17.4463         1.59272 
        2.96891         17.1638         1.57138 
        2.98456         17.0753         1.55053 
        3.00023         16.8603         1.53002 
        3.01596         16.6245         1.50981 
        3.03164         16.5706         1.49003 
        3.04738         16.4585         1.47054 
         3.0631         16.2741         1.45141 
        3.07883         16.1342         1.43261 
        3.09456         15.9562         1.41415 
        3.11026         15.8264         1.39604 
        3.12596         15.6173         1.37824 
        3.14163         15.5529          1.3608 
        3.15734         15.4473         1.34362 
        3.17308         15.2185         1.32669 
        3.18879         15.0699         1.31009 
        3.20447         15.0399         1.29381 
         3.2202         14.8068         1.27774 
         3.2359         14.6676         1.26198 
        3.25157          14.551         1.24652 
        3.26729          14.466         1.23127 
        3.28304         14.3474         1.21625 
        3.29877         14.2407         1.20149 
        3.31446         14.1046         1.18701 
        3.33014         13.9079         1.17278 
        3.34585         13.8854         1.15876 
        3.36158          13.708         1.14494 
        3.37727         13.6032          1.1314 
        3.39294         13.4939         1.11808 
        3.40867         13.3597         1.10493 
        3.42439         13.2148           1.092 
        3.44008         13.1151          1.0793 
        3.45578         13.0006         1.06679 
        3.47153         12.9005         1.05445 
        3.48724         12.7964         1.04232 
        3.50292         12.6797         1.03042 
        3.51859         12.5799          1.0187 
        3.53431         12.4807         1.00713 
        3.55007         12.3736        0.995708 
        3.56577         12.2605        0.984509 
        3.58146         12.1444        0.973485 
        3.59719         12.0548        0.962604 
        3.61292         11.9627        0.951892 
        3.62859         11.7999        0.941383 
        3.64429         11.7466        0.931011 
        3.66003         11.6283        0.920763 
        3.67578         11.5861        0.910672 
        3.69146         11.4553         0.90077 
        3.70712          11.324        0.891032 
        3.72284         11.2549        0.881401 
        3.73853         11.1721        0.871929 
        3.75422         11.0279        0.862591 
        3.76993         10.9613        0.853382 
        3.78564         10.8981         0.84431 
        3.80137         10.7756        0.835354 
        3.81707          10.662        0.826546 
        3.83279         10.6409        0.817857 
        3.84853         10.5273        0.809279 
        3.86424         10.4267         0.80084 
        3.87992         10.3402        0.792533 
        3.89561         10.2464        0.784342 
        3.91134         10.1673         0.77625 
        3.92704         10.0978        0.768281 
        3.94273         10.0261        0.760431 
        3.95845         9.91451        0.752676 
        3.97418         9.84095        0.745027 
        3.98988         9.76862        0.737494 
        4.00554         9.67695        0.730085 
        4.02125         9.60408        0.722756 
        4.03698         9.53427        0.715515 
        4.05268         9.46691         0.70839 
        4.06839         9.36395        0.701356 
         4.0841         9.29683        0.694419 
        4.09983         9.20425        0.687566 
        4.11555         9.15781        0.680807 
        4.13124         9.06394        0.674157 
        4.14693         9.00103         0.66759 
        4.16266         8.92291        0.661095 
        4.17839         8.85076         0.65469 
        4.19408         8.79256        0.648383 
        4.20977         8.68838        0.642157 
        4.22551         8.65333        0.635997 
        4.24123          8.5643        0.629923 
        4.25691         8.49863        0.623945 
        4.27259         8.42273        0.618042 
        4.28831         8.36426        0.612204 
        4.30404         8.29195        0.606434 
        4.31974          8.2368        0.600752 
        4.33543         8.15805        0.595145 
        4.35116         8.10575        0.589595 
        4.36688         8.03389        0.584118 
        4.38255         7.97467        0.578731 
        4.39825         7.90411        0.573399 
        4.41398         7.84736        0.568124 
         4.4297          7.7786        0.562921 
        4.44541         7.72869        0.557783 
        4.46111         7.64894        0.552712 
        4.47683         7.58505        0.547701 
        4.49251          7.5465        0.542762 
        4.50819         7.47148        0.537884 
         4.5239           7.431         0.53306 
        4.53962         7.36368        0.528288 
        4.55535         7.31374        0.523572 
        4.57106         7.26608        0.518919 
        4.58678         7.20204        0.514322 
         4.6025         7.14469         0.50978 
        4.61821          7.0803        0.505293 
        4.63391         7.01818        0.500865 
         4.6496         6.97692        0.496491 
        4.66532         6.94457        0.492163 
        4.68103         6.86712        0.487889 
        4.69673         6.81683        0.483668 
        4.71241         6.75504        0.479502 
        4.72811         6.70553        0.475377 
        4.74384         6.67174        0.471296 
        4.75955         6.62827        0.467268 
        4.77525         6.57864        0.463289 
        4.79096         6.52479        0.459352 
        4.80669         6.46577        0.455458 
         4.8224         6.42894        0.451613 
        4.83809         6.38331        0.447817 
        4.85379         6.34195        0.444062 
         4.8695         6.30235        0.440346 
        4.88521         6.24316        0.436675 
        4.90093          6.2194        0.433044 
        4.91663         6.15777        0.429458 
        4.93234          6.1094        0.425908 
        4.94807         6.06794        0.422396 
        4.96377          6.0135         0.41893 
        4.97943         5.97444        0.415509 
        4.99514         5.93035        0.412118 
        5.01086         5.88708        0.408762 
        5.02654         5.84347        0.405452 
        5.04227         5.79501        0.402168 
          5.058         5.77129        0.398919 
        5.07371         5.73966        0.395712 
        5.08942          5.6793         0.39254 
        5.10513         5.64002        0.389402 
        5.12084         5.59705        0.386296 
        5.13656         5.55521        0.383225 
        5.15225         5.52849        0.380192 
        5.16796          5.4803        0.377187 
        5.18369         5.44485        0.374212 
         5.1994         5.41301        0.371274 
        5.21509         5.37518         0.36837 
        5.23079         5.32713        0.365493 
        5.24649         5.28949        0.362649 
        5.26217         5.26164        0.359837 
        5.27788         5.22257        0.357051 
        5.29359         5.18782        0.354294 
        5.30933         5.13562        0.351561 
        5.32504         5.12322        0.348862 
        5.34073         5.07178        0.346194 
        5.35646         5.03839        0.343548 
        5.37218         5.01565         0.34093 
        5.38789         4.98263        0.338342 
        5.40357         4.93919        0.335785 
        5.41929         4.90701        0.333248 
        5.43502         4.87851        0.330737 
         5.4507         4.83519        0.328257 
        5.46639         4.80212        0.325803 
        5.48212         4.77054        0.323367 
        5.49786         4.73335        0.320954 
        5.51353         4.71032        0.318577 
        5.52921         4.66894        0.316221 
        5.54495         4.64816        0.313883 
        5.56066         4.61786         0.31157 
        5.57637         4.59088        0.309281 
        5.59207         4.55212        0.307016 
        5.60778         4.52347        0.304774 
        5.62346          4.4886        0.302557 
        5.63916         4.46399        0.300359 
        5.65487         4.43155        0.298182 
         5.6706          4.4061        0.296024 
        5.68633         4.36477        0.293887 
        5.70203         4.34863        0.291775 
        5.71773         4.31368        0.289684 
        5.73344         4.28941        0.287612 
        5.74916         4.26146        0.285558 
        5.76486          4.2314        0.283527 
        5.78054         4.19737        0.281519 
        5.79626         4.17683        0.279525 
          5.812         4.15407        0.277548 
         5.8277         4.11746        0.275595 
        5.84339         4.09768        0.273662 
        5.85911         4.06588        0.271743 
        5.87484         4.04248        0.269843 
        5.89053         4.00633        0.267964 
        5.90623         3.99085        0.266102 
        5.92195         3.96826        0.264255 
        5.93767         3.93342        0.262427 
        5.95336         3.91977        0.260618 
        5.96905         3.89176        0.258827 
        5.98476         3.86552         0.25705 
        6.00048         3.84686         0.25529 
        6.01617         3.82297        0.253548 
        6.03185         3.79368        0.251824 
        6.04756         3.77173        0.250112 
        6.06331         3.74535        0.248412 
        6.07903         3.72483        0.246732 
        6.09473         3.71302        0.245069 
        6.11044         3.67843        0.243419 
        6.12616         3.65832        0.241785 
        6.14186         3.62615        0.240167 
        6.15755          3.6082        0.238564 
        6.17326         3.58994        0.236974 
        6.18898         3.56578        0.235398 
        6.20467         3.54408        0.233839 
        6.22036         3.52617        0.232295 
         6.2361         3.49677         0.23076 
         6.2518         3.48212        0.229241 
        6.26748         3.45722        0.227739 
        6.28319         3.43279        0.226246 
        6.29893         3.41844        0.224766 
        6.31463         3.40057        0.223301 
        6.33033         3.37925         0.22185 
        6.34604         3.36089         0.22041 
        6.36177         3.33449        0.218982 
        6.37747          3.3213        0.217569 
