# k  (h/Mpc)    Pcb(k)  (Mpc/h)^3    Pcb_linear(k) (Mpc/h)^3   ShotnoiseSubtracted = true
      0.0200456         48.5506         49.1264 
      0.0350414         33.5193         33.2303 
      0.0492313         23.7674         23.6583 
      0.0637834         19.3998         19.4686 
      0.0800726         14.7165         14.7431 
       0.096163         10.5144         10.4077 
       0.111083         8.54012         8.47577 
       0.126058         7.46031         7.49102 
       0.142273         6.03848         6.04578 
       0.158546         4.73795         4.71401 
        0.17375         4.10679         4.09147 
       0.188953         3.68147         3.68876 
       0.204907          3.1209         3.13759 
       0.220756         2.63481         2.62918 
        0.23588         2.33966         2.34032 
         0.2514         2.12302         2.12628 
       0.267535         1.87166         1.87168 
       0.283568         1.63758         1.63552 
       0.299022         1.47618         1.47656 
       0.314451         1.35609         1.35202 
       0.330372         1.22094         1.22006 
       0.346141         1.09945         1.09809 
       0.361624         1.00314         1.00366 
       0.377134         0.92312        0.925125 
       0.392932        0.853795        0.848716 
       0.408854        0.776214        0.776987 
       0.424564         0.71975        0.716922 
       0.440253        0.665488        0.665128 
       0.455999        0.615031        0.616928 
       0.471626        0.571099        0.572647 
        0.48727        0.534323        0.533227 
       0.502856         0.49971        0.498361 
       0.518488        0.464334        0.466181 
       0.534347        0.433158        0.436043 
       0.550082        0.408955        0.408861 
       0.565732        0.386151        0.384358 
       0.581496        0.361515        0.361636 
       0.597222        0.340218        0.340681 
       0.612804        0.320996        0.321537 
       0.628434        0.302908        0.303885 
       0.644267        0.287218        0.287375 
       0.660051        0.272276        0.272119 
       0.675724         0.25724         0.25805 
       0.691403        0.244123        0.244959 
       0.707174        0.231997        0.232699 
       0.722871        0.222073        0.221322 
        0.73838        0.209885        0.210825 
       0.754018        0.199892        0.200926 
       0.769845        0.190032        0.191554 
        0.78569         0.18201         0.18277 
       0.801365        0.174216        0.174622 
       0.817031        0.166513        0.166977 
       0.832809         0.15887         0.15974 
       0.848511        0.152267        0.152964 
       0.864097        0.146254        0.146627 
       0.879701        0.140683        0.140643 
       0.895507        0.133913        0.134921 
       0.911279        0.129015        0.129529 
        0.92691        0.124369        0.124476 
       0.942635        0.118886        0.119665 
       0.958396        0.114589        0.115097 
       0.974128        0.110267        0.110775 
       0.989692        0.106131        0.106717 
        1.00528        0.101987        0.102856 
        1.02113       0.0988716       0.0991254 
        1.03692       0.0953651       0.0955934 
        1.05264       0.0916676       0.0922493 
        1.06832       0.0886017       0.0890702 
        1.08405       0.0854101       0.0860323 
        1.09979       0.0826702        0.083134 
        1.11537       0.0795754       0.0803976 
        1.13105       0.0769098        0.077768 
        1.14679       0.0746151       0.0752456 
        1.16256       0.0723708       0.0728301 
        1.17828       0.0700972       0.0705283 
        1.19395       0.0678834       0.0683336 
         1.2097       0.0656668       0.0662209 
        1.22537       0.0635021       0.0642076 
          1.241       0.0616347        0.062284 
        1.25666       0.0599021       0.0604341 
        1.27241       0.0580574       0.0586506 
        1.28819       0.0562571       0.0569359 
        1.30392       0.0548119       0.0552946 
        1.31957       0.0531359       0.0537251 
        1.33529       0.0518209       0.0522106 
        1.35108       0.0501023       0.0507484 
        1.36674        0.048911       0.0493525 
         1.3824       0.0474208       0.0480102 
        1.39811       0.0460616       0.0467133 
        1.41389        0.044991       0.0454592 
        1.42964       0.0436776       0.0442531 
        1.44531       0.0425028       0.0430965 
        1.46101       0.0413839       0.0419787 
        1.47667       0.0403561       0.0409038 
        1.49229       0.0393444       0.0398692 
        1.50793       0.0383496       0.0388692 
        1.52367        0.037364       0.0378969 
        1.53953       0.0362911       0.0369513 
        1.55526       0.0354288       0.0360454 
        1.57092       0.0347139       0.0351735 
        1.58662       0.0338103       0.0343283 
        1.60235       0.0329475       0.0335091 
        1.61809       0.0321843       0.0327162 
        1.63369       0.0314031       0.0319558 
        1.64941       0.0306312       0.0312142 
        1.66519       0.0299827       0.0304933 
        1.68085       0.0292639       0.0298002 
        1.69652       0.0286463       0.0291284 
        1.71228       0.0278876       0.0284735 
        1.72806       0.0273593        0.027838 
        1.74368       0.0267191       0.0272283 
        1.75933       0.0261213       0.0266356 
        1.77505       0.0255994       0.0260577 
        1.79081       0.0249775       0.0254958 
         1.8065       0.0245142       0.0249529 
        1.82218       0.0239015       0.0244262 
        1.83797       0.0233955        0.023911 
        1.85367       0.0229046       0.0234135 
        1.86928       0.0223444        0.022933 
        1.88497       0.0219186       0.0224634 
        1.90073       0.0214227       0.0220052 
        1.91647        0.021115       0.0215601 
        1.93218       0.0207218       0.0211282 
        1.94787       0.0201882       0.0207087 
        1.96363       0.0197916        0.020299 
        1.97935       0.0193813       0.0199011 
        1.99499       0.0190412        0.019516 
        2.01064       0.0186285       0.0191406 
         2.0264       0.0182858       0.0187726 
        2.04216       0.0179515       0.0184145 
        2.05781       0.0175631       0.0180679 
        2.07353       0.0172443        0.017729 
        2.08928       0.0169149        0.017398 
        2.10499       0.0166343       0.0170763 
        2.12065       0.0162953       0.0167636 
        2.13633       0.0160046       0.0164585 
        2.15211       0.0157135        0.016159 
        2.16785       0.0153451       0.0158678 
        2.18349       0.0151039       0.0155855 
        2.19916        0.014804       0.0153094 
        2.21489       0.0145458       0.0150391 
        2.23063       0.0143368       0.0147752 
         2.2463       0.0140534       0.0145187 
        2.26194       0.0138187       0.0142689 
        2.27765       0.0135746       0.0140237 
        2.29341       0.0133085       0.0137835 
        2.30914       0.0130867       0.0135495 
        2.32486       0.0128306        0.013321 
        2.34061       0.0126106       0.0130974 
        2.35635       0.0124313       0.0128791 
        2.37203       0.0122503       0.0126665 
        2.38768       0.0120769       0.0124591 
        2.40339       0.0118223       0.0122556 
        2.41914         0.01162       0.0120562 
        2.43483       0.0114737       0.0118618 
         2.4505       0.0112417       0.0116721 
        2.46622       0.0110379       0.0114858 
        2.48195       0.0108533       0.0113036 
        2.49759       0.0106896       0.0111263 
        2.51328        0.010496       0.0109523 
        2.52906        0.010343       0.0107809 
        2.54479       0.0101805       0.0106138 
        2.56049       0.0100107       0.0104505 
        2.57618      0.00986015       0.0102908 
        2.59189      0.00968649       0.0101342 
        2.60758      0.00958269      0.00998108 
        2.62325      0.00938941      0.00983129 
        2.63898      0.00926627      0.00968403 
        2.65468      0.00910313      0.00954009 
        2.67044       0.0089726      0.00939844 
        2.68618       0.0088189      0.00925999 
        2.70184      0.00873335      0.00912486 
        2.71755      0.00858483      0.00899207 
        2.73329       0.0084722      0.00886172 
        2.74897      0.00831913      0.00873436 
        2.76462      0.00821301      0.00860977 
        2.78034      0.00809879      0.00848709 
        2.79607      0.00796633      0.00836665 
        2.81179      0.00785109      0.00824868 
        2.82749      0.00774894      0.00813311 
        2.84321      0.00762295      0.00801961 
        2.85893      0.00752725       0.0079083 
        2.87462      0.00741045      0.00779928 
        2.89033       0.0073032      0.00769221 
        2.90605       0.0071885      0.00758705 
        2.92176      0.00710175      0.00748389 
        2.93747      0.00700219       0.0073827 
        2.95318      0.00690055      0.00728334 
        2.96891      0.00679015      0.00718576 
        2.98456      0.00670453      0.00709039 
        3.00023      0.00664047      0.00699661 
        3.01596      0.00652557      0.00690422 
        3.03164      0.00644336      0.00681375 
        3.04738      0.00636212      0.00672464 
         3.0631      0.00625012      0.00663713 
        3.07883      0.00619182      0.00655118 
        3.09456       0.0060984      0.00646675 
        3.11026      0.00600366      0.00638393 
        3.12596      0.00595255      0.00630256 
        3.14163      0.00587066       0.0062228 
        3.15734      0.00580193      0.00614421 
        3.17308      0.00572389      0.00606679 
        3.18879      0.00562809      0.00599091 
        3.20447      0.00557534      0.00591643 
         3.2202      0.00549557      0.00584298 
         3.2359      0.00543187       0.0057709 
        3.25157      0.00535433      0.00570021 
        3.26729      0.00528838      0.00563047 
        3.28304      0.00523916      0.00556176 
        3.29877      0.00516234      0.00549428 
        3.31446      0.00509324      0.00542806 
        3.33014      0.00502958      0.00536299 
        3.34585      0.00498858      0.00529888 
        3.36158      0.00491492      0.00523571 
        3.37727      0.00485137      0.00517376 
        3.39294      0.00479167      0.00511287 
        3.40867      0.00473998      0.00505274 
        3.42439      0.00467748       0.0049936 
        3.44008      0.00462411      0.00493552 
        3.45578       0.0045758      0.00487831 
        3.47153      0.00451478      0.00482188 
        3.48724      0.00446515      0.00476643 
        3.50292      0.00441778      0.00471198 
        3.51859      0.00438991      0.00465841 
        3.53431      0.00431641      0.00460549 
        3.55007       0.0042701      0.00455327 
        3.56577      0.00421719      0.00450205 
        3.58146      0.00417754      0.00445164 
        3.59719      0.00413256      0.00440189 
        3.61292      0.00408649       0.0043529 
        3.62859      0.00402483      0.00430484 
        3.64429      0.00400131      0.00425742 
        3.66003      0.00395945      0.00421055 
        3.67578      0.00391117      0.00416441 
        3.69146      0.00387693      0.00411913 
        3.70712      0.00382434       0.0040746 
        3.72284      0.00379375      0.00403056 
        3.73853      0.00374467      0.00398724 
        3.75422      0.00371332      0.00394454 
        3.76993      0.00368446      0.00390242 
        3.78564      0.00364404      0.00386094 
        3.80137      0.00359988      0.00381999 
        3.81707      0.00356444      0.00377971 
        3.83279      0.00352326      0.00373998 
        3.84853      0.00350176      0.00370075 
        3.86424      0.00346136      0.00366216 
        3.87992      0.00343403      0.00362417 
        3.89561      0.00340221      0.00358671 
        3.91134      0.00336723      0.00354971 
        3.92704      0.00333691      0.00351327 
        3.94273      0.00331041      0.00347737 
        3.95845      0.00328658      0.00344191 
        3.97418       0.0032535      0.00340693 
        3.98988      0.00321445      0.00337248 
        4.00554      0.00318292       0.0033386 
        4.02125      0.00314539      0.00330508 
        4.03698      0.00309407      0.00327198 
        4.05268      0.00305896      0.00323939 
        4.06839      0.00302738      0.00320723 
         4.0841       0.0029791       0.0031755 
        4.09983      0.00295116      0.00314417 
        4.11555      0.00290382      0.00311326 
        4.13124      0.00287903      0.00308285 
        4.14693      0.00284338      0.00305282 
        4.16266      0.00281614      0.00302312 
        4.17839      0.00277983      0.00299383 
        4.19408       0.0027445      0.00296499 
        4.20977      0.00271677      0.00293652 
        4.22551      0.00269171      0.00290835 
        4.24123      0.00266735      0.00288057 
        4.25691      0.00265356      0.00285324 
        4.27259      0.00262069      0.00282624 
        4.28831      0.00259965      0.00279954 
        4.30404      0.00257298      0.00277316 
        4.31974      0.00256867      0.00274717 
        4.33543      0.00254016      0.00272153 
        4.35116      0.00252272      0.00269616 
        4.36688      0.00250478      0.00267111 
        4.38255       0.0024948      0.00264648 
        4.39825      0.00248133       0.0026221 
        4.41398      0.00246208      0.00259797 
         4.4297      0.00244987      0.00257418 
        4.44541      0.00244207      0.00255068 
        4.46111      0.00243069       0.0025275 
        4.47683      0.00242717      0.00250458 
        4.49251        0.002414      0.00248199 
        4.50819      0.00240148      0.00245969 
         4.5239      0.00239624      0.00243763 
        4.53962      0.00239824       0.0024158 
        4.55535      0.00239088      0.00239424 
        4.57106      0.00239452      0.00237296 
        4.58678      0.00238712      0.00235194 
         4.6025      0.00238999      0.00233117 
        4.61821      0.00239117      0.00231065 
        4.63391      0.00239262       0.0022904 
         4.6496       0.0023806       0.0022704 
        4.66532      0.00239649      0.00225061 
        4.68103       0.0023957      0.00223106 
        4.69673      0.00239803      0.00221176 
        4.71241      0.00241932      0.00219271 
        4.72811      0.00242053      0.00217385 
        4.74384      0.00242498      0.00215519 
        4.75955      0.00244399      0.00213677 
        4.77525      0.00244853      0.00211857 
        4.79096      0.00246513      0.00210057 
        4.80669      0.00247437      0.00208276 
         4.8224      0.00248747      0.00206518 
        4.83809      0.00250063      0.00204782 
        4.85379       0.0025253      0.00203065 
         4.8695      0.00254954      0.00201366 
        4.88521      0.00256259      0.00199687 
        4.90093      0.00257784      0.00198027 
        4.91663      0.00261557      0.00196387 
        4.93234      0.00262189      0.00194763 
        4.94807      0.00264652      0.00193157 
        4.96377      0.00267197      0.00191572 
        4.97943      0.00270731      0.00190008 
        4.99514      0.00272531      0.00188457 
        5.01086      0.00275873      0.00186923 
        5.02654      0.00279334      0.00185409 
        5.04227      0.00280901      0.00183907 
          5.058      0.00286044      0.00182422 
        5.07371      0.00288508      0.00180955 
        5.08942       0.0029358      0.00179504 
        5.10513      0.00296306      0.00178069 
        5.12084      0.00300165      0.00176649 
        5.13656      0.00304713      0.00175245 
        5.15225      0.00308998      0.00173858 
        5.16796      0.00313658      0.00172484 
        5.18369      0.00317574      0.00171123 
         5.1994       0.0032374       0.0016978 
        5.21509      0.00326667      0.00168452 
        5.23079      0.00332241      0.00167136 
        5.24649      0.00337776      0.00165836 
        5.26217      0.00342551       0.0016455 
        5.27788      0.00348109      0.00163276 
        5.29359      0.00353651      0.00162015 
        5.30933      0.00360189      0.00160765 
        5.32504      0.00364127      0.00159531 
        5.34073      0.00372327      0.00158311 
        5.35646      0.00378551      0.00157101 
        5.37218      0.00386921      0.00155904 
        5.38789      0.00393584       0.0015472 
        5.40357      0.00398814      0.00153551 
        5.41929      0.00406801      0.00152391 
        5.43502      0.00416345      0.00151242 
         5.4507      0.00423445      0.00150109 
        5.46639      0.00429139      0.00148986 
        5.48212      0.00438528      0.00147872 
        5.49786      0.00449883      0.00146769 
        5.51353      0.00459034      0.00145682 
        5.52921      0.00465735      0.00144605 
        5.54495      0.00477379      0.00143535 
        5.56066      0.00487609      0.00142478 
        5.57637      0.00498409      0.00141431 
        5.59207      0.00508455      0.00140395 
        5.60778       0.0051924       0.0013937 
        5.62346      0.00528805      0.00138356 
        5.63916      0.00538424      0.00137351 
        5.65487      0.00552428      0.00136356 
         5.6706      0.00562973      0.00135369 
        5.68633       0.0057686      0.00134391 
        5.70203      0.00591467      0.00133426 
        5.71773      0.00601362      0.00132469 
        5.73344      0.00611906      0.00131522 
        5.74916      0.00631433      0.00130583 
        5.76486       0.0064402      0.00129654 
        5.78054      0.00659619      0.00128736 
        5.79626      0.00672451      0.00127824 
          5.812      0.00690116       0.0012692 
         5.8277       0.0070656      0.00126027 
        5.84339      0.00726404      0.00125143 
        5.85911      0.00744942      0.00124265 
        5.87484      0.00758148      0.00123396 
        5.89053      0.00777777      0.00122537 
        5.90623      0.00799055      0.00121686 
        5.92195      0.00816052      0.00120841 
        5.93767      0.00835987      0.00120005 
        5.95336      0.00858862      0.00119178 
        5.96905      0.00883403      0.00118359 
        5.98476      0.00901425      0.00117546 
        6.00048      0.00930968      0.00116741 
        6.01617      0.00947713      0.00115945 
        6.03185      0.00970095      0.00115156 
        6.04756       0.0100303      0.00114374 
        6.06331       0.0102295      0.00113596 
        6.07903       0.0105467      0.00112828 
        6.09473       0.0107504      0.00112067 
        6.11044       0.0111569      0.00111313 
        6.12616       0.0114111      0.00110566 
        6.14186       0.0116668      0.00109826 
        6.15755       0.0120873      0.00109093 
        6.17326       0.0122789      0.00108366 
        6.18898       0.0126714      0.00107645 
        6.20467       0.0129955      0.00106932 
        6.22036       0.0133831      0.00106226 
         6.2361       0.0136463      0.00105524 
         6.2518       0.0140972      0.00104829 
        6.26748        0.014421      0.00104143 
        6.28319       0.0149865       0.0010346 
        6.29893       0.0153657      0.00102783 
        6.31463       0.0157533      0.00102113 
        6.33033       0.0161713      0.00101449 
        6.34604       0.0166534      0.00100791 
        6.36177       0.0170884      0.00100138 
        6.37747       0.0177272     0.000994918 
