# k  (h/Mpc)    Pcb(k)  (Mpc/h)^3    Pcb_linear(k) (Mpc/h)^3   ShotnoiseSubtracted = true
      0.0200456         5610.98         5694.51 
      0.0350414         3793.37         3851.91 
      0.0492313         2741.47         2742.36 
      0.0637834         2294.78         2256.71 
      0.0800726         1744.56         1708.96 
       0.096163          1198.6         1206.41 
       0.111083         967.564         982.472 
       0.126058         880.226         868.324 
       0.142273         728.598         700.799 
       0.158546         583.635         546.427 
        0.17375         483.331         474.264 
       0.188953         454.574         427.584 
       0.204907          411.47         363.695 
       0.220756         341.564         304.763 
        0.23588         301.643         271.279 
         0.2514         266.588         246.468 
       0.267535         246.781         216.956 
       0.283568         221.121         189.582 
       0.299022         203.617         171.156 
       0.314451          184.69          156.72 
       0.330372         170.128         141.424 
       0.346141         152.229         127.286 
       0.361624         143.962          116.34 
       0.377134         134.902         107.236 
       0.392932         121.396         98.3792 
       0.408854          116.19         90.0647 
       0.424564         110.779         83.1023 
       0.440253         103.239         77.0986 
       0.455999         96.6244         71.5115 
       0.471626          89.451         66.3786 
        0.48727         86.0848         61.8093 
       0.502856         81.8158         57.7677 
       0.518488         78.6455         54.0376 
       0.534347         75.3369         50.5441 
       0.550082         69.0759         47.3933 
       0.565732         65.6186          44.553 
       0.581496         63.3492         41.9192 
       0.597222         61.1105         39.4902 
       0.612804         57.6272         37.2711 
       0.628434         56.0199         35.2249 
       0.644267         54.1967         33.3112 
       0.660051         52.2066         31.5428 
       0.675724         49.7651          29.912 
       0.691403         48.1894         28.3946 
       0.707174         46.5418         26.9734 
       0.722871         45.0252         25.6547 
        0.73838         43.7323         24.4378 
       0.754018         41.5601         23.2905 
       0.769845         40.5373         22.2041 
        0.78569         39.3914         21.1859 
       0.801365         37.8904         20.2414 
       0.817031         36.9111         19.3552 
       0.832809         36.2371         18.5163 
       0.848511         34.2703         17.7309 
       0.864097         33.5883         16.9963 
       0.879701         32.8351         16.3026 
       0.895507         32.3109         15.6394 
       0.911279         31.1994         15.0144 
        0.92691         30.5083         14.4287 
       0.942635         29.2927          13.871 
       0.958396          29.026         13.3415 
       0.974128         28.1175         12.8405 
       0.989692         27.6949         12.3701 
        1.00528         27.0359         11.9226 
        1.02113         26.0877         11.4902 
        1.03692         25.4921         11.0807 
        1.05264         25.1953         10.6931 
        1.06832          24.386         10.3246 
        1.08405         23.9637         9.97246 
        1.09979         23.4793          9.6365 
        1.11537         22.8337         9.31932 
        1.13105         22.6994         9.01451 
        1.14679          22.312         8.72213 
        1.16256         21.5537         8.44212 
        1.17828         21.2788         8.17531 
        1.19395         20.7722         7.92091 
         1.2097         20.5807         7.67603 
        1.22537         20.1964         7.44265 
          1.241         19.7172         7.21967 
        1.25666         19.2163         7.00524 
        1.27241           18.94         6.79851 
        1.28819         18.4815         6.59975 
        1.30392         18.2982         6.40949 
        1.31957          18.127         6.22756 
        1.33529         17.8655         6.05201 
        1.35108         17.4299         5.88252 
        1.36674         17.1509         5.72071 
         1.3824         16.7903         5.56512 
        1.39811         16.6104         5.41479 
        1.41389         16.4221         5.26942 
        1.42964         16.0826         5.12961 
        1.44531         16.0028         4.99555 
        1.46101         15.5496         4.86598 
        1.47667         15.3701         4.74138 
        1.49229         15.1862         4.62146 
        1.50793         14.9823         4.50554 
        1.52367         14.7667         4.39284 
        1.53953         14.6094         4.28322 
        1.55526         14.3273         4.17822 
        1.57092         14.0691         4.07715 
        1.58662         13.9566         3.97917 
        1.60235         13.7595         3.88422 
        1.61809          13.572         3.79231 
        1.63369         13.4005         3.70417 
        1.64941         13.1272          3.6182 
        1.66519         13.0648         3.53464 
        1.68085           12.85          3.4543 
        1.69652         12.6727         3.37643 
        1.71228         12.5441         3.30051 
        1.72806         12.3925         3.22686 
        1.74368         12.1975         3.15618 
        1.75933         12.0855         3.08747 
        1.77505         11.9387         3.02048 
        1.79081         11.7453         2.95536 
         1.8065         11.6889         2.89242 
        1.82218         11.4598         2.83137 
        1.83797          11.292         2.77165 
        1.85367         11.1854         2.71398 
        1.86928          11.119         2.65829 
        1.88497         10.9186         2.60386 
        1.90073         10.9064         2.55074 
        1.91647         10.7229         2.49915 
        1.93218          10.631         2.44908 
        1.94787         10.5102         2.40046 
        1.96363          10.422         2.35296 
        1.97935         10.2745         2.30684 
        1.99499         10.1108         2.26221 
        2.01064         10.0398         2.21869 
         2.0264         9.93009         2.17604 
        2.04216         9.81198         2.13452 
        2.05781         9.66461         2.09435 
        2.07353         9.60268         2.05506 
        2.08928          9.4954         2.01669 
        2.10499         9.41318          1.9794 
        2.12065         9.26626         1.94316 
        2.13633         9.25445          1.9078 
        2.15211          9.0929         1.87308 
        2.16785         9.05544         1.83932 
        2.18349         8.99069          1.8066 
        2.19916         8.86653          1.7746 
        2.21489         8.78205         1.74327 
        2.23063         8.67966         1.71267 
         2.2463         8.57911         1.68294 
        2.26194         8.50048         1.65398 
        2.27765         8.47273         1.62556 
        2.29341         8.35513         1.59773 
        2.30914         8.23223          1.5706 
        2.32486         8.19457         1.54411 
        2.34061         8.12177         1.51819 
        2.35635         8.03206         1.49289 
        2.37203         7.99546         1.46824 
        2.38768         7.83594         1.44421 
        2.40339         7.79097         1.42062 
        2.41914         7.70813          1.3975 
        2.43483         7.69086         1.37497 
         2.4505         7.60156         1.35298 
        2.46622         7.52106         1.33138 
        2.48195         7.47808         1.31026 
        2.49759         7.38947         1.28971 
        2.51328          7.3149         1.26954 
        2.52906         7.27158         1.24967 
        2.54479         7.18406          1.2303 
        2.56049         7.17623         1.21138 
        2.57618         7.10101         1.19286 
        2.59189         6.99564         1.17471 
        2.60758         6.98415         1.15696 
        2.62325         6.92129          1.1396 
        2.63898         6.81673         1.12253 
        2.65468         6.74258         1.10584 
        2.67044          6.7121         1.08942 
        2.68618         6.63977         1.07337 
        2.70184         6.60654         1.05771 
        2.71755         6.54318         1.04232 
        2.73329         6.46077         1.02721 
        2.74897         6.43695         1.01245 
        2.76462         6.40783        0.998005 
        2.78034         6.29764        0.983784 
        2.79607         6.27894        0.969824 
        2.81179          6.2215        0.956149 
        2.82749         6.19277        0.942753 
        2.84321         6.14163        0.929596 
        2.85893          6.0911        0.916694 
        2.87462         6.03061        0.904057 
        2.89033         5.97121        0.891645 
        2.90605         5.91795        0.879455 
        2.92176         5.88379        0.867498 
        2.93747         5.84975        0.855768 
        2.95318         5.81229        0.844252 
        2.96891          5.7513         0.83294 
        2.98456         5.67882        0.821886 
        3.00023         5.64869        0.811014 
        3.01596         5.61763        0.800305 
        3.03164         5.58201        0.789819 
        3.04738         5.54943        0.779489 
         3.0631         5.47911        0.769346 
        3.07883         5.45368        0.759382 
        3.09456         5.39861        0.749596 
        3.11026         5.36004        0.739996 
        3.12596         5.33077        0.730564 
        3.14163         5.26916        0.721318 
        3.15734         5.24578        0.712209 
        3.17308         5.19839        0.703235 
        3.18879         5.15487        0.694439 
        3.20447         5.13364        0.685806 
         3.2202         5.06526        0.677292 
         3.2359         5.04579        0.668937 
        3.25157         5.00904        0.660742 
        3.26729         4.98983        0.652658 
        3.28304         4.93281        0.644694 
        3.29877          4.8946        0.636872 
        3.31446         4.86238        0.629196 
        3.33014         4.82481        0.621653 
        3.34585         4.81411        0.614221 
        3.36158         4.75762        0.606899 
        3.37727         4.73844        0.599719 
        3.39294         4.70744        0.592661 
        3.40867         4.65306         0.58569 
        3.42439         4.63215        0.578835 
        3.44008         4.59263        0.572102 
        3.45578         4.55843        0.565471 
        3.47153          4.5274         0.55893 
        3.48724         4.49817        0.552503 
        3.50292         4.47793        0.546191 
        3.51859         4.44049        0.539981 
        3.53431         4.39873        0.533847 
        3.55007         4.37996        0.527794 
        3.56577         4.35107        0.521857 
        3.58146         4.33056        0.516014 
        3.59719         4.28484        0.510246 
        3.61292         4.27235        0.504568 
        3.62859         4.23613        0.498998 
        3.64429         4.19989          0.4935 
        3.66003         4.16371        0.488068 
        3.67578         4.14801        0.482719 
        3.69146         4.10127         0.47747 
        3.70712          4.0928        0.472308 
        3.72284          4.0548        0.467203 
        3.73853         4.03052        0.462182 
        3.75422         3.99877        0.457233 
        3.76993         3.98372        0.452351 
        3.78564         3.94684        0.447542 
        3.80137         3.93204        0.442795 
        3.81707         3.89963        0.438126 
        3.83279         3.86836        0.433521 
        3.84853         3.84105        0.428973 
        3.86424         3.81057          0.4245 
        3.87992         3.78901        0.420097 
        3.89561         3.77638        0.415755 
        3.91134         3.73357        0.411466 
        3.92704          3.7155        0.407242 
        3.94273         3.69177        0.403081 
        3.95845         3.67171         0.39897 
        3.97418         3.64435        0.394915 
        3.98988         3.62028        0.390922 
        4.00554         3.59891        0.386995 
        4.02125          3.5774         0.38311 
        4.03698          3.5449        0.379272 
        4.05268         3.52042        0.375495 
        4.06839         3.50299        0.371767 
         4.0841         3.47745         0.36809 
        4.09983         3.44876        0.364457 
        4.11555         3.41701        0.360875 
        4.13124         3.40082         0.35735 
        4.14693         3.37402        0.353869 
        4.16266          3.3469        0.350426 
        4.17839         3.32867        0.347031 
        4.19408         3.30028        0.343688 
        4.20977         3.28613        0.340387 
        4.22551          3.2547        0.337122 
        4.24123         3.24153        0.333903 
        4.25691         3.22587        0.330734 
        4.27259         3.21214        0.327605 
        4.28831         3.18156         0.32451 
        4.30404         3.16094        0.321452 
        4.31974         3.13779         0.31844 
        4.33543         3.11606        0.315468 
        4.35116         3.09525        0.312526 
        4.36688         3.06818        0.309623 
        4.38255         3.05306        0.306767 
        4.39825         3.03591        0.303941 
        4.41398         3.02393        0.301145 
         4.4297          2.9994        0.298387 
        4.44541         2.98779        0.295663 
        4.46111         2.96682        0.292976 
        4.47683          2.9317        0.290319 
        4.49251         2.92863        0.287701 
        4.50819         2.90319        0.285116 
         4.5239         2.88636        0.282558 
        4.53962         2.88092        0.280029 
        4.55535         2.85519        0.277529 
        4.57106         2.84006        0.275063 
        4.58678         2.81929        0.272626 
         4.6025         2.80597        0.270218 
        4.61821         2.78854         0.26784 
        4.63391         2.77002        0.265493 
         4.6496         2.75937        0.263175 
        4.66532         2.73496         0.26088 
        4.68103         2.71381        0.258615 
        4.69673         2.70116        0.256377 
        4.71241         2.67939        0.254169 
        4.72811         2.67082        0.251983 
        4.74384         2.65713        0.249819 
        4.75955         2.63983        0.247684 
        4.77525         2.62089        0.245575 
        4.79096         2.60417        0.243488 
        4.80669         2.59147        0.241424 
         4.8224         2.57788        0.239386 
        4.83809         2.56409        0.237374 
        4.85379         2.55135        0.235383 
         4.8695         2.53466        0.233414 
        4.88521         2.51292        0.231468 
        4.90093         2.50946        0.229543 
        4.91663         2.49004        0.227642 
        4.93234         2.47599        0.225761 
        4.94807         2.46706        0.223899 
        4.96377         2.44417        0.222062 
        4.97943         2.43202        0.220249 
        4.99514          2.4168        0.218451 
        5.01086         2.40612        0.216672 
        5.02654         2.39153        0.214917 
        5.04227         2.38185        0.213177 
          5.058         2.37191        0.211455 
        5.07371         2.35659        0.209755 
        5.08942         2.34164        0.208073 
        5.10513         2.32991         0.20641 
        5.12084         2.31334        0.204764 
        5.13656         2.30302        0.203136 
        5.15225          2.2872        0.201528 
        5.16796         2.27885        0.199935 
        5.18369         2.26164        0.198358 
         5.1994         2.25443        0.196801 
        5.21509         2.24253        0.195261 
        5.23079         2.22748        0.193736 
        5.24649         2.21694        0.192229 
        5.26217         2.20764        0.190738 
        5.27788         2.19324        0.189262 
        5.29359         2.18059          0.1878 
        5.30933         2.16665        0.186352 
        5.32504           2.153        0.184921 
        5.34073         2.14214        0.183507 
        5.35646         2.13233        0.182104 
        5.37218         2.11918        0.180716 
        5.38789         2.11251        0.179345 
        5.40357         2.10228        0.177989 
        5.41929          2.0924        0.176644 
        5.43502          2.0815        0.175313 
         5.4507         2.07053        0.173999 
        5.46639         2.05932        0.172698 
        5.48212         2.04912        0.171407 
        5.49786         2.03815        0.170128 
        5.51353         2.02609        0.168868 
        5.52921         2.01912        0.167619 
        5.54495         2.00643        0.166379 
        5.56066         1.99881        0.165153 
        5.57637           1.986         0.16394 
        5.59207         1.97768         0.16274 
        5.60778         1.97268        0.161551 
        5.62346         1.95798        0.160376 
        5.63916         1.94614        0.159211 
        5.65487         1.93801        0.158057 
         5.6706          1.9291        0.156913 
        5.68633         1.91882         0.15578 
        5.70203         1.90784        0.154661 
        5.71773         1.89992        0.153552 
        5.73344         1.89002        0.152454 
        5.74916          1.8821        0.151366 
        5.76486         1.87547        0.150289 
        5.78054         1.86379        0.149225 
        5.79626         1.86082        0.148167 
          5.812         1.84771        0.147119 
         5.8277         1.83996        0.146085 
        5.84339          1.8282         0.14506 
        5.85911         1.82156        0.144042 
        5.87484         1.81212        0.143035 
        5.89053         1.80276        0.142039 
        5.90623         1.79497        0.141053 
        5.92195         1.78763        0.140073 
        5.93767          1.7784        0.139104 
        5.95336         1.76993        0.138145 
        5.96905         1.76247        0.137196 
        5.98476         1.75161        0.136254 
        6.00048         1.74316        0.135321 
        6.01617         1.73781        0.134398 
        6.03185         1.72849        0.133484 
        6.04756         1.72107        0.132577 
        6.06331         1.71213        0.131676 
        6.07903         1.70817        0.130785 
        6.09473         1.69942        0.129903 
        6.11044          1.6895        0.129029 
        6.12616         1.68282        0.128162 
        6.14186         1.68022        0.127305 
        6.15755         1.67099        0.126455 
        6.17326         1.66437        0.125613 
        6.18898          1.6534        0.124777 
        6.20467         1.64517        0.123951 
        6.22036         1.63703        0.123132 
         6.2361         1.63284        0.122318 
         6.2518         1.62375        0.121513 
        6.26748           1.616        0.120717 
        6.28319         1.60984        0.119926 
        6.29893         1.60425        0.119141 
        6.31463         1.59818        0.118365 
        6.33033         1.58774        0.117596 
        6.34604         1.58252        0.116832 
        6.36177         1.57549        0.116075 
        6.37747         1.57081        0.115326 
