# k  (h/Mpc)    Pcb(k)  (Mpc/h)^3    Pcb_linear(k) (Mpc/h)^3   ShotnoiseSubtracted = true
      0.0200456         297.823         301.504 
      0.0350414         204.366         203.945 
      0.0492313         145.829         145.198 
      0.0637834         119.841         119.485 
      0.0800726          90.955         90.4832 
       0.096163         64.0804         63.8754 
       0.111083         51.8843         52.0184 
       0.126058         45.9399         45.9747 
       0.142273         37.3295         37.1048 
       0.158546         29.2058         28.9314 
        0.17375         25.0343         25.1106 
       0.188953         22.6308         22.6391 
       0.204907         19.5891         19.2564 
       0.220756         16.3025         16.1361 
        0.23588         14.4583         14.3633 
         0.2514         13.0524         13.0496 
       0.267535         11.5385         11.4871 
       0.283568         10.1153         10.0377 
       0.299022         9.14855         9.06209 
       0.314451         8.26503         8.29775 
       0.330372         7.51304         7.48791 
       0.346141         6.76918         6.73933 
       0.361624          6.2035         6.15979 
       0.377134         5.74145         5.67778 
       0.392932         5.16057         5.20883 
       0.408854         4.81921         4.76861 
       0.424564         4.41848         4.39997 
       0.440253          4.1011          4.0821 
       0.455999         3.82605         3.78628 
       0.471626         3.56343         3.51451 
        0.48727         3.29811         3.27258 
       0.502856         3.07057         3.05859 
       0.518488         2.90743          2.8611 
       0.534347         2.74075         2.67613 
       0.550082         2.52326          2.5093 
       0.565732         2.33939         2.35892 
       0.581496         2.24398         2.21947 
       0.597222         2.12172         2.09087 
       0.612804         1.98895         1.97337 
       0.628434         1.89892         1.86504 
       0.644267         1.78609         1.76371 
       0.660051         1.68302         1.67008 
       0.675724          1.6016         1.58373 
       0.691403          1.5287         1.50339 
       0.707174         1.44406         1.42814 
       0.722871          1.3678         1.35832 
        0.73838          1.3126          1.2939 
       0.754018         1.26001         1.23315 
       0.769845         1.19482         1.17563 
        0.78569         1.13987         1.12172 
       0.801365         1.08527         1.07171 
       0.817031         1.04125         1.02479 
       0.832809        0.995453        0.980373 
       0.848511        0.948525        0.938786 
       0.864097        0.905122        0.899895 
       0.879701         0.86783        0.863166 
       0.895507        0.838219        0.828053 
       0.911279        0.808248        0.794962 
        0.92691         0.77357         0.76395 
       0.942635        0.743197        0.734419 
       0.958396        0.711587        0.706383 
       0.974128        0.685376        0.679858 
       0.989692        0.663286        0.654955 
        1.00528        0.638515        0.631259 
        1.02113        0.609962        0.608363 
        1.03692        0.593221        0.586686 
        1.05264        0.571246        0.566163 
        1.06832        0.552789        0.546651 
        1.08405        0.528636        0.528006 
        1.09979        0.511795        0.510219 
        1.11537        0.498589        0.493425 
        1.13105         0.48177        0.477286 
        1.14679        0.468537        0.461806 
        1.16256        0.447769        0.446981 
        1.17828        0.434217        0.432854 
        1.19395        0.419903        0.419384 
         1.2097        0.404641        0.406418 
        1.22537        0.396175        0.394062 
          1.241        0.383388        0.382256 
        1.25666        0.375185        0.370903 
        1.27241        0.359908        0.359957 
        1.28819        0.349259        0.349433 
        1.30392        0.339921         0.33936 
        1.31957        0.330741        0.329727 
        1.33529        0.320006        0.320433 
        1.35108        0.310533        0.311459 
        1.36674        0.299359        0.302891 
         1.3824        0.295177        0.294654 
        1.39811        0.285214        0.286694 
        1.41389        0.278003        0.278997 
        1.42964        0.271543        0.271595 
        1.44531         0.26176        0.264497 
        1.46101        0.256178        0.257636 
        1.47667        0.247183        0.251039 
        1.49229        0.243044         0.24469 
        1.50793         0.23513        0.238552 
        1.52367        0.230096        0.232585 
        1.53953        0.224026        0.226782 
        1.55526        0.218576        0.221222 
        1.57092        0.211618        0.215871 
        1.58662        0.207665        0.210683 
        1.60235        0.203211        0.205656 
        1.61809        0.195797        0.200789 
        1.63369        0.194128        0.196123 
        1.64941         0.18822        0.191571 
        1.66519        0.183161        0.187147 
        1.68085         0.17827        0.182893 
        1.69652        0.174286         0.17877 
        1.71228        0.171218         0.17475 
        1.72806         0.16576        0.170851 
        1.74368        0.163419        0.167109 
        1.75933        0.159121        0.163471 
        1.77505        0.155334        0.159924 
        1.79081        0.152457        0.156476 
         1.8065        0.147685        0.153143 
        1.82218         0.14534        0.149911 
        1.83797        0.141587        0.146749 
        1.85367        0.139104        0.143696 
        1.86928         0.13608        0.140747 
        1.88497        0.133305        0.137865 
        1.90073        0.129919        0.135053 
        1.91647         0.12724        0.132321 
        1.93218        0.124379         0.12967 
        1.94787        0.121805        0.127096 
        1.96363        0.119324        0.124581 
        1.97935        0.116355        0.122139 
        1.99499        0.114386        0.119776 
        2.01064        0.112163        0.117472 
         2.0264         0.10953        0.115213 
        2.04216        0.107997        0.113015 
        2.05781        0.105435        0.110888 
        2.07353         0.10267        0.108808 
        2.08928        0.100855        0.106777 
        2.10499       0.0988582        0.104802 
        2.12065       0.0974192        0.102884 
        2.13633       0.0950491        0.101011 
        2.15211       0.0938419       0.0991729 
        2.16785       0.0915362       0.0973853 
        2.18349       0.0892572       0.0956528 
        2.19916       0.0884524       0.0939587 
        2.21489       0.0864766       0.0922998 
        2.23063       0.0850699       0.0906797 
         2.2463       0.0831663       0.0891055 
        2.26194       0.0814639       0.0875725 
        2.27765       0.0799457       0.0860675 
        2.29341       0.0788077       0.0845939 
        2.30914       0.0770344       0.0831576 
        2.32486       0.0756984       0.0817554 
        2.34061       0.0743905        0.080383 
        2.35635       0.0729035       0.0790431 
        2.37203       0.0715698       0.0777384 
        2.38768       0.0703023       0.0764656 
        2.40339       0.0691214       0.0752166 
        2.41914       0.0680598       0.0739925 
        2.43483       0.0667337       0.0727998 
         2.4505        0.065292       0.0716352 
        2.46622       0.0642246       0.0704921 
        2.48195       0.0630224       0.0693737 
        2.49759       0.0623334       0.0682854 
        2.51328       0.0612993       0.0672175 
        2.52906       0.0600838       0.0661656 
        2.54479       0.0589461         0.06514 
        2.56049       0.0580186        0.064138 
        2.57618       0.0570462       0.0631579 
        2.59189       0.0561488       0.0621967 
        2.60758       0.0554487        0.061257 
        2.62325        0.054264       0.0603376 
        2.63898       0.0533883       0.0594339 
        2.65468       0.0522978       0.0585505 
        2.67044       0.0518432       0.0576811 
        2.68618       0.0508883       0.0568314 
        2.70184       0.0499502       0.0560021 
        2.71755       0.0489658       0.0551871 
        2.73329       0.0484103       0.0543871 
        2.74897       0.0477526       0.0536054 
        2.76462       0.0467782       0.0528408 
        2.78034       0.0462037       0.0520879 
        2.79607       0.0453387       0.0513487 
        2.81179       0.0448666       0.0506247 
        2.82749       0.0439607       0.0499154 
        2.84321       0.0433048       0.0492188 
        2.85893       0.0427582       0.0485357 
        2.87462       0.0421878       0.0478666 
        2.89033       0.0414946       0.0472095 
        2.90605       0.0406459        0.046564 
        2.92176       0.0402644       0.0459309 
        2.93747       0.0395713       0.0453099 
        2.95318       0.0389177       0.0447001 
        2.96891       0.0384345       0.0441012 
        2.98456       0.0379376       0.0435159 
        3.00023       0.0372971       0.0429403 
        3.01596       0.0367572       0.0423733 
        3.03164       0.0364305       0.0418181 
        3.04738       0.0357064       0.0412712 
         3.0631       0.0351263       0.0407341 
        3.07883       0.0347095       0.0402066 
        3.09456        0.034335       0.0396884 
        3.11026       0.0337626       0.0391801 
        3.12596       0.0333771       0.0386808 
        3.14163       0.0328911       0.0381912 
        3.15734       0.0324735       0.0377089 
        3.17308       0.0320059       0.0372338 
        3.18879       0.0315476       0.0367681 
        3.20447       0.0312161        0.036311 
         3.2202       0.0308292       0.0358602 
         3.2359       0.0304282       0.0354178 
        3.25157       0.0299319       0.0349839 
        3.26729       0.0295451       0.0345559 
        3.28304       0.0292485       0.0341342 
        3.29877       0.0288384       0.0337201 
        3.31446       0.0284792       0.0333137 
        3.33014       0.0281935       0.0329143 
        3.34585       0.0278266       0.0325208 
        3.36158       0.0274114       0.0321332 
        3.37727       0.0271378        0.031753 
        3.39294       0.0268443       0.0313793 
        3.40867       0.0264523       0.0310102 
        3.42439       0.0261834       0.0306473 
        3.44008       0.0258438       0.0302908 
        3.45578       0.0256917       0.0299397 
        3.47153       0.0252564       0.0295933 
        3.48724       0.0251129       0.0292531 
        3.50292       0.0247292       0.0289189 
        3.51859       0.0244284       0.0285901 
        3.53431       0.0242588       0.0282653 
        3.55007       0.0239576       0.0279448 
        3.56577       0.0237369       0.0276305 
        3.58146       0.0234258       0.0273211 
        3.59719       0.0232391       0.0270157 
        3.61292       0.0229181       0.0267151 
        3.62859       0.0227139       0.0264202 
        3.64429       0.0225165       0.0261291 
        3.66003       0.0222436       0.0258415 
        3.67578       0.0220574       0.0255583 
        3.69146       0.0218323       0.0252804 
        3.70712       0.0217027       0.0250071 
        3.72284       0.0214473       0.0247368 
        3.73853       0.0212021       0.0244709 
        3.75422        0.021148       0.0242089 
        3.76993       0.0207962       0.0239504 
        3.78564       0.0207127       0.0236958 
        3.80137       0.0204536       0.0234444 
        3.81707       0.0202645       0.0231972 
        3.83279       0.0201524       0.0229534 
        3.84853       0.0199529       0.0227126 
        3.86424       0.0197888       0.0224758 
        3.87992       0.0196029       0.0222426 
        3.89561       0.0194265       0.0220128 
        3.91134       0.0193002       0.0217857 
        3.92704       0.0190887        0.021562 
        3.94273       0.0189292       0.0213417 
        3.95845       0.0187504       0.0211241 
        3.97418       0.0186193       0.0209094 
        3.98988       0.0184001        0.020698 
        4.00554       0.0182326         0.02049 
        4.02125       0.0179762       0.0202843 
        4.03698       0.0177095       0.0200811 
        4.05268       0.0175042       0.0198811 
        4.06839       0.0172509       0.0196837 
         4.0841       0.0169868       0.0194891 
        4.09983       0.0167112       0.0192967 
        4.11555       0.0165446        0.019107 
        4.13124       0.0163075       0.0189204 
        4.14693       0.0160588       0.0187361 
        4.16266       0.0158305       0.0185538 
        4.17839       0.0156947        0.018374 
        4.19408       0.0154947       0.0181971 
        4.20977       0.0153072       0.0180223 
        4.22551       0.0151098       0.0178494 
        4.24123       0.0149361        0.017679 
        4.25691        0.014776       0.0175112 
        4.27259       0.0145993       0.0173455 
        4.28831       0.0145197       0.0171817 
        4.30404       0.0143531       0.0170197 
        4.31974       0.0142416       0.0168603 
        4.33543       0.0141138       0.0167029 
        4.35116       0.0139992       0.0165471 
        4.36688       0.0139064       0.0163934 
        4.38255       0.0137857       0.0162422 
        4.39825       0.0137373       0.0160926 
        4.41398       0.0136635       0.0159446 
         4.4297       0.0135963       0.0157985 
        4.44541       0.0135113       0.0156543 
        4.46111       0.0134202        0.015512 
        4.47683       0.0134272       0.0153714 
        4.49251       0.0133151       0.0152328 
        4.50819       0.0133008       0.0150959 
         4.5239       0.0132241       0.0149605 
        4.53962       0.0132558       0.0148265 
        4.55535        0.013236       0.0146942 
        4.57106       0.0132378       0.0145636 
        4.58678       0.0131635       0.0144346 
         4.6025       0.0131813       0.0143071 
        4.61821       0.0131981       0.0141812 
        4.63391       0.0132058       0.0140569 
         4.6496       0.0132252       0.0139342 
        4.66532       0.0132603       0.0138127 
        4.68103        0.013299       0.0136927 
        4.69673       0.0133214       0.0135743 
        4.71241       0.0133951       0.0134573 
        4.72811       0.0133608       0.0133416 
        4.74384       0.0134788        0.013227 
        4.75955        0.013551        0.013114 
        4.77525       0.0136223       0.0130023 
        4.79096       0.0136624       0.0128918 
        4.80669       0.0137171       0.0127825 
         4.8224       0.0138608       0.0126747 
        4.83809        0.013977       0.0125681 
        4.85379       0.0140769       0.0124627 
         4.8695       0.0141633       0.0123584 
        4.88521       0.0142791       0.0122554 
        4.90093       0.0144342       0.0121535 
        4.91663        0.014567       0.0120528 
        4.93234       0.0146646       0.0119532 
        4.94807       0.0147405       0.0118547 
        4.96377        0.014968       0.0117574 
        4.97943       0.0151472       0.0116614 
        4.99514       0.0152243       0.0115662 
        5.01086       0.0154521        0.011472 
        5.02654       0.0156153       0.0113791 
        5.04227        0.015874        0.011287 
          5.058       0.0160026       0.0111958 
        5.07371       0.0161454       0.0111058 
        5.08942       0.0164968       0.0110167 
        5.10513        0.016727       0.0109287 
        5.12084       0.0168325       0.0108415 
        5.13656       0.0172011       0.0107553 
        5.15225       0.0173756       0.0106702 
        5.16796       0.0176728       0.0105859 
        5.18369       0.0178468       0.0105024 
         5.1994       0.0181798       0.0104199 
        5.21509       0.0184342       0.0103384 
        5.23079       0.0186613       0.0102577 
        5.24649       0.0190493       0.0101778 
        5.26217       0.0193708       0.0100989 
        5.27788       0.0196733       0.0100207 
        5.29359       0.0200515      0.00994334 
        5.30933       0.0203002      0.00986666 
        5.32504       0.0206683       0.0097909 
        5.34073       0.0211119      0.00971603 
        5.35646       0.0214205      0.00964178 
        5.37218       0.0218015      0.00956828 
        5.38789       0.0223051      0.00949567 
        5.40357       0.0226418      0.00942389 
        5.41929       0.0231033      0.00935269 
        5.43502         0.02351      0.00928221 
         5.4507       0.0239026      0.00921262 
        5.46639       0.0244309      0.00914374 
        5.48212       0.0248301      0.00907539 
        5.49786        0.025361      0.00900765 
        5.51353       0.0260038      0.00894094 
        5.52921       0.0265017      0.00887483 
        5.54495       0.0271696       0.0088092 
        5.56066       0.0276145      0.00874429 
        5.57637       0.0281443      0.00868004 
        5.59207       0.0287442       0.0086165 
        5.60778       0.0294356      0.00855356 
        5.62346       0.0300355      0.00849133 
        5.63916       0.0306194      0.00842966 
        5.65487        0.031265      0.00836857 
         5.6706       0.0318515        0.008308 
        5.68633       0.0327851      0.00824801 
        5.70203       0.0333687      0.00818874 
        5.71773       0.0341604      0.00813005 
        5.73344       0.0348596      0.00807191 
        5.74916       0.0358713      0.00801427 
        5.76486       0.0366388      0.00795727 
        5.78054       0.0375027      0.00790092 
        5.79626       0.0382723      0.00784494 
          5.812       0.0393146      0.00778945 
         5.8277       0.0402097      0.00773466 
        5.84339       0.0410035      0.00768039 
        5.85911       0.0419704      0.00762654 
        5.87484       0.0430712       0.0075732 
        5.89053       0.0441392      0.00752048 
        5.90623       0.0452831      0.00746824 
        5.92195       0.0463402      0.00741639 
        5.93767       0.0475547      0.00736507 
        5.95336       0.0485156      0.00731431 
        5.96905       0.0501145      0.00726405 
        5.98476         0.05105      0.00721419 
        6.00048       0.0521166      0.00716477 
        6.01617       0.0536015      0.00711588 
        6.03185       0.0548999      0.00706751 
        6.04756       0.0565204      0.00701946 
        6.06331        0.058081      0.00697176 
        6.07903       0.0593891       0.0069246 
        6.09473       0.0608477      0.00687791 
        6.11044       0.0629049      0.00683162 
        6.12616       0.0644153      0.00678575 
        6.14186       0.0660439      0.00674035 
        6.15755       0.0677334      0.00669536 
        6.17326       0.0693313      0.00665075 
        6.18898       0.0715234      0.00660652 
        6.20467       0.0733215      0.00656277 
        6.22036       0.0750574      0.00651941 
         6.2361       0.0770276      0.00647633 
         6.2518       0.0793258      0.00643371 
        6.26748       0.0811579      0.00639156 
        6.28319       0.0843047      0.00634967 
        6.29893       0.0863127      0.00630811 
        6.31463       0.0885993        0.006267 
        6.33033       0.0910651      0.00622627 
        6.34604       0.0934269      0.00618586 
        6.36177       0.0957982      0.00614578 
        6.37747       0.0993223      0.00610612 
