# k  (h/Mpc)    Pcb(k)  (Mpc/h)^3    Pcb_linear(k) (Mpc/h)^3   ShotnoiseSubtracted = true
      0.0200456         3012.89         3048.72 
      0.0350414         2104.28         2062.23 
      0.0492313         1470.95          1468.2 
      0.0637834         1187.54         1208.19 
      0.0800726         899.591         914.939 
       0.096163         663.525         645.888 
       0.111083         542.752         525.994 
       0.126058         461.947         464.882 
       0.142273          375.55         375.193 
       0.158546          299.96         292.545 
        0.17375         262.965         253.911 
       0.188953         236.487         228.919 
       0.204907         195.733         194.714 
       0.220756           170.8         163.163 
        0.23588         151.787         145.237 
         0.2514         136.992         131.954 
       0.267535         124.752         116.154 
       0.283568         108.483         101.498 
       0.299022         100.111         91.6331 
       0.314451         94.5685         83.9043 
       0.330372         83.2942         75.7155 
       0.346141         75.7636         68.1461 
       0.361624         69.8197          62.286 
       0.377134         63.8113          57.412 
       0.392932         61.3178         52.6701 
       0.408854         55.9993         48.2187 
       0.424564         53.2648         44.4912 
       0.440253         48.5185         41.2769 
       0.455999         44.1766         38.2857 
       0.471626         41.8378         35.5377 
        0.48727         40.4655         33.0913 
       0.502856         37.6286         30.9276 
       0.518488         35.2422         28.9306 
       0.534347          33.081         27.0602 
       0.550082         31.7539         25.3733 
       0.565732         30.4636         23.8527 
       0.581496         28.4577         22.4427 
       0.597222         26.9397         21.1422 
       0.612804         25.5992         19.9541 
       0.628434          25.068         18.8587 
       0.644267         23.6426         17.8341 
       0.660051         22.4334         16.8873 
       0.675724          21.368         16.0142 
       0.691403         20.8764         15.2018 
       0.707174          19.963          14.441 
       0.722871         19.2712          13.735 
        0.73838         18.2524         13.0835 
       0.754018         17.2493         12.4692 
       0.769845         16.8139         11.8876 
        0.78569         16.2581         11.3425 
       0.801365         15.6125         10.8368 
       0.817031         14.9876         10.3623 
       0.832809         14.5245         9.91323 
       0.848511         14.0337         9.49272 
       0.864097         13.5574         9.09946 
       0.879701         13.3014         8.72808 
       0.895507         12.7754         8.37302 
       0.911279         12.2379         8.03841 
        0.92691         11.9713         7.72483 
       0.942635         11.6405         7.42622 
       0.958396         11.2404         7.14273 
       0.974128         10.9454         6.87452 
       0.989692         10.4119          6.6227 
        1.00528          10.327          6.3831 
        1.02113         9.96017         6.15159 
        1.03692          9.7303         5.93239 
        1.05264         9.48815         5.72486 
        1.06832          9.2637         5.52757 
        1.08405         8.99229         5.33904 
        1.09979         8.75815         5.15918 
        1.11537         8.50994         4.98937 
        1.13105         8.35053         4.82617 
        1.14679         8.15427         4.66964 
        1.16256         7.95875         4.51973 
        1.17828         7.77617         4.37689 
        1.19395         7.60895         4.24069 
         1.2097         7.36181         4.10958 
        1.22537         7.22079         3.98464 
          1.241         7.01949         3.86526 
        1.25666         6.97546         3.75046 
        1.27241         6.81698         3.63977 
        1.28819         6.53056         3.53336 
        1.30392         6.49598          3.4315 
        1.31957         6.31192          3.3341 
        1.33529         6.22191         3.24012 
        1.35108         6.08362         3.14937 
        1.36674         5.92223         3.06275 
         1.3824         5.84324         2.97945 
        1.39811         5.73287         2.89896 
        1.41389         5.58892         2.82113 
        1.42964         5.50458         2.74629 
        1.44531          5.3953         2.67451 
        1.46101         5.33452         2.60514 
        1.47667         5.21057         2.53843 
        1.49229         5.05564         2.47423 
        1.50793         4.99685         2.41217 
        1.52367         4.89596         2.35183 
        1.53953         4.81385         2.29315 
        1.55526          4.7562         2.23693 
        1.57092         4.65964         2.18282 
        1.58662         4.57692         2.13036 
        1.60235         4.51866         2.07953 
        1.61809         4.43864         2.03032 
        1.63369         4.34614         1.98313 
        1.64941         4.26805         1.93711 
        1.66519         4.22151         1.89237 
        1.68085         4.13779         1.84936 
        1.69652         4.08766         1.80767 
        1.71228         4.04219         1.76702 
        1.72806          3.9601         1.72759 
        1.74368         3.90606         1.68975 
        1.75933         3.84182         1.65297 
        1.77505         3.76493          1.6171 
        1.79081         3.72729         1.58223 
         1.8065         3.68826         1.54854 
        1.82218         3.62494         1.51585 
        1.83797         3.55034         1.48388 
        1.85367         3.50335         1.45301 
        1.86928         3.47202         1.42319 
        1.88497         3.40421         1.39405 
        1.90073         3.36564         1.36561 
        1.91647         3.30273         1.33799 
        1.93218         3.26778         1.31119 
        1.94787         3.22775         1.28516 
        1.96363         3.18868         1.25972 
        1.97935         3.14866         1.23503 
        1.99499          3.1059         1.21114 
        2.01064         3.06421         1.18784 
         2.0264         3.02719           1.165 
        2.04216         2.98138         1.14278 
        2.05781         2.94543         1.12127 
        2.07353         2.91806         1.10024 
        2.08928         2.86371         1.07969 
        2.10499         2.82866         1.05973 
        2.12065         2.82597         1.04033 
        2.13633          2.7819         1.02139 
        2.15211         2.72869         1.00281 
        2.16785         2.69766        0.984731 
        2.18349         2.67876        0.967212 
        2.19916         2.64441        0.950082 
        2.21489           2.619        0.933307 
        2.23063         2.57681        0.916925 
         2.2463         2.54313        0.901008 
        2.26194         2.51299        0.885507 
        2.27765         2.46885        0.870289 
        2.29341         2.44808        0.855388 
        2.30914         2.42302        0.840865 
        2.32486         2.40808        0.826685 
        2.34061         2.38052        0.812808 
        2.35635         2.35152         0.79926 
        2.37203         2.33945        0.786067 
        2.38768          2.3141        0.773197 
        2.40339         2.27035        0.760567 
        2.41914          2.2529        0.748189 
        2.43483         2.22361        0.736129 
         2.4505         2.20278        0.724354 
        2.46622          2.1826        0.712794 
        2.48195         2.16731        0.701485 
        2.49759         2.13324        0.690481 
        2.51328         2.11905        0.679683 
        2.52906         2.09356        0.669046 
        2.54479          2.0743        0.658676 
        2.56049         2.05214        0.648544 
        2.57618         2.03329        0.638634 
        2.59189         2.02588        0.628915 
        2.60758         2.00456        0.619412 
        2.62325         1.96449        0.610116 
        2.63898         1.95168        0.600978 
        2.65468         1.93135        0.592045 
        2.67044         1.92543        0.583254 
        2.68618         1.90761        0.574662 
        2.70184         1.88649        0.566276 
        2.71755         1.86271        0.558036 
        2.73329         1.84623        0.549946 
        2.74897         1.83153        0.542042 
        2.76462         1.81335         0.53431 
        2.78034          1.8016        0.526697 
        2.79607         1.78165        0.519223 
        2.81179         1.76601        0.511902 
        2.82749         1.74674        0.504729 
        2.84321         1.73357        0.497686 
        2.85893         1.71322        0.490778 
        2.87462         1.70703        0.484013 
        2.89033         1.69439        0.477368 
        2.90605         1.67787        0.470841 
        2.92176         1.65923         0.46444 
        2.93747         1.64861         0.45816 
        2.95318         1.63306        0.451994 
        2.96891         1.62524        0.445938 
        2.98456         1.60929         0.44002 
        3.00023          1.5968          0.4342 
        3.01596          1.5777        0.428466 
        3.03164         1.56748        0.422852 
        3.04738         1.55967        0.417321 
         3.0631         1.54467        0.411891 
        3.07883         1.53324        0.406557 
        3.09456         1.51728        0.401317 
        3.11026         1.50693        0.396178 
        3.12596         1.49514        0.391128 
        3.14163         1.48849        0.386178 
        3.15734         1.47183        0.381301 
        3.17308         1.46307        0.376497 
        3.18879         1.45552        0.371788 
        3.20447         1.43711        0.367166 
         3.2202         1.43341        0.362607 
         3.2359         1.42214        0.358134 
        3.25157         1.40705        0.353747 
        3.26729         1.39631        0.349419 
        3.28304         1.38684        0.345155 
        3.29877         1.37406        0.340967 
        3.31446         1.36624        0.336858 
        3.33014         1.35954         0.33282 
        3.34585         1.34581        0.328841 
        3.36158         1.33551        0.324921 
        3.37727         1.33231        0.321077 
        3.39294         1.31987        0.317298 
        3.40867         1.31505        0.313566 
        3.42439         1.30132        0.309896 
        3.44008         1.29063        0.306291 
        3.45578         1.28259        0.302741 
        3.47153         1.27624        0.299239 
        3.48724         1.26611        0.295798 
        3.50292         1.25395        0.292419 
        3.51859         1.25084        0.289094 
        3.53431          1.2395         0.28581 
        3.55007         1.23451        0.282569 
        3.56577         1.22555        0.279391 
        3.58146         1.21743        0.276263 
        3.59719          1.2101        0.273175 
        3.61292         1.20151        0.270135 
        3.62859         1.19302        0.267153 
        3.64429         1.18733        0.264209 
        3.66003         1.17902        0.261301 
        3.67578         1.17114        0.258437 
        3.69146         1.16191        0.255627 
        3.70712         1.15764        0.252864 
        3.72284         1.14768        0.250131 
        3.73853         1.13948        0.247442 
        3.75422         1.13496        0.244793 
        3.76993         1.12593        0.242179 
        3.78564         1.11719        0.239604 
        3.80137         1.11142        0.237063 
        3.81707         1.10184        0.234563 
        3.83279         1.10289        0.232098 
        3.84853         1.09253        0.229663 
        3.86424         1.08374        0.227268 
        3.87992         1.07916        0.224911 
        3.89561         1.07089        0.222586 
        3.91134         1.06437         0.22029 
        3.92704         1.05888        0.218029 
        3.94273         1.05447        0.215801 
        3.95845         1.04371          0.2136 
        3.97418         1.03776        0.211429 
        3.98988         1.03465        0.209291 
        4.00554         1.02629        0.207189 
        4.02125         1.01997        0.205109 
        4.03698         1.01218        0.203054 
        4.05268         1.00535        0.201032 
        4.06839        0.996788        0.199036 
         4.0841        0.991677        0.197067 
        4.09983        0.984726        0.195122 
        4.11555        0.977413        0.193205 
        4.13124          0.9709        0.191317 
        4.14693        0.963184        0.189454 
        4.16266        0.958742        0.187611 
        4.17839        0.951735        0.185793 
        4.19408        0.945705        0.184003 
        4.20977        0.940682        0.182236 
        4.22551        0.933871        0.180488 
        4.24123        0.927152        0.178764 
        4.25691        0.921508        0.177068 
        4.27259        0.915048        0.175393 
        4.28831        0.912513        0.173736 
        4.30404        0.903914        0.172098 
        4.31974        0.898204        0.170486 
        4.33543        0.893391        0.168895 
        4.35116        0.887777         0.16732 
        4.36688        0.883814        0.165765 
        4.38255        0.879781        0.164237 
        4.39825        0.873541        0.162724 
        4.41398         0.86867        0.161226 
         4.4297         0.86573         0.15975 
        4.44541        0.858511        0.158292 
        4.46111        0.853771        0.156853 
        4.47683        0.851422        0.155431 
        4.49251        0.845449        0.154029 
        4.50819        0.842398        0.152645 
         4.5239        0.837137        0.151276 
        4.53962        0.831433        0.149921 
        4.55535        0.829845        0.148583 
        4.57106        0.823706        0.147263 
        4.58678        0.822975        0.145958 
         4.6025        0.818571        0.144669 
        4.61821        0.815626        0.143396 
        4.63391        0.812698        0.142139 
         4.6496        0.804629        0.140898 
        4.66532        0.805183         0.13967 
        4.68103        0.799578        0.138457 
        4.69673        0.797986        0.137259 
        4.71241        0.792689        0.136077 
        4.72811        0.791761        0.134906 
        4.74384        0.788973        0.133748 
        4.75955        0.785672        0.132605 
        4.77525        0.781212        0.131476 
        4.79096        0.778364        0.130358 
        4.80669        0.775245        0.129253 
         4.8224        0.773276        0.128162 
        4.83809        0.772274        0.127085 
        4.85379        0.769108        0.126019 
         4.8695        0.764237        0.124965 
        4.88521        0.762703        0.123923 
        4.90093        0.761803        0.122892 
        4.91663        0.758551        0.121875 
        4.93234        0.754753        0.120867 
        4.94807        0.751579        0.119871 
        4.96377        0.750795        0.118887 
        4.97943        0.750067        0.117916 
        4.99514        0.749077        0.116954 
        5.01086        0.744257        0.116002 
        5.02654        0.741655        0.115062 
        5.04227        0.739211         0.11413 
          5.058        0.739917        0.113208 
        5.07371        0.737101        0.112298 
        5.08942        0.734884        0.111398 
        5.10513        0.735241        0.110507 
        5.12084        0.731545        0.109626 
        5.13656        0.729588        0.108755 
        5.15225        0.726075        0.107894 
        5.16796        0.724936        0.107041 
        5.18369        0.725042        0.106197 
         5.1994        0.723415        0.105363 
        5.21509        0.720138        0.104539 
        5.23079        0.720239        0.103722 
        5.24649        0.718858        0.102915 
        5.26217         0.71778        0.102117 
        5.27788        0.714572        0.101327 
        5.29359        0.715686        0.100544 
        5.30933        0.713986       0.0997686 
        5.32504        0.711869       0.0990027 
        5.34073        0.712038       0.0982455 
        5.35646        0.709273       0.0974947 
        5.37218        0.708199       0.0967516 
        5.38789        0.709024       0.0960173 
        5.40357        0.706572       0.0952915 
        5.41929         0.70771       0.0945716 
        5.43502         0.70369       0.0938589 
         5.4507        0.702312       0.0931553 
        5.46639        0.703815       0.0924587 
        5.48212        0.700862       0.0917676 
        5.49786        0.700856       0.0910826 
        5.51353        0.702217       0.0904081 
        5.52921        0.698179       0.0897396 
        5.54495        0.698271       0.0890759 
        5.56066        0.699107       0.0884196 
        5.57637        0.699195         0.08777 
        5.59207        0.696761       0.0871274 
        5.60778        0.697102        0.086491 
        5.62346        0.697012       0.0858617 
        5.63916         0.69613       0.0852382 
        5.65487        0.695081       0.0846204 
         5.6706        0.692745        0.084008 
        5.68633        0.693562       0.0834014 
        5.70203        0.691813        0.082802 
        5.71773        0.691961       0.0822086 
        5.73344        0.690905       0.0816207 
        5.74916        0.690874       0.0810379 
        5.76486         0.68991       0.0804615 
        5.78054         0.69026       0.0798917 
        5.79626        0.689592       0.0793257 
          5.812        0.688258       0.0787646 
         5.8277        0.688664       0.0782105 
        5.84339        0.689839       0.0776618 
        5.85911        0.687299       0.0771172 
        5.87484         0.68808       0.0765779 
        5.89053        0.686008       0.0760448 
        5.90623        0.685956       0.0755165 
        5.92195        0.685463       0.0749923 
        5.93767        0.686392       0.0744733 
        5.95336        0.684768       0.0739601 
        5.96905        0.685009       0.0734519 
        5.98476        0.683552       0.0729477 
        6.00048        0.685827        0.072448 
        6.01617        0.682737       0.0719536 
        6.03185        0.683093       0.0714645 
        6.04756        0.684467       0.0709787 
        6.06331        0.682796       0.0704963 
        6.07903        0.683366       0.0700194 
        6.09473        0.682766       0.0695474 
        6.11044        0.682936       0.0690792 
        6.12616        0.681778       0.0686154 
        6.14186         0.68075       0.0681563 
        6.15755        0.681062       0.0677015 
        6.17326        0.680885       0.0672503 
        6.18898        0.680466       0.0668031 
        6.20467        0.679269       0.0663607 
        6.22036        0.678273       0.0659223 
         6.2361        0.679526       0.0654867 
         6.2518        0.679656       0.0650557 
        6.26748        0.678439       0.0646295 
        6.28319        0.678956       0.0642059 
        6.29893        0.676312       0.0637857 
        6.31463        0.678462         0.06337 
        6.33033        0.677228       0.0629581 
        6.34604         0.67777       0.0625496 
        6.36177        0.677043       0.0621442 
        6.37747        0.676106       0.0617432 
