# k  (h/Mpc)    Pcb(k)  (Mpc/h)^3    Pcb_linear(k) (Mpc/h)^3   ShotnoiseSubtracted = true
      0.0200456          8284.1         8390.36 
      0.0350414         5834.01         5675.45 
      0.0492313            4028         4040.64 
      0.0637834          3232.8         3325.06 
      0.0800726         2445.99            2518 
       0.096163         1850.91         1777.55 
       0.111083         1520.67         1447.59 
       0.126058         1273.57          1279.4 
       0.142273         1049.89         1032.57 
       0.158546         849.249         805.112 
        0.17375         748.891         698.787 
       0.188953           684.2         630.008 
       0.204907         567.951         535.873 
       0.220756         503.241         449.042 
        0.23588         448.923         399.707 
         0.2514         401.243          363.15 
       0.267535         379.649         319.666 
       0.283568         328.645         279.332 
       0.299022         310.875         252.183 
       0.314451          304.69         230.913 
       0.330372         261.681         208.376 
       0.346141         241.063         187.545 
       0.361624         227.293         171.417 
       0.377134         208.838         158.003 
       0.392932         202.095         144.953 
       0.408854          190.52         132.703 
       0.424564         181.748         122.444 
       0.440253         164.026         113.598 
       0.455999         153.616         105.366 
       0.471626         150.168         97.8031 
        0.48727         143.633         91.0706 
       0.502856         130.876         85.1157 
       0.518488         129.239         79.6197 
       0.534347         120.441         74.4723 
       0.550082         117.398         69.8299 
       0.565732          114.89          65.645 
       0.581496         105.498         61.7643 
       0.597222         102.989         58.1854 
       0.612804         99.1014         54.9157 
       0.628434         96.4612         51.9009 
       0.644267         91.2018         49.0811 
       0.660051         88.4226         46.4755 
       0.675724         86.5735         44.0727 
       0.691403         84.4376         41.8369 
       0.707174         81.2189         39.7429 
       0.722871         79.5833         37.7999 
        0.73838         77.3008          36.007 
       0.754018         72.5809         34.3165 
       0.769845          72.044         32.7158 
        0.78569          69.815         31.2155 
       0.801365          67.424          29.824 
       0.817031         65.1889         28.5182 
       0.832809         63.8481         27.2822 
       0.848511         62.3741         26.1249 
       0.864097          61.111         25.0426 
       0.879701         59.7706         24.0205 
       0.895507         57.5164         23.0433 
       0.911279         56.4677         22.1225 
        0.92691         55.0449         21.2595 
       0.942635         53.6545         20.4377 
       0.958396          53.525         19.6575 
       0.974128         52.1412         18.9194 
       0.989692         50.6832         18.2263 
        1.00528         49.6728         17.5669 
        1.02113         48.5124         16.9298 
        1.03692         48.2837         16.3265 
        1.05264         47.2176         15.7554 
        1.06832         45.8793         15.2124 
        1.08405         45.0806         14.6936 
        1.09979         44.7229         14.1986 
        1.11537         43.4771         13.7312 
        1.13105         42.4457         13.2821 
        1.14679         41.9575         12.8513 
        1.16256         41.2653         12.4387 
        1.17828         40.8127         12.0456 
        1.19395         39.6231         11.6708 
         1.2097         39.6501           11.31 
        1.22537         38.5612         10.9661 
          1.241         38.2013         10.6376 
        1.25666         37.1079         10.3216 
        1.27241         37.0056          10.017 
        1.28819         36.2175         9.72415 
        1.30392         35.6248         9.44383 
        1.31957         35.3977         9.17577 
        1.33529         34.7625         8.91712 
        1.35108         34.1468         8.66738 
        1.36674         33.5791         8.42897 
         1.3824          33.071         8.19973 
        1.39811         32.4972         7.97822 
        1.41389         32.0545         7.76403 
        1.42964          31.858         7.55804 
        1.44531         31.1812         7.36051 
        1.46101         30.9047          7.1696 
        1.47667         30.4943         6.98601 
        1.49229         29.9304         6.80932 
        1.50793         29.7305         6.63852 
        1.52367         29.1514         6.47247 
        1.53953         29.0284         6.31096 
        1.55526         28.4739         6.15624 
        1.57092         28.1816         6.00732 
        1.58662          27.768         5.86297 
        1.60235         27.3872         5.72306 
        1.61809         27.0789         5.58764 
        1.63369         26.7475         5.45778 
        1.64941         26.3726         5.33111 
        1.66519         26.0543         5.20799 
        1.68085         25.6431         5.08962 
        1.69652         25.3497         4.97488 
        1.71228         25.2423         4.86302 
        1.72806          24.813          4.7545 
        1.74368         24.4202         4.65036 
        1.75933         24.3027         4.54913 
        1.77505         24.0569         4.45042 
        1.79081         23.7264         4.35446 
         1.8065         23.4314         4.26173 
        1.82218         23.1158         4.17177 
        1.83797          22.988         4.08379 
        1.85367         22.6509         3.99882 
        1.86928         22.6167         3.91676 
        1.88497         22.1675         3.83656 
        1.90073         22.0024          3.7583 
        1.91647         21.7557         3.68228 
        1.93218         21.6538         3.60851 
        1.94787         21.3686         3.53687 
        1.96363         21.0637         3.46688 
        1.97935         20.8484         3.39893 
        1.99499         20.7095         3.33317 
        2.01064         20.3696         3.26905 
         2.0264         20.2461          3.2062 
        2.04216         20.1565         3.14504 
        2.05781         19.8587         3.08584 
        2.07353         19.6713         3.02796 
        2.08928          19.388         2.97142 
        2.10499         19.1873         2.91648 
        2.12065         19.0006         2.86308 
        2.13633         18.8836         2.81097 
        2.15211         18.5754         2.75982 
        2.16785         18.5366         2.71007 
        2.18349         18.3093         2.66186 
        2.19916         18.1277         2.61472 
        2.21489         17.8932         2.56855 
        2.23063         17.7994         2.52347 
         2.2463         17.6153         2.47966 
        2.26194         17.3847           2.437 
        2.27765           17.23         2.39512 
        2.29341         16.9897         2.35411 
        2.30914         16.8618         2.31414 
        2.32486         16.7679         2.27512 
        2.34061         16.5652         2.23693 
        2.35635         16.3563         2.19964 
        2.37203         16.2564         2.16333 
        2.38768         16.0799         2.12791 
        2.40339         16.0243         2.09316 
        2.41914         15.8592         2.05909 
        2.43483         15.7181          2.0259 
         2.4505         15.4644         1.99349 
        2.46622         15.3684         1.96168 
        2.48195         15.2311         1.93056 
        2.49759         15.0274         1.90027 
        2.51328         14.9087         1.87055 
        2.52906         14.7983         1.84128 
        2.54479         14.6707         1.81274 
        2.56049         14.5458         1.78486 
        2.57618         14.4578         1.75758 
        2.59189         14.2577         1.73083 
        2.60758         14.0892         1.70468 
        2.62325         13.9891          1.6791 
        2.63898           13.93         1.65395 
        2.65468          13.757         1.62936 
        2.67044         13.6212         1.60517 
        2.68618         13.4848         1.58152 
        2.70184         13.3847         1.55845 
        2.71755          13.234         1.53577 
        2.73329          13.155          1.5135 
        2.74897          13.032         1.49175 
        2.76462         12.9318         1.47047 
        2.78034         12.7806         1.44952 
        2.79607         12.6957         1.42895 
        2.81179         12.6208          1.4088 
        2.82749         12.4639         1.38906 
        2.84321         12.3822         1.36968 
        2.85893         12.2273         1.35067 
        2.87462          12.142         1.33205 
        2.89033         12.0371         1.31376 
        2.90605          11.932          1.2958 
        2.92176         11.8316         1.27818 
        2.93747         11.7461          1.2609 
        2.95318         11.6453         1.24393 
        2.96891         11.5183         1.22727 
        2.98456         11.4458         1.21098 
        3.00023         11.3573         1.19496 
        3.01596         11.2807         1.17918 
        3.03164         11.1667         1.16373 
        3.04738         11.0656         1.14851 
         3.0631         10.9496         1.13356 
        3.07883         10.8844         1.11888 
        3.09456         10.7628         1.10446 
        3.11026         10.6947         1.09032 
        3.12596         10.6308         1.07642 
        3.14163         10.5043          1.0628 
        3.15734          10.438         1.04938 
        3.17308         10.3774         1.03616 
        3.18879         10.2497          1.0232 
        3.20447         10.2183         1.01048 
         3.2202         10.0892        0.997931 
         3.2359         10.0021         0.98562 
        3.25157         9.95136        0.973546 
        3.26729         9.83076        0.961635 
        3.28304         9.75757          0.9499 
        3.29877         9.73011        0.938375 
        3.31446         9.61718        0.927066 
        3.33014         9.57234        0.915952 
        3.34585         9.43265        0.905002 
        3.36158         9.38358        0.894213 
        3.37727         9.32226        0.883634 
        3.39294         9.24242        0.873234 
        3.40867         9.15822        0.862964 
        3.42439          9.0817        0.852863 
        3.44008         9.02413        0.842943 
        3.45578          8.9318        0.833172 
        3.47153         8.87565        0.823534 
        3.48724         8.81032        0.814065 
        3.50292         8.73411        0.804766 
        3.51859          8.6721        0.795615 
        3.53431         8.58612        0.786578 
        3.55007         8.52609        0.777659 
        3.56577         8.42409        0.768911 
        3.58146         8.36999        0.760302 
        3.59719         8.29511        0.751804 
        3.61292         8.26799        0.743438 
        3.62859         8.19559         0.73523 
        3.64429         8.12093         0.72713 
        3.66003         8.04871        0.719126 
        3.67578         8.00466        0.711245 
        3.69146          7.9395        0.703511 
        3.70712          7.8693        0.695906 
        3.72284         7.81295        0.688384 
        3.73853         7.76404        0.680986 
        3.75422         7.70385        0.673693 
        3.76993         7.62542          0.6665 
        3.78564         7.59384        0.659415 
        3.80137          7.5178         0.65242 
        3.81707         7.43729        0.645541 
        3.83279         7.38696        0.638755 
        3.84853         7.34181        0.632055 
        3.86424         7.27063        0.625464 
        3.87992         7.25341        0.618976 
        3.89561         7.17813         0.61258 
        3.91134         7.11729         0.60626 
        3.92704         7.07455        0.600036 
        3.94273         7.01988        0.593905 
        3.95845         6.94491        0.587848 
        3.97418         6.90873        0.581874 
        3.98988          6.8673         0.57599 
        4.00554         6.79584        0.570204 
        4.02125         6.76095         0.56448 
        4.03698         6.71543        0.558825 
        4.05268         6.64108         0.55326 
        4.06839         6.58489        0.547766 
         4.0841         6.54299        0.542349 
        4.09983         6.47821        0.536996 
        4.11555         6.42672        0.531718 
        4.13124         6.38266        0.526524 
        4.14693         6.33146        0.521395 
        4.16266         6.29881        0.516322 
        4.17839         6.23087         0.51132 
        4.19408         6.21463        0.506394 
        4.20977         6.13447        0.501531 
        4.22551         6.11648         0.49672 
        4.24123         6.06451        0.491977 
        4.25691         6.02142        0.487308 
        4.27259         5.95951        0.482698 
        4.28831         5.92139        0.478138 
        4.30404         5.87945        0.473632 
        4.31974         5.82978        0.469193 
        4.33543         5.77496        0.464814 
        4.35116         5.73886         0.46048 
        4.36688         5.70017        0.456203 
        4.38255          5.6755        0.451995 
        4.39825         5.61703        0.447831 
        4.41398         5.55804        0.443711 
         4.4297         5.53021        0.439647 
        4.44541         5.49978        0.435634 
        4.46111         5.46606        0.431674 
        4.47683         5.42907         0.42776 
        4.49251         5.38504        0.423903 
        4.50819         5.33143        0.420093 
         4.5239         5.29046        0.416325 
        4.53962         5.26942        0.412598 
        4.55535         5.21858        0.408915 
        4.57106         5.19234        0.405282 
        4.58678         5.14376        0.401691 
         4.6025         5.10737        0.398143 
        4.61821         5.07975        0.394639 
        4.63391         5.04043        0.391181 
         4.6496         5.00767        0.387765 
        4.66532         4.96525        0.384385 
        4.68103          4.9352        0.381046 
        4.69673         4.90521         0.37775 
        4.71241         4.86746        0.374496 
        4.72811         4.82844        0.371275 
        4.74384         4.80702        0.368087 
        4.75955         4.76186        0.364941 
        4.77525         4.73194        0.361834 
        4.79096         4.70653        0.358759 
        4.80669         4.66567        0.355717 
         4.8224          4.6331        0.352715 
        4.83809          4.5941         0.34975 
        4.85379         4.56964        0.346817 
         4.8695         4.53771        0.343915 
        4.88521         4.51016        0.341047 
        4.90093         4.47084        0.338212 
        4.91663         4.44136        0.335411 
        4.93234         4.41251        0.332639 
        4.94807         4.38363        0.329896 
        4.96377         4.34786        0.327188 
        4.97943         4.32295        0.324517 
        4.99514         4.30169        0.321869 
        5.01086         4.26645        0.319248 
        5.02654         4.23086        0.316662 
        5.04227         4.21242        0.314098 
          5.058         4.17279         0.31156 
        5.07371         4.14893        0.309056 
        5.08942         4.12927        0.306578 
        5.10513         4.09364        0.304127 
        5.12084         4.08081        0.301702 
        5.13656         4.03631        0.299303 
        5.15225         4.01316        0.296934 
        5.16796         3.98901        0.294587 
        5.18369         3.95603        0.292263 
         5.1994         3.93183        0.289969 
        5.21509         3.91763          0.2877 
        5.23079         3.88464        0.285454 
        5.24649         3.85774        0.283233 
        5.26217         3.83524        0.281037 
        5.27788         3.81368         0.27886 
        5.29359         3.78294        0.276707 
        5.30933         3.76413        0.274573 
        5.32504         3.73286        0.272465 
        5.34073         3.71489        0.270381 
        5.35646         3.69907        0.268315 
        5.37218         3.66378         0.26627 
        5.38789         3.64293        0.264249 
        5.40357         3.61315        0.262252 
        5.41929          3.5892         0.26027 
        5.43502         3.57437        0.258309 
         5.4507         3.54556        0.256372 
        5.46639         3.52264        0.254455 
        5.48212         3.51049        0.252553 
        5.49786         3.47933        0.250668 
        5.51353         3.45872        0.248812 
        5.52921         3.43832        0.246972 
        5.54495         3.42205        0.245146 
        5.56066         3.39712        0.243339 
        5.57637         3.36933        0.241551 
        5.59207         3.35579        0.239783 
        5.60778         3.33051        0.238032 
        5.62346         3.31655          0.2363 
        5.63916         3.29593        0.234584 
        5.65487         3.27188        0.232884 
         5.6706         3.25285        0.231198 
        5.68633         3.22886        0.229529 
        5.70203         3.21428        0.227879 
        5.71773         3.19698        0.226246 
        5.73344         3.17996        0.224628 
        5.74916          3.1516        0.223024 
        5.76486         3.13463        0.221438 
        5.78054          3.1127         0.21987 
        5.79626         3.09872        0.218312 
          5.812         3.08113        0.216768 
         5.8277         3.05424        0.215243 
        5.84339          3.0436        0.213733 
        5.85911         3.02597        0.212234 
        5.87484         3.00323         0.21075 
        5.89053         2.98706        0.209283 
        5.90623         2.97169        0.207829 
        5.92195         2.95425        0.206386 
        5.93767         2.93271        0.204958 
        5.95336         2.92022        0.203545 
        5.96905         2.89792        0.202147 
        5.98476         2.88187        0.200759 
        6.00048         2.86877        0.199384 
        6.01617         2.84689        0.198023 
        6.03185         2.83843        0.196677 
        6.04756         2.81665         0.19534 
        6.06331         2.80521        0.194013 
        6.07903          2.7822          0.1927 
        6.09473         2.76752        0.191401 
        6.11044         2.74985        0.190113 
        6.12616         2.73917        0.188836 
        6.14186         2.71971        0.187573 
        6.15755         2.70662        0.186321 
        6.17326         2.69061        0.185079 
        6.18898         2.67011        0.183849 
        6.20467         2.66113        0.182631 
        6.22036         2.64394        0.181425 
         6.2361         2.62848        0.180226 
         6.2518         2.61495         0.17904 
        6.26748          2.6028        0.177867 
        6.28319         2.59001        0.176701 
        6.29893         2.57498        0.175545 
        6.31463          2.5579          0.1744 
        6.33033         2.54422        0.173267 
        6.34604         2.53134        0.172142 
        6.36177         2.51751        0.171027 
        6.37747         2.50094        0.169923 
