# k  (h/Mpc)    Pcb(k)  (Mpc/h)^3    Pcb_linear(k) (Mpc/h)^3   ShotnoiseSubtracted = true
      0.0200456         759.192         768.094 
      0.0350414         526.776         519.558 
      0.0492313         371.326         369.899 
      0.0637834         301.517         304.392 
      0.0800726         228.574          230.51 
       0.096163         165.452         162.725 
       0.111083         134.773         132.519 
       0.126058         116.368         117.122 
       0.142273         94.1486          94.526 
       0.158546         74.3463         73.7038 
        0.17375         64.8323         63.9703 
       0.188953         57.9978         57.6739 
       0.204907         48.4701         49.0563 
       0.220756         41.5295         41.1074 
        0.23588          36.869          36.591 
         0.2514         33.4462         33.2445 
       0.267535         29.7209         29.2638 
       0.283568         25.9522         25.5714 
       0.299022         23.5125          23.086 
       0.314451         21.8572         21.1388 
       0.330372         19.5208         19.0758 
       0.346141          17.609         17.1687 
       0.361624         16.0512         15.6923 
       0.377134         14.7268         14.4644 
       0.392932         13.9101         13.2697 
       0.408854         12.4985         12.1482 
       0.424564         11.7926         11.2091 
       0.440253         10.7907         10.3993 
       0.455999         9.86797          9.6457 
       0.471626         9.20073         8.95336 
        0.48727          8.7687         8.33703 
       0.502856         8.21056         7.79189 
       0.518488         7.53896         7.28876 
       0.534347         7.02071         6.81755 
       0.550082         6.70527         6.39256 
       0.565732         6.38219         6.00945 
       0.581496         5.97049          5.6542 
       0.597222         5.61063         5.32657 
       0.612804         5.27187         5.02724 
       0.628434         5.04357         4.75125 
       0.644267         4.78261         4.49312 
       0.660051         4.52142         4.25459 
       0.675724         4.25776         4.03463 
       0.691403         4.07637         3.82995 
       0.707174         3.86766         3.63826 
       0.722871         3.76008         3.46038 
        0.73838         3.50213         3.29625 
       0.754018         3.33684         3.14149 
       0.769845         3.15789         2.99496 
        0.78569         3.06634         2.85762 
       0.801365         2.92933         2.73023 
       0.817031         2.81482         2.61069 
       0.832809         2.66362         2.49754 
       0.848511         2.57637          2.3916 
       0.864097         2.47775         2.29252 
       0.879701         2.39916         2.19895 
       0.895507         2.27835          2.1095 
       0.911279         2.20122          2.0252 
        0.92691         2.13172         1.94619 
       0.942635         2.02258         1.87096 
       0.958396         1.95777         1.79954 
       0.974128         1.89384         1.73197 
       0.989692         1.81157         1.66852 
        1.00528         1.75415         1.60816 
        1.02113         1.70204         1.54983 
        1.03692         1.65509         1.49461 
        1.05264         1.57662         1.44232 
        1.06832         1.53204         1.39262 
        1.08405         1.47308         1.34512 
        1.09979         1.43534          1.2998 
        1.11537          1.3838         1.25702 
        1.13105         1.32991         1.21591 
        1.14679         1.29714         1.17647 
        1.16256         1.25377          1.1387 
        1.17828         1.22751         1.10271 
        1.19395         1.18144          1.0684 
         1.2097         1.14401         1.03537 
        1.22537         1.10434         1.00389 
          1.241         1.07778        0.973812 
        1.25666         1.05536         0.94489 
        1.27241         1.02288        0.917005 
        1.28819        0.983318        0.890195 
        1.30392        0.958886        0.864533 
        1.31957        0.937092        0.839994 
        1.33529        0.900247        0.816315 
        1.35108        0.880341        0.793453 
        1.36674        0.854679        0.771628 
         1.3824        0.841365        0.750642 
        1.39811        0.814334        0.730364 
        1.41389        0.792827        0.710756 
        1.42964           0.771        0.691899 
        1.44531        0.752979        0.673816 
        1.46101        0.729799        0.656339 
        1.47667        0.716057        0.639532 
        1.49229        0.690916        0.623357 
        1.50793        0.675409        0.607722 
        1.52367        0.658035         0.59252 
        1.53953        0.640212        0.577735 
        1.55526        0.630172        0.563571 
        1.57092        0.619216        0.549939 
        1.58662        0.606535        0.536724 
        1.60235        0.586353        0.523916 
        1.61809        0.572498        0.511519 
        1.63369        0.555831        0.499631 
        1.64941        0.546931        0.488035 
        1.66519        0.536204        0.476764 
        1.68085        0.520944        0.465928 
        1.69652        0.509629        0.455424 
        1.71228        0.496932        0.445184 
        1.72806        0.487671        0.435249 
        1.74368        0.476981        0.425716 
        1.75933        0.467845        0.416449 
        1.77505        0.458954        0.407413 
        1.79081        0.443498        0.398628 
         1.8065        0.439636        0.390139 
        1.82218        0.426715        0.381904 
        1.83797        0.414978        0.373849 
        1.85367        0.411093        0.366071 
        1.86928         0.40123        0.358559 
        1.88497        0.390953        0.351217 
        1.90073        0.386659        0.344052 
        1.91647        0.375938        0.337093 
        1.93218        0.369681         0.33034 
        1.94787        0.361916        0.323782 
        1.96363        0.355258        0.317375 
        1.97935        0.347218        0.311154 
        1.99499        0.341261        0.305134 
        2.01064        0.334358        0.299264 
         2.0264        0.326137        0.293511 
        2.04216        0.320627        0.287911 
        2.05781        0.315438        0.282493 
        2.07353         0.30865        0.277194 
        2.08928        0.304277        0.272018 
        2.10499        0.297398        0.266988 
        2.12065        0.292005          0.2621 
        2.13633        0.287119         0.25733 
        2.15211         0.28066        0.252647 
        2.16785        0.276542        0.248093 
        2.18349         0.27148        0.243679 
        2.19916        0.266207        0.239364 
        2.21489         0.26073        0.235137 
        2.23063        0.256172         0.23101 
         2.2463         0.25194           0.227 
        2.26194        0.248121        0.223095 
        2.27765         0.24345        0.219261 
        2.29341        0.238858        0.215506 
        2.30914        0.233573        0.211847 
        2.32486        0.230234        0.208275 
        2.34061        0.225749        0.204779 
        2.35635        0.222264        0.201366 
        2.37203        0.219908        0.198042 
        2.38768        0.215731        0.194799 
        2.40339        0.211658        0.191617 
        2.41914        0.208665        0.188499 
        2.43483         0.20464         0.18546 
         2.4505        0.201162        0.182494 
        2.46622        0.198111        0.179581 
        2.48195        0.194207        0.176732 
        2.49759        0.192787         0.17396 
        2.51328        0.188203        0.171239 
        2.52906         0.18526         0.16856 
        2.54479        0.182175        0.165947 
        2.56049        0.179062        0.163394 
        2.57618        0.177197        0.160897 
        2.59189        0.173475        0.158449 
        2.60758        0.171782        0.156055 
        2.62325        0.169048        0.153713 
        2.63898        0.166768         0.15141 
        2.65468        0.162807         0.14916 
        2.67044        0.160754        0.146945 
        2.68618        0.158444         0.14478 
        2.70184        0.156058        0.142668 
        2.71755        0.153353        0.140591 
        2.73329        0.152152        0.138553 
        2.74897        0.148768        0.136562 
        2.76462        0.147323        0.134614 
        2.78034         0.14479        0.132696 
        2.79607        0.143149        0.130813 
        2.81179        0.139772        0.128969 
        2.82749        0.138734        0.127162 
        2.84321        0.136779        0.125387 
        2.85893        0.134431        0.123647 
        2.87462        0.132446        0.121942 
        2.89033        0.130767        0.120268 
        2.90605         0.12893        0.118624 
        2.92176        0.127688        0.117011 
        2.93747        0.125435        0.115429 
        2.95318        0.123842        0.113875 
        2.96891        0.122438         0.11235 
        2.98456        0.120936        0.110859 
        3.00023        0.118871        0.109392 
        3.01596        0.117331        0.107948 
        3.03164        0.115511        0.106533 
        3.04738        0.114427         0.10514 
         3.0631        0.112897        0.103772 
        3.07883        0.111193        0.102428 
        3.09456        0.109977        0.101108 
        3.11026        0.108261        0.099813 
        3.12596        0.106673       0.0985408 
        3.14163         0.10564       0.0972937 
        3.15734        0.104675       0.0960651 
        3.17308        0.103141       0.0948546 
        3.18879        0.101798       0.0936682 
        3.20447        0.100327       0.0925037 
         3.2202       0.0995638       0.0913553 
         3.2359       0.0980392       0.0902283 
        3.25157       0.0965966        0.089123 
        3.26729       0.0959396       0.0880327 
        3.28304       0.0948718       0.0869584 
        3.29877       0.0932863       0.0859033 
        3.31446       0.0927133        0.084868 
        3.33014       0.0915559       0.0838506 
        3.34585       0.0900911       0.0828481 
        3.36158       0.0891959       0.0818605 
        3.37727       0.0884838        0.080892 
        3.39294       0.0874974         0.07994 
        3.40867       0.0862829       0.0789998 
        3.42439       0.0856737       0.0780751 
        3.44008       0.0848118        0.077167 
        3.45578       0.0837911       0.0762725 
        3.47153       0.0830252       0.0753902 
        3.48724       0.0821906       0.0745234 
        3.50292       0.0815124       0.0736721 
        3.51859       0.0804242       0.0728344 
        3.53431       0.0796139       0.0720071 
        3.55007        0.078911       0.0711905 
        3.56577       0.0784106       0.0703898 
        3.58146       0.0773626       0.0696016 
        3.59719       0.0765997       0.0688237 
        3.61292       0.0758111       0.0680578 
        3.62859       0.0753656       0.0673064 
        3.64429       0.0742365       0.0665649 
        3.66003       0.0740468       0.0658322 
        3.67578       0.0732577       0.0651107 
        3.69146       0.0725679       0.0644027 
        3.70712       0.0718677       0.0637065 
        3.72284       0.0713177       0.0630179 
        3.73853       0.0707143       0.0623407 
        3.75422       0.0699711        0.061673 
        3.76993       0.0694816       0.0610146 
        3.78564       0.0689748       0.0603659 
        3.80137       0.0685162       0.0597256 
        3.81707       0.0675355       0.0590959 
        3.83279       0.0671675       0.0584747 
        3.84853       0.0665664       0.0578613 
        3.86424       0.0660214        0.057258 
        3.87992       0.0654897        0.056664 
        3.89561       0.0649903       0.0560784 
        3.91134       0.0643469       0.0554999 
        3.92704       0.0636916       0.0549301 
        3.94273       0.0631382       0.0543689 
        3.95845       0.0625184       0.0538144 
        3.97418       0.0622138       0.0532675 
        3.98988       0.0612413       0.0527289 
        4.00554       0.0608785       0.0521992 
        4.02125        0.060218       0.0516751 
        4.03698       0.0593132       0.0511575 
        4.05268       0.0587625        0.050648 
        4.06839       0.0579212       0.0501451 
         4.0841       0.0570135       0.0496492 
        4.09983       0.0563458       0.0491592 
        4.11555       0.0555362       0.0486759 
        4.13124       0.0548696       0.0482005 
        4.14693       0.0541105        0.047731 
        4.16266        0.053493       0.0472666 
        4.17839       0.0528455       0.0468086 
        4.19408       0.0520526       0.0463577 
        4.20977       0.0515058       0.0459125 
        4.22551        0.050959       0.0454721 
        4.24123       0.0503878       0.0450379 
        4.25691       0.0499376       0.0446105 
        4.27259       0.0493699       0.0441884 
        4.28831       0.0490794        0.043771 
        4.30404       0.0483186       0.0433585 
        4.31974       0.0479238       0.0429522 
        4.33543       0.0476048       0.0425513 
        4.35116       0.0472223       0.0421545 
        4.36688       0.0468053       0.0417629 
        4.38255       0.0464325       0.0413778 
        4.39825       0.0461581       0.0409966 
        4.41398       0.0456587       0.0406194 
         4.4297       0.0454786       0.0402474 
        4.44541       0.0451732         0.03988 
        4.46111       0.0448986       0.0395175 
        4.47683       0.0446399       0.0391592 
        4.49251        0.044454       0.0388061 
        4.50819       0.0443189       0.0384573 
         4.5239       0.0440072       0.0381124 
        4.53962       0.0438873       0.0377712 
        4.55535       0.0437735        0.037434 
        4.57106       0.0435748       0.0371014 
        4.58678       0.0435424       0.0367727 
         4.6025       0.0434493       0.0364479 
        4.61821       0.0434863       0.0361271 
        4.63391       0.0433434       0.0358105 
         4.6496       0.0432515       0.0354978 
        4.66532       0.0432728       0.0351884 
        4.68103       0.0432651       0.0348828 
        4.69673       0.0432309        0.034581 
        4.71241       0.0434201       0.0342831 
        4.72811       0.0433156       0.0339882 
        4.74384       0.0433286       0.0336964 
        4.75955        0.043468       0.0334084 
        4.77525       0.0435679        0.033124 
        4.79096       0.0437525       0.0328425 
        4.80669       0.0437212       0.0325641 
         4.8224       0.0439696       0.0322892 
        4.83809          0.0441       0.0320178 
        4.85379       0.0443221       0.0317493 
         4.8695       0.0445143       0.0314836 
        4.88521         0.04474       0.0312211 
        4.90093       0.0451114       0.0309615 
        4.91663       0.0453037       0.0307051 
        4.93234         0.04549       0.0304513 
        4.94807       0.0458229       0.0302002 
        4.96377       0.0461368       0.0299524 
        4.97943       0.0467264       0.0297078 
        4.99514       0.0469035       0.0294654 
        5.01086       0.0471801       0.0292254 
        5.02654       0.0477724       0.0289888 
        5.04227       0.0480946        0.028754 
          5.058       0.0484878       0.0285217 
        5.07371        0.048989       0.0282924 
        5.08942        0.049676       0.0280656 
        5.10513       0.0501074       0.0278412 
        5.12084       0.0505383       0.0276192 
        5.13656        0.051048       0.0273996 
        5.15225       0.0518546       0.0271828 
        5.16796       0.0523435       0.0269679 
        5.18369       0.0529798       0.0267552 
         5.1994       0.0535562       0.0265451 
        5.21509       0.0543517       0.0263375 
        5.23079       0.0550646       0.0261318 
        5.24649       0.0558307       0.0259285 
        5.26217       0.0566087       0.0257274 
        5.27788        0.057388       0.0255282 
        5.29359       0.0582812       0.0253311 
        5.30933       0.0590312       0.0251357 
        5.32504       0.0599053       0.0249427 
        5.34073       0.0605821        0.024752 
        5.35646       0.0617521       0.0245628 
        5.37218       0.0625963       0.0243756 
        5.38789       0.0637266       0.0241906 
        5.40357        0.064634       0.0240077 
        5.41929        0.065704       0.0238264 
        5.43502       0.0671036       0.0236468 
         5.4507       0.0679665       0.0234695 
        5.46639       0.0691524        0.023294 
        5.48212       0.0701406       0.0231199 
        5.49786       0.0715674       0.0229474 
        5.51353       0.0732686       0.0227774 
        5.52921       0.0739093        0.022609 
        5.54495       0.0757956       0.0224418 
        5.56066        0.077007       0.0222764 
        5.57637       0.0783155       0.0221128 
        5.59207       0.0794529       0.0219509 
        5.60778       0.0811591       0.0217905 
        5.62346        0.082801        0.021632 
        5.63916       0.0843142       0.0214749 
        5.65487       0.0866096       0.0213193 
         5.6706       0.0873804        0.021165 
        5.68633       0.0895534       0.0210122 
        5.70203       0.0914094       0.0208611 
        5.71773        0.093223       0.0207116 
        5.73344       0.0953516       0.0205635 
        5.74916       0.0973733       0.0204167 
        5.76486       0.0990828       0.0202715 
        5.78054          0.1011       0.0201279 
        5.79626        0.103421       0.0199853 
          5.812        0.105376        0.019844 
         5.8277        0.107545       0.0197044 
        5.84339        0.109757       0.0195661 
        5.85911        0.111831       0.0194289 
        5.87484        0.114179        0.019293 
        5.89053        0.116706       0.0191587 
        5.90623         0.12008       0.0190256 
        5.92195        0.121536       0.0188936 
        5.93767        0.124357       0.0187628 
        5.95336         0.12735       0.0186335 
        5.96905        0.130421       0.0185055 
        5.98476        0.132396       0.0183784 
        6.00048        0.135467       0.0182525 
        6.01617        0.138274        0.018128 
        6.03185        0.141215       0.0180048 
        6.04756        0.143602       0.0178824 
        6.06331        0.147891       0.0177608 
        6.07903          0.1512       0.0176407 
        6.09473        0.153436       0.0175218 
        6.11044        0.158792       0.0174038 
        6.12616        0.159569        0.017287 
        6.14186        0.164155       0.0171713 
        6.15755        0.167721       0.0170567 
        6.17326        0.171816        0.016943 
        6.18898        0.174572       0.0168304 
        6.20467        0.178744       0.0167189 
        6.22036        0.182338       0.0166085 
         6.2361        0.184404       0.0164987 
         6.2518        0.190181       0.0163901 
        6.26748        0.194873       0.0162828 
        6.28319        0.199275        0.016176 
        6.29893        0.203072       0.0160702 
        6.31463        0.207475       0.0159654 
        6.33033        0.210194       0.0158617 
        6.34604        0.215504       0.0157587 
        6.36177        0.219859       0.0156566 
        6.37747        0.224063       0.0155556 
