# k  (h/Mpc)    Pcb(k)  (Mpc/h)^3    Pcb_linear(k) (Mpc/h)^3   ShotnoiseSubtracted = true
      0.0200456         2585.99          2621.1 
      0.0350414         2063.55         2034.74 
      0.0492313         1568.13         1569.35 
      0.0637834         1308.72         1332.84 
      0.0800726         1031.48         1051.07 
       0.096163         799.912         785.679 
       0.111083         673.513         656.724 
       0.126058         576.542         582.959 
       0.142273         478.705         481.065 
       0.158546         394.691          388.46 
        0.17375         351.198          341.76 
       0.188953         316.421          308.62 
       0.204907         265.513          266.14 
       0.220756         236.274         228.026 
        0.23588          212.09         205.046 
         0.2514         192.557         186.813 
       0.267535         177.321         165.982 
       0.283568          156.13         147.124 
       0.299022         145.226         133.964 
       0.314451           138.3         123.129 
       0.330372         122.542         111.868 
       0.346141         112.602         101.644 
       0.361624         104.714          93.562 
       0.377134         96.0496         86.6289 
       0.392932         93.2544         79.8959 
       0.408854         85.7249          73.642 
       0.424564         82.1589         68.3522 
       0.440253         75.1588         63.7012 
       0.455999         69.1243          59.352 
       0.471626         65.6681         55.3753 
        0.48727         64.0686         51.8176 
       0.502856         59.6926         48.6298 
       0.518488         56.4206         45.6753 
       0.534347         53.3261         42.9032 
       0.550082         51.3939         40.3959 
       0.565732         49.6384         38.1168 
       0.581496          46.622         35.9949 
       0.597222         44.2834         34.0318 
       0.612804          42.578         32.2339 
       0.628434         41.7575         30.5682 
       0.644267         39.5708         29.0024 
       0.660051         37.7565         27.5506 
       0.675724         36.1823         26.2074 
       0.691403          35.571         24.9536 
       0.707174          34.311         23.7755 
       0.722871         33.1526         22.6789 
        0.73838         31.5234         21.6639 
       0.754018         30.0492         20.7039 
       0.769845         29.3783         19.7921 
        0.78569         28.4253         18.9349 
       0.801365         27.5078         18.1375 
       0.817031         26.5698         17.3871 
       0.832809         25.9191         16.6748 
       0.848511         25.1142          16.006 
       0.864097         24.3794         15.3789 
       0.879701         24.0068         14.7852 
       0.895507         23.1286         14.2161 
       0.911279         22.2572         13.6785 
        0.92691         21.8792         13.1734 
       0.942635         21.4137         12.6913 
       0.958396         20.7172         12.2326 
       0.974128           20.22         11.7976 
       0.989692         19.4281         11.3883 
        1.00528         19.3092          10.998 
        1.02113         18.6953         10.6201 
        1.03692          18.292         10.2615 
        1.05264         17.9228         9.92132 
        1.06832         17.5647         9.59723 
        1.08405         17.0901         9.28691 
        1.09979         16.7251         8.99027 
        1.11537         16.3267         8.70966 
        1.13105         16.0657         8.43947 
        1.14679         15.6996         8.17982 
        1.16256         15.3889          7.9307 
        1.17828         15.1022         7.69287 
        1.19395          14.863          7.4657 
         1.2097         14.3999         7.24664 
        1.22537         14.1943         7.03751 
          1.241         13.8783         6.83735 
        1.25666         13.8017         6.64455 
        1.27241         13.5063         6.45835 
        1.28819         12.9952         6.27904 
        1.30392         12.9975         6.10712 
        1.31957          12.693         5.94247 
        1.33529         12.5328         5.78334 
        1.35108         12.2968         5.62946 
        1.36674         12.0237         5.48234 
         1.3824          11.894         5.34065 
        1.39811         11.6809         5.20355 
        1.41389         11.4436         5.07078 
        1.42964         11.3195          4.9429 
        1.44531          11.109         4.82011 
        1.46101         10.9713         4.70125 
        1.47667         10.7791          4.5868 
        1.49229         10.5534          4.4765 
        1.50793         10.4394         4.36973 
        1.52367         10.2878         4.26578 
        1.53953         10.0831         4.16455 
        1.55526          10.002         4.06744 
        1.57092         9.85674         3.97386 
        1.58662         9.70058         3.88302 
        1.60235         9.57495         3.79487 
        1.61809         9.46358         3.70944 
        1.63369         9.26977         3.62741 
        1.64941         9.15962          3.5473 
        1.66519         9.02942         3.46934 
        1.68085         8.89315          3.3943 
        1.69652         8.82959         3.32147 
        1.71228         8.72396         3.25039 
        1.72806         8.54548         3.18134 
        1.74368         8.49782         3.11501 
        1.75933         8.38499         3.05045 
        1.77505          8.2216         2.98744 
        1.79081         8.17847         2.92611 
         1.8065         8.10771         2.86677 
        1.82218         7.96608         2.80915 
        1.83797         7.84382         2.75272 
        1.85367         7.75261         2.69818 
        1.86928         7.70103         2.64544 
        1.88497         7.57191         2.59385 
        1.90073         7.48808         2.54344 
        1.91647         7.36736         2.49443 
        1.93218         7.30965         2.44683 
        1.94787         7.20487         2.40055 
        1.96363         7.14244         2.35529 
        1.97935         7.10027          2.3113 
        1.99499         7.00142         2.26869 
        2.01064         6.92345          2.2271 
         2.0264         6.84104          2.1863 
        2.04216         6.79302         2.14655 
        2.05781         6.69969         2.10805 
        2.07353           6.636         2.07036 
        2.08928          6.5016         2.03351 
        2.10499         6.47284         1.99767 
        2.12065         6.47928          1.9628 
        2.13633         6.37023         1.92875 
        2.15211         6.28111         1.89529 
        2.16785          6.2058         1.86272 
        2.18349         6.18454         1.83112 
        2.19916         6.10633          1.8002 
        2.21489         6.03419         1.76989 
        2.23063         5.98269         1.74027 
         2.2463         5.91799         1.71146 
        2.26194         5.85069         1.68338 
        2.27765         5.77718         1.65579 
        2.29341         5.71026         1.62875 
        2.30914         5.68188         1.60238 
        2.32486         5.62595          1.5766 
        2.34061         5.57564         1.55136 
        2.35635         5.52335         1.52669 
        2.37203         5.48941         1.50265 
        2.38768         5.44589         1.47918 
        2.40339         5.37369         1.45613 
        2.41914         5.31915         1.43352 
        2.43483          5.2611         1.41148 
         2.4505         5.23119         1.38994 
        2.46622         5.17911         1.36877 
        2.48195         5.15092         1.34805 
        2.49759         5.07929         1.32787 
        2.51328         5.04162         1.30806 
        2.52906         4.99116         1.28852 
        2.54479         4.95227         1.26946 
        2.56049         4.91286         1.25083 
        2.57618         4.87044         1.23258 
        2.59189         4.87117         1.21468 
        2.60758          4.8016         1.19716 
        2.62325         4.73358         1.18001 
        2.63898         4.70848         1.16314 
        2.65468         4.66445         1.14664 
        2.67044         4.64521         1.13039 
        2.68618         4.60637         1.11449 
        2.70184         4.56596         1.09897 
        2.71755          4.5099          1.0837 
        2.73329         4.48477          1.0687 
        2.74897         4.44713         1.05404 
        2.76462         4.40207         1.03968 
        2.78034         4.38191         1.02554 
        2.79607         4.33165         1.01164 
        2.81179         4.29512         0.99802 
        2.82749         4.25676        0.984668 
        2.84321           4.242        0.971546 
        2.85893         4.19731        0.958668 
        2.87462         4.17066        0.946048 
        2.89033         4.15055        0.933644 
        2.90605         4.11038        0.921454 
        2.92176         4.06683        0.909488 
        2.93747         4.03607        0.897743 
        2.95318         4.00477        0.886204 
        2.96891         3.98743        0.874863 
        2.98456         3.95757        0.863772 
        3.00023         3.93451        0.852859 
        3.01596         3.89146        0.842101 
        3.03164         3.85258        0.831561 
        3.04738         3.84212        0.821171 
         3.0631           3.811        0.810963 
        3.07883         3.78289         0.80093 
        3.09456         3.74144        0.791069 
        3.11026          3.7214        0.781389 
        3.12596         3.70422        0.771874 
        3.14163         3.67319        0.762541 
        3.15734         3.64435         0.75334 
        3.17308         3.62377         0.74427 
        3.18879         3.59742        0.735376 
        3.20447          3.5652         0.72664 
         3.2202         3.55033         0.71802 
         3.2359         3.52729        0.709556 
        3.25157         3.49561        0.701249 
        3.26729          3.4731        0.693051 
        3.28304         3.44729        0.684969 
        3.29877         3.42063        0.677027 
        3.31446         3.40252        0.669228 
        3.33014         3.37456        0.661561 
        3.34585         3.36212        0.654002 
        3.36158         3.32799        0.646551 
        3.37727         3.32059        0.639239 
        3.39294         3.28778        0.632049 
        3.40867         3.27221        0.624943 
        3.42439         3.23932        0.617951 
        3.44008         3.21805        0.611081 
        3.45578         3.20126         0.60431 
        3.47153         3.18517        0.597628 
        3.48724         3.16405        0.591059 
        3.50292         3.13972        0.584604 
        3.51859         3.12528         0.57825 
        3.53431         3.09314        0.571971 
        3.55007         3.09325         0.56577 
        3.56577         3.05875        0.559686 
        3.58146         3.04571        0.553695 
        3.59719         3.02575        0.547778 
        3.61292         3.00625         0.54195 
        3.62859         2.99008        0.536229 
        3.64429         2.96375         0.53058 
        3.66003         2.94653        0.524996 
        3.67578         2.93365        0.519494 
        3.69146         2.90215        0.514093 
        3.70712         2.88598        0.508779 
        3.72284         2.86984         0.50352 
        3.73853         2.86188        0.498346 
        3.75422         2.83862        0.493242 
        3.76993         2.81877        0.488206 
        3.78564         2.80256        0.483243 
        3.80137         2.78099        0.478341 
        3.81707         2.76706        0.473518 
        3.83279         2.75399        0.468757 
        3.84853         2.73505        0.464055 
        3.86424          2.7128        0.459427 
        3.87992         2.69485        0.454869 
        3.89561         2.67708        0.450373 
        3.91134         2.67119        0.445929 
        3.92704         2.64542         0.44155 
        3.94273         2.62769        0.437235 
        3.95845         2.61371         0.43297 
        3.97418         2.60643        0.428761 
        3.98988         2.59056        0.424614 
        4.00554         2.57386        0.420533 
        4.02125         2.55099        0.416495 
        4.03698         2.53822        0.412504 
        4.05268         2.51828        0.408574 
        4.06839          2.5057        0.404693 
         4.0841         2.48884        0.400864 
        4.09983         2.46923        0.397079 
        4.11555         2.45722        0.393345 
        4.13124         2.43779         0.38967 
        4.14693         2.42714        0.386038 
        4.16266         2.41254        0.382445 
        4.17839         2.39895          0.3789 
        4.19408         2.37907        0.375408 
        4.20977         2.36439        0.371959 
        4.22551         2.35649        0.368545 
        4.24123          2.3363        0.365177 
        4.25691         2.32411        0.361861 
        4.27259         2.30596        0.358586 
        4.28831         2.30128        0.355344 
        4.30404         2.27894         0.35214 
        4.31974          2.2632        0.348983 
        4.33543         2.24996        0.345866 
        4.35116         2.24581         0.34278 
        4.36688         2.22862        0.339733 
        4.38255         2.21401        0.336734 
        4.39825         2.20197        0.333766 
        4.41398         2.18699        0.330827 
         4.4297         2.17374        0.327927 
        4.44541         2.15889        0.325063 
        4.46111          2.1539        0.322235 
        4.47683         2.14069        0.319439 
        4.49251         2.12448        0.316682 
        4.50819         2.11327        0.313959 
         4.5239         2.09929        0.311263 
        4.53962         2.08876        0.308597 
        4.55535         2.07882         0.30596 
        4.57106         2.06877        0.303358 
        4.58678         2.05106        0.300786 
         4.6025         2.04159        0.298243 
        4.61821         2.03624         0.29573 
        4.63391         2.01957         0.29325 
         4.6496         2.01209        0.290799 
        4.66532         2.00261        0.288372 
        4.68103         1.98775        0.285975 
        4.69673         1.97831        0.283607 
        4.71241         1.97119        0.281268 
        4.72811         1.96039        0.278952 
        4.74384         1.94959         0.27666 
        4.75955         1.94255        0.274397 
        4.77525         1.92756         0.27216 
        4.79096         1.91464        0.269946 
        4.80669         1.91058        0.267755 
         4.8224         1.90252        0.265591 
        4.83809         1.89291        0.263454 
        4.85379         1.88278        0.261339 
         4.8695         1.86909        0.259246 
        4.88521         1.86293        0.257176 
        4.90093         1.85571        0.255129 
        4.91663         1.84207        0.253106 
        4.93234         1.83932        0.251103 
        4.94807         1.82216        0.249121 
        4.96377           1.817        0.247164 
        4.97943         1.80622        0.245232 
        4.99514         1.79753        0.243315 
        5.01086         1.78736        0.241418 
        5.02654          1.7804        0.239546 
        5.04227         1.77408        0.237689 
          5.058         1.76624         0.23585 
        5.07371         1.76053        0.234035 
        5.08942         1.74948        0.232238 
        5.10513         1.73898        0.230461 
        5.12084         1.72906        0.228701 
        5.13656         1.72381         0.22696 
        5.15225          1.7152         0.22524 
        5.16796         1.70722        0.223535 
        5.18369         1.70075        0.221846 
         5.1994         1.69463        0.220178 
        5.21509         1.68373        0.218529 
        5.23079         1.67941        0.216895 
        5.24649         1.66876        0.215279 
        5.26217         1.66463         0.21368 
        5.27788         1.65261        0.212096 
        5.29359         1.64651        0.210527 
        5.30933         1.64106        0.208972 
        5.32504         1.63203        0.207436 
        5.34073         1.62531        0.205917 
        5.35646         1.61676         0.20441 
        5.37218         1.61221        0.202917 
        5.38789         1.60304        0.201443 
        5.40357         1.59734        0.199984 
        5.41929         1.59263        0.198537 
        5.43502         1.58231        0.197104 
         5.4507         1.57624        0.195689 
        5.46639         1.57063        0.194288 
        5.48212         1.56348        0.192897 
        5.49786         1.55593        0.191518 
        5.51353         1.54999        0.190159 
        5.52921         1.54225        0.188812 
        5.54495         1.53789        0.187475 
        5.56066         1.53125        0.186152 
        5.57637         1.52455        0.184842 
        5.59207         1.51688        0.183546 
        5.60778         1.51223        0.182261 
        5.62346         1.50511        0.180991 
        5.63916         1.50328        0.179732 
        5.65487         1.49218        0.178484 
         5.6706         1.48827        0.177247 
        5.68633         1.47793        0.176021 
        5.70203         1.47957        0.174809 
        5.71773         1.46885        0.173609 
        5.73344         1.46458         0.17242 
        5.74916         1.46129        0.171241 
        5.76486         1.45016        0.170074 
        5.78054         1.44797         0.16892 
        5.79626         1.44185        0.167774 
          5.812         1.43595        0.166637 
         5.8277         1.42949        0.165514 
        5.84339         1.42623        0.164401 
        5.85911         1.41833        0.163297 
        5.87484         1.41391        0.162203 
        5.89053         1.40731        0.161121 
        5.90623         1.40484        0.160049 
        5.92195         1.39828        0.158984 
        5.93767         1.39191         0.15793 
        5.95336         1.38533        0.156888 
        5.96905         1.38013        0.155855 
        5.98476         1.37646         0.15483 
        6.00048         1.37128        0.153814 
        6.01617         1.36444        0.152808 
        6.03185         1.36087        0.151813 
        6.04756         1.35662        0.150824 
        6.06331         1.35192        0.149842 
        6.07903         1.34757        0.148871 
        6.09473         1.34062        0.147909 
        6.11044         1.33545        0.146955 
        6.12616         1.33064         0.14601 
        6.14186         1.32578        0.145074 
        6.15755          1.3198        0.144146 
        6.17326         1.31792        0.143226 
        6.18898         1.31185        0.142313 
        6.20467         1.30793         0.14141 
        6.22036         1.30274        0.140515 
         6.2361         1.29914        0.139625 
         6.2518          1.2953        0.138744 
        6.26748         1.28869        0.137873 
        6.28319         1.28674        0.137008 
        6.29893         1.27954        0.136148 
        6.31463         1.27583        0.135298 
        6.33033         1.27099        0.134455 
        6.34604         1.26743        0.133619 
        6.36177         1.26308        0.132789 
        6.37747         1.25977        0.131968 
