# k  (h/Mpc)    Pcb(k)  (Mpc/h)^3    Pcb_linear(k) (Mpc/h)^3   ShotnoiseSubtracted = true
      0.0200456         15717.8         16089.4 
      0.0350414         11971.1           12490 
      0.0492313         9423.15         9633.29 
      0.0637834         8260.67         8181.51 
      0.0800726         6496.69         6451.91 
       0.096163         4630.12         4822.82 
       0.111083         3829.23         4031.24 
       0.126058         3546.31         3578.44 
       0.142273          3013.6         2952.97 
       0.158546         2630.87         2384.53 
        0.17375          2154.5         2097.86 
       0.188953         2097.54         1894.44 
       0.204907         1960.81         1633.68 
       0.220756         1701.56         1399.72 
        0.23588         1520.21         1258.65 
         0.2514         1330.09         1146.74 
       0.267535          1321.9         1018.87 
       0.283568          1202.1         903.109 
       0.299022         1133.77         822.327 
       0.314451         1081.57         755.817 
       0.330372         997.482         686.689 
       0.346141         938.499         623.933 
       0.361624         901.264         574.322 
       0.377134          838.88         531.763 
       0.392932         810.582         490.433 
       0.408854         786.881         452.044 
       0.424564         737.133         419.574 
       0.440253         722.968         391.024 
       0.455999         689.473         364.327 
       0.471626         656.182         339.916 
        0.48727         634.804         318.078 
       0.502856         617.625         298.509 
       0.518488         610.112         280.374 
       0.534347         570.933         263.357 
       0.550082         550.812         247.966 
       0.565732         551.396         233.976 
       0.581496         519.378         220.951 
       0.597222         511.263         208.901 
       0.612804         497.102         197.865 
       0.628434         480.784          187.64 
       0.644267         467.621         178.028 
       0.660051         453.138         169.117 
       0.675724          449.98         160.872 
       0.691403          435.36         153.175 
       0.707174          420.46         145.944 
       0.722871         415.723         139.212 
        0.73838         409.174         132.982 
       0.754018         396.626         127.089 
       0.769845         385.762         121.492 
        0.78569         383.235          116.23 
       0.801365         371.271         111.335 
       0.817031         360.827         106.729 
       0.832809         357.031         102.356 
       0.848511         347.805         98.2513 
       0.864097         340.569          94.402 
       0.879701         335.432         90.7574 
       0.895507         329.592         87.2642 
       0.911279          318.87         83.9641 
        0.92691         315.563         80.8638 
       0.942635         309.343         77.9046 
       0.958396         302.799         75.0888 
       0.974128         297.282         72.4187 
       0.989692         292.166         69.9062 
        1.00528         287.607         67.5104 
        1.02113         284.709         65.1905 
        1.03692         277.082         62.9894 
        1.05264         272.992         60.9011 
        1.06832          267.15         58.9117 
        1.08405         261.974         57.0068 
        1.09979         258.255         55.1859 
        1.11537         252.832         53.4634 
        1.13105          247.42         51.8049 
        1.14679         246.587          50.211 
        1.16256         240.788         48.6818 
        1.17828         236.415          47.222 
        1.19395         232.912         45.8275 
         1.2097         231.393         44.4828 
        1.22537         224.994         43.1991 
          1.241         224.089         41.9704 
        1.25666         218.119         40.7869 
        1.27241         215.535          39.644 
        1.28819         212.127         38.5433 
        1.30392         208.333          37.488 
        1.31957         207.687         36.4773 
        1.33529         202.961         35.5005 
        1.35108         198.789         34.5559 
        1.36674         197.519         33.6528 
         1.3824         193.914         32.7831 
        1.39811         193.219         31.9415 
        1.41389         188.698         31.1265 
        1.42964         185.579         30.3415 
        1.44531         182.758         29.5878 
        1.46101         181.617         28.8582 
        1.47667         176.651         28.1556 
        1.49229         174.624         27.4786 
        1.50793         172.457         26.8232 
        1.52367         170.392         26.1851 
        1.53953         166.949         25.5637 
        1.55526         164.197         24.9676 
        1.57092         162.913         24.3932 
        1.58662         159.846         23.8356 
        1.60235         157.887         23.2945 
        1.61809         156.224           22.77 
        1.63369         153.418         22.2665 
        1.64941          150.45         21.7748 
        1.66519         149.183         21.2962 
        1.68085          148.07         20.8356 
        1.69652         144.438         20.3885 
        1.71228         142.793         19.9522 
        1.72806         140.664         19.5284 
        1.74368         139.381         19.1212 
        1.75933         137.066         18.7249 
        1.77505         134.984         18.3381 
        1.79081         134.093         17.9616 
         1.8065         131.915         17.5974 
        1.82218         129.531         17.2437 
        1.83797         128.284         16.8973 
        1.85367          126.41         16.5625 
        1.86928         124.995         16.2388 
        1.88497         122.305         15.9221 
        1.90073         121.435         15.6127 
        1.91647         119.519         15.3118 
        1.93218         117.873         15.0196 
        1.94787           116.5         14.7355 
        1.96363         114.588         14.4577 
        1.97935         112.513         14.1877 
        1.99499         111.467         13.9261 
        2.01064          109.96         13.6708 
         2.0264         108.494         13.4204 
        2.04216         107.408         13.1764 
        2.05781         105.984           12.94 
        2.07353         104.591         12.7087 
        2.08928         102.719         12.4825 
        2.10499         101.036         12.2625 
        2.12065         100.418         12.0485 
        2.13633         99.3541         11.8394 
        2.15211          97.654          11.634 
        2.16785         95.8757         11.4341 
        2.18349         94.8725         11.2402 
        2.19916         94.0938         11.0503 
        2.21489         92.9193         10.8643 
        2.23063            91.2         10.6825 
         2.2463         90.4181         10.5056 
        2.26194         89.7638         10.3333 
        2.27765          87.958         10.1639 
        2.29341         87.1659         9.99793 
        2.30914         85.6619         9.83603 
        2.32486         85.1151         9.67783 
        2.34061         83.8746         9.52287 
        2.35635         82.5396         9.37146 
        2.37203         81.3697         9.22389 
        2.38768         80.5812         9.07983 
        2.40339          79.844         8.93834 
        2.41914         78.2573         8.79956 
        2.43483         77.7187         8.66423 
         2.4505         76.7063         8.53199 
        2.46622         75.5892         8.40208 
        2.48195         74.7097         8.27489 
        2.49759         74.0592         8.15102 
        2.51328         73.0176         8.02938 
        2.52906         71.9471         7.90947 
        2.54479         71.4387         7.79247 
        2.56049         70.4208         7.67808 
        2.57618          69.796          7.5661 
        2.59189         68.6813          7.4562 
        2.60758         68.0067         7.34867 
        2.62325         67.4066         7.24341 
        2.63898         66.4478         7.13985 
        2.65468         65.4854         7.03855 
        2.67044         64.6122         6.93879 
        2.68618         64.1847          6.8412 
        2.70184         63.6995          6.7459 
        2.71755         63.0081         6.65218 
        2.73329          61.973         6.56011 
        2.74897         61.3343          6.4701 
        2.76462         60.5273         6.38198 
        2.78034         59.6582         6.29515 
        2.79607         58.9996         6.20986 
        2.81179         58.4113         6.12625 
        2.82749         57.8319         6.04429 
        2.84321         57.0963         5.96374 
        2.85893         56.4151         5.88469 
        2.87462         55.7392         5.80722 
        2.89033         55.1342         5.73109 
        2.90605         54.3368         5.65626 
        2.92176         54.1209         5.58281 
        2.93747         53.4472         5.51071 
        2.95318         52.8121         5.43988 
        2.96891         52.1577         5.37026 
        2.98456         51.5929         5.30218 
        3.00023         50.9841         5.23519 
        3.01596         50.5673         5.16916 
        3.03164         49.8254         5.10446 
        3.04738         49.2314         5.04068 
         3.0631         48.8155         4.97802 
        3.07883         48.1994         4.91643 
        3.09456         48.0157          4.8559 
        3.11026         47.1004         4.79648 
        3.12596         46.6957         4.73808 
        3.14163         46.1184         4.68078 
        3.15734         45.7263         4.62431 
        3.17308         45.1985         4.56863 
        3.18879          44.862         4.51403 
        3.20447         44.0927         4.46041 
         3.2202         43.9113          4.4075 
         3.2359         43.3277         4.35554 
        3.25157         42.9235         4.30455 
        3.26729         42.5892         4.25423 
        3.28304         41.9481         4.20461 
        3.29877         41.5392         4.15586 
        3.31446         41.1264         4.10799 
        3.33014         40.8939         4.06093 
        3.34585         40.4135         4.01453 
        3.36158         39.9823         3.96879 
        3.37727         39.4649         3.92391 
        3.39294         39.0225         3.87977 
        3.40867         38.6239         3.83615 
        3.42439         38.2994         3.79324 
        3.44008          37.875         3.75106 
        3.45578         37.3792          3.7095 
        3.47153         37.0695         3.66848 
        3.48724         36.8738         3.62816 
        3.50292         36.4995         3.58854 
        3.51859         35.9271         3.54953 
        3.53431         35.5561         3.51099 
        3.55007         35.2107         3.47293 
        3.56577         34.8953         3.43558 
        3.58146          34.487          3.3988 
        3.59719         34.1368         3.36248 
        3.61292         33.8451         3.32671 
        3.62859         33.6812         3.29159 
        3.64429         33.2135         3.25691 
        3.66003         32.9224         3.22264 
        3.67578         32.5036         3.18887 
        3.69146         32.1841         3.15571 
        3.70712         31.9702         3.12309 
        3.72284         31.6122         3.09081 
        3.73853         31.4019         3.05905 
        3.75422         31.0585         3.02772 
        3.76993         30.7857         2.99681 
        3.78564         30.4735         2.96634 
        3.80137         30.0905         2.93625 
        3.81707         29.8157         2.90664 
        3.83279         29.5479         2.87742 
        3.84853         29.3124         2.84856 
        3.86424         28.9904         2.82015 
        3.87992         28.7556         2.79217 
        3.89561         28.4759         2.76457 
        3.91134         28.2293         2.73729 
        3.92704         27.9335         2.71041 
        3.94273         27.5871         2.68392 
        3.95845         27.3416         2.65774 
        3.97418         27.2148         2.63191 
        3.98988         26.8899         2.60645 
        4.00554         26.6275          2.5814 
        4.02125          26.409         2.55662 
        4.03698         26.1558         2.53212 
        4.05268         25.9829         2.50799 
        4.06839         25.6824         2.48417 
         4.0841         25.4348         2.46067 
        4.09983         25.2378         2.43743 
        4.11555         25.0039         2.41451 
        4.13124         24.7228         2.39195 
        4.14693         24.5564         2.36966 
        4.16266         24.3074          2.3476 
        4.17839         24.0391         2.32584 
        4.19408          23.891         2.30441 
        4.20977         23.6797         2.28323 
        4.22551         23.4753         2.26228 
        4.24123         23.3003         2.24161 
        4.25691         23.0393         2.22125 
        4.27259         22.7724         2.20114 
        4.28831         22.6221         2.18125 
        4.30404         22.3931         2.16158 
        4.31974         22.2681          2.1422 
        4.33543         21.9663         2.12306 
        4.35116         21.8872         2.10412 
        4.36688         21.6022         2.08542 
        4.38255         21.4133         2.06701 
        4.39825          21.249         2.04879 
        4.41398         21.0658         2.03075 
         4.4297         20.8938         2.01295 
        4.44541         20.7306         1.99537 
        4.46111         20.5457         1.97801 
        4.47683         20.3332         1.96085 
        4.49251         20.1331         1.94392 
        4.50819         20.0027         1.92721 
         4.5239         19.8175         1.91066 
        4.53962         19.6772         1.89429 
        4.55535          19.468         1.87811 
        4.57106         19.3965         1.86213 
        4.58678         19.1722         1.84634 
         4.6025         19.0217         1.83074 
        4.61821         18.8655         1.81531 
        4.63391         18.6893         1.80009 
         4.6496         18.5711         1.78504 
        4.66532           18.39         1.77015 
        4.68103         18.2257         1.75543 
        4.69673         18.0842         1.74089 
        4.71241         17.9413         1.72654 
        4.72811         17.7727         1.71232 
        4.74384         17.6555         1.69825 
        4.75955         17.4663         1.68436 
        4.77525         17.3528         1.67063 
        4.79096         17.2059         1.65704 
        4.80669         17.0681         1.64359 
         4.8224         16.8867         1.63031 
        4.83809         16.7748         1.61719 
        4.85379          16.687         1.60421 
         4.8695         16.4472         1.59135 
        4.88521          16.376         1.57865 
        4.90093         16.2532         1.56609 
        4.91663         16.1186         1.55367 
        4.93234         15.9608         1.54137 
        4.94807         15.8453         1.52921 
        4.96377         15.7138         1.51719 
        4.97943         15.6275         1.50533 
        4.99514         15.5112         1.49357 
        5.01086         15.3599         1.48192 
        5.02654           15.23         1.47043 
        5.04227         15.1303         1.45903 
          5.058         15.0009         1.44774 
        5.07371         14.8935          1.4366 
        5.08942         14.7931         1.42557 
        5.10513         14.6456         1.41466 
        5.12084         14.5262         1.40386 
        5.13656         14.4289         1.39317 
        5.15225         14.3148         1.38261 
        5.16796         14.1876         1.37215 
        5.18369         14.0914         1.36178 
         5.1994         13.9925         1.35154 
        5.21509         13.8729         1.34142 
        5.23079         13.7795         1.33139 
        5.24649         13.6625         1.32147 
        5.26217         13.5798         1.31166 
        5.27788         13.4495         1.30193 
        5.29359         13.3607          1.2923 
        5.30933         13.2617         1.28276 
        5.32504         13.1425         1.27333 
        5.34073         13.0666           1.264 
        5.35646         12.9606         1.25475 
        5.37218         12.8478         1.24559 
        5.38789         12.7649         1.23654 
        5.40357         12.6442         1.22758 
        5.41929         12.5518          1.2187 
        5.43502         12.4826         1.20991 
         5.4507         12.3981         1.20122 
        5.46639         12.2976         1.19262 
        5.48212         12.1884         1.18408 
        5.49786           12.13         1.17561 
        5.51353         12.0106         1.16727 
        5.52921         11.9309         1.15901 
        5.54495         11.8545          1.1508 
        5.56066         11.7451         1.14268 
        5.57637         11.6714         1.13463 
        5.59207         11.5742         1.12668 
        5.60778         11.5082         1.11879 
        5.62346         11.4204           1.111 
        5.63916         11.3299         1.10327 
        5.65487         11.2584         1.09561 
         5.6706         11.1728         1.08802 
        5.68633         11.0993         1.08049 
        5.70203         11.0101         1.07305 
        5.71773         10.9504         1.06568 
        5.73344         10.8492         1.05838 
        5.74916         10.7696         1.05114 
        5.76486         10.7048         1.04398 
        5.78054         10.6167          1.0369 
        5.79626         10.5382         1.02986 
          5.812         10.4635         1.02288 
         5.8277         10.3759         1.01599 
        5.84339         10.3313         1.00916 
        5.85911         10.2297         1.00238 
        5.87484          10.185        0.995667 
        5.89053         10.0957        0.989027 
        5.90623         10.0153        0.982444 
        5.92195         9.96749        0.975911 
        5.93767          9.9048         0.96944 
        5.95336         9.82749        0.963039 
        5.96905         9.74467        0.956699 
        5.98476         9.68862        0.950407 
        6.00048         9.63543         0.94417 
        6.01617         9.54367        0.937998 
        6.03185         9.47185        0.931888 
        6.04756         9.41173        0.925818 
        6.06331         9.34522         0.91979 
        6.07903         9.31002        0.913829 
        6.09473         9.23007        0.907926 
        6.11044         9.16738         0.90207 
        6.12616         9.09284        0.896267 
        6.14186         9.05272        0.890521 
        6.15755         8.96959        0.884826 
        6.17326         8.92649        0.879177 
        6.18898         8.86923        0.873574 
        6.20467         8.79998        0.868031 
        6.22036         8.72604        0.862536 
         6.2361         8.67269        0.857074 
         6.2518         8.61725        0.851669 
        6.26748         8.55262        0.846323 
        6.28319         8.49567        0.841007 
        6.29893         8.45386        0.835734 
        6.31463         8.37999        0.830514 
        6.33033         8.34188        0.825341 
        6.34604         8.27728        0.820209 
        6.36177          8.2344        0.815115 
        6.37747         8.16345        0.810075 
