# k  (h/Mpc)    Pcb(k)  (Mpc/h)^3    Pcb_linear(k) (Mpc/h)^3   ShotnoiseSubtracted = true
      0.0200456         13947.8         14264.6 
      0.0350414         10647.7         11073.5 
      0.0492313         8377.73         8540.75 
      0.0637834         7330.29         7253.61 
      0.0800726         5768.14         5720.17 
       0.096163         4119.25         4275.84 
       0.111083         3403.17         3574.04 
       0.126058         3151.83          3172.6 
       0.142273         2675.71         2618.06 
       0.158546         2316.84         2114.09 
        0.17375         1901.31         1859.93 
       0.188953         1846.16         1679.58 
       0.204907         1724.26         1448.39 
       0.220756         1490.95         1240.97 
        0.23588          1330.5          1115.9 
         0.2514         1164.73         1016.68 
       0.267535         1150.71         903.313 
       0.283568         1047.01         800.684 
       0.299022         985.561         729.064 
       0.314451         938.145         670.097 
       0.330372         865.823         608.809 
       0.346141         806.288          553.17 
       0.361624         774.235         509.186 
       0.377134         721.049         471.454 
       0.392932         695.404         434.811 
       0.408854         672.377         400.776 
       0.424564         633.071         371.988 
       0.440253         619.588         346.676 
       0.455999         587.648         323.007 
       0.471626         555.625         301.365 
        0.48727         539.516         282.003 
       0.502856         524.345         264.654 
       0.518488         518.429         248.576 
       0.534347         484.812         233.489 
       0.550082          464.57         219.843 
       0.565732         464.885          207.44 
       0.581496         437.861         195.892 
       0.597222         431.052         185.209 
       0.612804         417.689         175.424 
       0.628434         403.017         166.359 
       0.644267         391.467         157.837 
       0.660051         381.405         149.937 
       0.675724         377.724         142.627 
       0.691403          365.93         135.803 
       0.707174         352.724         129.392 
       0.722871         348.515         123.424 
        0.73838         343.276           117.9 
       0.754018         332.653         112.675 
       0.769845         321.929         107.713 
        0.78569         321.426         103.048 
       0.801365         310.826         98.7084 
       0.817031         302.017         94.6244 
       0.832809         298.221         90.7478 
       0.848511         290.521         87.1083 
       0.864097         285.934         83.6955 
       0.879701         281.142         80.4643 
       0.895507         274.785         77.3672 
       0.911279          266.26         74.4414 
        0.92691         264.856         71.6928 
       0.942635         259.422         69.0692 
       0.958396         255.745         66.5727 
       0.974128         250.214         64.2054 
       0.989692         244.704         61.9779 
        1.00528         241.456         59.8538 
        1.02113         239.219          57.797 
        1.03692         232.645         55.8455 
        1.05264         228.359         53.9941 
        1.06832         224.283         52.2303 
        1.08405         219.853         50.5414 
        1.09979         217.814          48.927 
        1.11537         212.352         47.3999 
        1.13105         208.593         45.9295 
        1.14679          208.44         44.5164 
        1.16256         204.068         43.1606 
        1.17828         199.421         41.8664 
        1.19395          196.92           40.63 
         1.2097         195.665         39.4378 
        1.22537         190.675         38.2997 
          1.241         189.219         37.2104 
        1.25666         184.736         36.1611 
        1.27241         182.084         35.1478 
        1.28819         179.776         34.1719 
        1.30392         177.246         33.2363 
        1.31957          175.74         32.3403 
        1.33529         171.318         31.4743 
        1.35108         169.165         30.6368 
        1.36674         167.914         29.8361 
         1.3824         164.171          29.065 
        1.39811          164.34         28.3189 
        1.41389          160.07         27.5963 
        1.42964         156.951         26.9004 
        1.44531         154.709         26.2321 
        1.46101         153.462         25.5853 
        1.47667         149.929         24.9624 
        1.49229         148.224         24.3621 
        1.50793         146.941         23.7811 
        1.52367         145.062         23.2154 
        1.53953         142.046         22.6644 
        1.55526          140.06         22.1359 
        1.57092         138.472         21.6266 
        1.58662         136.011         21.1323 
        1.60235         134.836         20.6525 
        1.61809          132.88         20.1876 
        1.63369         130.952         19.7412 
        1.64941         128.986         19.3052 
        1.66519         126.976         18.8809 
        1.68085         126.075         18.4725 
        1.69652         122.766         18.0762 
        1.71228         122.683         17.6893 
        1.72806         120.551         17.3136 
        1.74368         119.356         16.9526 
        1.75933         117.391         16.6013 
        1.77505         115.567         16.2583 
        1.79081         114.498         15.9245 
         1.8065         112.779         15.6016 
        1.82218         110.782          15.288 
        1.83797         109.433         14.9809 
        1.85367         108.003         14.6841 
        1.86928         106.953         14.3971 
        1.88497         104.488         14.1163 
        1.90073         104.224          13.842 
        1.91647          102.26         13.5753 
        1.93218         101.164         13.3162 
        1.94787         99.9284         13.0643 
        1.96363         98.6163          12.818 
        1.97935         96.5642         12.5786 
        1.99499         95.9759         12.3467 
        2.01064         94.6394         12.1204 
         2.0264         93.3288         11.8983 
        2.04216         92.3835          11.682 
        2.05781          91.043         11.4725 
        2.07353         89.5972         11.2673 
        2.08928          88.584         11.0668 
        2.10499         87.1953         10.8718 
        2.12065         86.7493          10.682 
        2.13633         85.5456         10.4967 
        2.15211         84.3703         10.3146 
        2.16785         82.7594         10.1373 
        2.18349         81.7448         9.96537 
        2.19916         81.2073         9.79708 
        2.21489         80.0163         9.63215 
        2.23063         78.7173         9.47093 
         2.2463         78.2473         9.31415 
        2.26194          77.457         9.16133 
        2.27765         75.9821         9.01118 
        2.29341         75.1428         8.86403 
        2.30914         73.9058         8.72049 
        2.32486         73.3436         8.58023 
        2.34061         72.5106         8.44284 
        2.35635         71.5407         8.30861 
        2.37203         70.2538         8.17778 
        2.38768         69.7222         8.05005 
        2.40339         68.9304         7.92461 
        2.41914         67.8979         7.80157 
        2.43483         67.6388         7.68159 
         2.4505         66.3176         7.56435 
        2.46622         65.6222         7.44917 
        2.48195         64.8032          7.3364 
        2.49759         63.9627         7.22658 
        2.51328         63.3903         7.11874 
        2.52906         62.6069         7.01243 
        2.54479         61.8664          6.9087 
        2.56049         60.9292         6.80728 
        2.57618         60.3553           6.708 
        2.59189         59.5299         6.61057 
        2.60758         58.8835         6.51523 
        2.62325         58.3881          6.4219 
        2.63898          57.605         6.33009 
        2.65468         56.9788         6.24028 
        2.67044         56.2252         6.15183 
        2.68618         55.9898         6.06532 
        2.70184         55.1425         5.98082 
        2.71755         54.7318         5.89773 
        2.73329         53.6626         5.81611 
        2.74897         52.9823          5.7363 
        2.76462         52.6268         5.65818 
        2.78034         51.9694          5.5812 
        2.79607         51.3156         5.50558 
        2.81179         50.6949         5.43145 
        2.82749         50.1721         5.35878 
        2.84321         49.6932         5.28737 
        2.85893         48.9993         5.21729 
        2.87462         48.3544         5.14861 
        2.89033         48.0472          5.0811 
        2.90605         47.2482         5.01476 
        2.92176         46.9371         4.94964 
        2.93747         46.2586         4.88572 
        2.95318         45.7288         4.82292 
        2.96891         45.0486          4.7612 
        2.98456         44.9083         4.70084 
        3.00023         44.2546         4.64145 
        3.01596         43.9046          4.5829 
        3.03164         43.1431         4.52554 
        3.04738         42.9153           4.469 
         3.0631         42.4054         4.41344 
        3.07883         41.9765         4.35884 
        3.09456         41.6445         4.30517 
        3.11026         41.0551          4.2525 
        3.12596         40.5555         4.20071 
        3.14163         40.1642         4.14992 
        3.15734           39.58         4.09985 
        3.17308         39.3876         4.05049 
        3.18879         38.9487         4.00208 
        3.20447         38.4212         3.95454 
         3.2202          38.069         3.90763 
         3.2359         37.6397         3.86156 
        3.25157         37.2128         3.81636 
        3.26729         36.8571         3.77174 
        3.28304         36.3875         3.72775 
        3.29877         36.0941         3.68453 
        3.31446         35.7193         3.64209 
        3.33014         35.4377         3.60036 
        3.34585         34.9787         3.55922 
        3.36158         34.6385         3.51867 
        3.37727         34.2106         3.47888 
        3.39294         33.9262         3.43975 
        3.40867         33.3998         3.40108 
        3.42439         33.1935         3.36303 
        3.44008         33.0174         3.32564 
        3.45578         32.4616         3.28879 
        3.47153         32.1764         3.25243 
        3.48724         31.8847         3.21667 
        3.50292         31.6336         3.18155 
        3.51859         31.1686         3.14697 
        3.53431         30.8874         3.11279 
        3.55007         30.6263         3.07905 
        3.56577         30.3453         3.04594 
        3.58146          29.954         3.01333 
        3.59719         29.7439         2.98113 
        3.61292         29.4368         2.94941 
        3.62859         29.1186         2.91828 
        3.64429         28.7785         2.88754 
        3.66003         28.5392         2.85715 
        3.67578         28.2903         2.82721 
        3.69146         28.0839         2.79781 
        3.70712         27.7067         2.76889 
        3.72284          27.547         2.74027 
        3.73853         27.2925         2.71211 
        3.75422         26.9117         2.68433 
        3.76993         26.8013         2.65693 
        3.78564         26.4685         2.62992 
        3.80137         26.2313         2.60324 
        3.81707         25.9482         2.57699 
        3.83279         25.7319         2.55108 
        3.84853          25.488         2.52549 
        3.86424          25.273          2.5003 
        3.87992         24.9387          2.4755 
        3.89561         24.7163         2.45103 
        3.91134         24.5014         2.42684 
        3.92704         24.2714         2.40301 
        3.94273         24.0254         2.37953 
        3.95845         23.7699         2.35632 
        3.97418         23.6639         2.33341 
        3.98988         23.3199         2.31084 
        4.00554         23.1486         2.28864 
        4.02125         22.9541         2.26666 
        4.03698         22.6834         2.24494 
        4.05268         22.5331         2.22355 
        4.06839         22.3134         2.20243 
         4.0841         22.1195         2.18159 
        4.09983         21.9693           2.161 
        4.11555         21.7782         2.14067 
        4.13124          21.521         2.12067 
        4.14693         21.2989         2.10091 
        4.16266         21.1156         2.08135 
        4.17839         20.9677         2.06206 
        4.19408         20.7291         2.04305 
        4.20977         20.5569         2.02428 
        4.22551         20.3484          2.0057 
        4.24123         20.1666         1.98738 
        4.25691         19.9858         1.96933 
        4.27259         19.8163          1.9515 
        4.28831         19.6786         1.93386 
        4.30404         19.4907         1.91643 
        4.31974         19.3561         1.89924 
        4.33543         19.1399         1.88228 
        4.35116         19.0312         1.86548 
        4.36688         18.8289          1.8489 
        4.38255         18.6484         1.83258 
        4.39825         18.5041         1.81643 
        4.41398         18.3312         1.80044 
         4.4297         18.1786         1.78465 
        4.44541         18.0302         1.76907 
        4.46111          17.821         1.75368 
        4.47683         17.7263         1.73846 
        4.49251         17.5437         1.72346 
        4.50819         17.4032         1.70863 
         4.5239         17.2472         1.69397 
        4.53962          17.119         1.67945 
        4.55535         16.9668          1.6651 
        4.57106         16.8114         1.65094 
        4.58678         16.6772         1.63694 
         4.6025         16.5423         1.62311 
        4.61821         16.4007         1.60943 
        4.63391         16.2717         1.59593 
         4.6496         16.1321         1.58259 
        4.66532         15.9924         1.56939 
        4.68103          15.846         1.55634 
        4.69673         15.7324         1.54345 
        4.71241         15.6411         1.53073 
        4.72811         15.4541         1.51812 
        4.74384         15.3585         1.50565 
        4.75955         15.2039         1.49333 
        4.77525         15.0838         1.48116 
        4.79096         14.9598         1.46911 
        4.80669         14.9084         1.45718 
         4.8224         14.7224         1.44541 
        4.83809         14.5724         1.43378 
        4.85379         14.5066         1.42227 
         4.8695         14.3892         1.41087 
        4.88521         14.2567         1.39961 
        4.90093         14.1434         1.38847 
        4.91663         14.0341         1.37746 
        4.93234         13.9277         1.36656 
        4.94807         13.8329         1.35577 
        4.96377         13.6556         1.34512 
        4.97943         13.6037         1.33461 
        4.99514         13.4933         1.32418 
        5.01086         13.3668         1.31385 
        5.02654          13.274         1.30367 
        5.04227         13.1664         1.29356 
          5.058         13.0549         1.28355 
        5.07371         12.9638         1.27367 
        5.08942         12.8625         1.26389 
        5.10513         12.7658         1.25422 
        5.12084         12.6606         1.24464 
        5.13656         12.5588         1.23517 
        5.15225         12.4737         1.22581 
        5.16796         12.3431         1.21653 
        5.18369         12.2727         1.20734 
         5.1994         12.1954         1.19826 
        5.21509         12.0677         1.18928 
        5.23079          11.984         1.18039 
        5.24649         11.8997          1.1716 
        5.26217         11.8211          1.1629 
        5.27788         11.6967         1.15427 
        5.29359         11.6231         1.14574 
        5.30933         11.5092         1.13728 
        5.32504         11.4511         1.12891 
        5.34073          11.373         1.12064 
        5.35646         11.2809         1.11244 
        5.37218         11.2002         1.10432 
        5.38789         11.1343          1.0963 
        5.40357         11.0172         1.08836 
        5.41929         10.9547         1.08048 
        5.43502         10.8775         1.07269 
         5.4507         10.7927         1.06498 
        5.46639         10.7039         1.05736 
        5.48212         10.6343         1.04979 
        5.49786         10.5602         1.04228 
        5.51353         10.4712         1.03489 
        5.52921         10.4045         1.02756 
        5.54495         10.3358         1.02028 
        5.56066         10.2558         1.01308 
        5.57637         10.1698         1.00595 
        5.59207         10.0904        0.998897 
        5.60778         10.0293        0.991908 
        5.62346         9.95991        0.984996 
        5.63916          9.8824        0.978143 
        5.65487         9.80771        0.971353 
         5.6706         9.74349        0.964619 
        5.68633         9.66234        0.957947 
        5.70203           9.602        0.951352 
        5.71773         9.51964        0.944821 
        5.73344         9.46948        0.938348 
        5.74916         9.38963         0.93193 
        5.76486         9.33004        0.925581 
        5.78054         9.25386        0.919301 
        5.79626         9.17306        0.913062 
          5.812         9.14373        0.906875 
         5.8277          9.0539        0.900764 
        5.84339         9.00509        0.894709 
        5.85911         8.94083        0.888699 
        5.87484         8.87728        0.882745 
        5.89053         8.81874        0.876858 
        5.90623          8.7391        0.871022 
        5.92195         8.68573        0.865229 
        5.93767         8.61643        0.859492 
        5.95336         8.55601        0.853818 
        5.96905         8.50324        0.848196 
        5.98476         8.45648        0.842618 
        6.00048          8.3837        0.837088 
        6.01617         8.32023        0.831616 
        6.03185         8.27736        0.826199 
        6.04756         8.22076        0.820818 
        6.06331         8.16371        0.815474 
        6.07903         8.09777        0.810188 
        6.09473         8.05992        0.804954 
        6.11044         7.99397        0.799763 
        6.12616         7.94612        0.794618 
        6.14186          7.8941        0.789524 
        6.15755         7.83874        0.784475 
        6.17326         7.78378        0.779466 
        6.18898         7.71327        0.774499 
        6.20467          7.6742        0.769584 
        6.22036         7.61822        0.764713 
         6.2361          7.5581         0.75987 
         6.2518         7.52512        0.755078 
        6.26748         7.47198        0.750338 
        6.28319         7.43297        0.745626 
        6.29893         7.37485         0.74095 
        6.31463         7.32246        0.736322 
        6.33033         7.28673        0.731736 
        6.34604         7.24019        0.727186 
        6.36177         7.17645         0.72267 
        6.37747         7.13866        0.718201 
