# k  (h/Mpc)    Pcb(k)  (Mpc/h)^3    Pcb_linear(k) (Mpc/h)^3   ShotnoiseSubtracted = true
      0.0200456         6009.46         6119.56 
      0.0350414         4644.96         4750.55 
      0.0492313         3640.53            3664 
      0.0637834         3150.08         3111.81 
      0.0800726         2485.29         2453.97 
       0.096163         1799.54         1834.35 
       0.111083         1484.64         1533.27 
       0.126058         1365.24         1361.05 
       0.142273         1151.18         1123.16 
       0.158546         956.973         906.949 
        0.17375         801.244         797.915 
       0.188953         760.423         720.544 
       0.204907         701.514         621.364 
       0.220756         594.458         532.379 
        0.23588         529.883         478.725 
         0.2514          469.47         436.158 
       0.267535         443.597         387.523 
       0.283568         403.256         343.495 
       0.299022         374.815          312.77 
       0.314451         345.737         287.473 
       0.330372         320.228          261.18 
       0.346141         289.792         237.311 
       0.361624         276.437         218.442 
       0.377134         260.843         202.255 
       0.392932         239.995         186.535 
       0.408854         230.773         171.934 
       0.424564         221.803         159.584 
       0.440253         209.077         148.725 
       0.455999         197.585         138.571 
       0.471626          182.47         129.286 
        0.48727         178.378          120.98 
       0.502856         170.885         113.537 
       0.518488         166.607         106.639 
       0.534347         159.005         100.167 
       0.550082         147.859         94.3133 
       0.565732         143.108         88.9923 
       0.581496         137.207         84.0381 
       0.597222         133.129         79.4549 
       0.612804         126.847         75.2573 
       0.628434         124.357         71.3683 
       0.644267         120.274         67.7126 
       0.660051         117.402         64.3231 
       0.675724         113.724         61.1871 
       0.691403         110.386         58.2598 
       0.707174         106.468         55.5093 
       0.722871         104.298          52.949 
        0.73838         102.256         50.5792 
       0.754018         97.5139         48.3379 
       0.769845         95.6734         46.2091 
        0.78569         93.3324         44.2079 
       0.801365         90.5068         42.3461 
       0.817031         87.7122          40.594 
       0.832809         86.6991          38.931 
       0.848511         83.2002         37.3696 
       0.864097         80.9764         35.9055 
       0.879701         80.3485         34.5193 
       0.895507          78.638         33.1907 
       0.911279          77.378         31.9355 
        0.92691         75.0697         30.7563 
       0.942635         73.0092         29.6308 
       0.958396         72.6291         28.5598 
       0.974128         70.8151         27.5443 
       0.989692         69.2422         26.5886 
        1.00528         68.0391         25.6774 
        1.02113         66.2617          24.795 
        1.03692         64.9007         23.9578 
        1.05264         64.1825         23.1636 
        1.06832         62.8761         22.4069 
        1.08405         62.0378         21.6824 
        1.09979         61.0294         20.9898 
        1.11537         58.8699         20.3347 
        1.13105         59.1508         19.7039 
        1.14679         58.0835         19.0976 
        1.16256         56.8769          18.516 
        1.17828         55.5549         17.9608 
        1.19395         54.9816         17.4304 
         1.2097         53.9922         16.9189 
        1.22537         53.5896         16.4307 
          1.241         52.3641         15.9633 
        1.25666         51.2421         15.5132 
        1.27241         50.9836         15.0785 
        1.28819         49.6138         14.6598 
        1.30392         48.9251         14.2585 
        1.31957         48.6453          13.874 
        1.33529         48.1043         13.5025 
        1.35108         47.3659         13.1433 
        1.36674         46.5154         12.7998 
         1.3824         45.4961          12.469 
        1.39811         45.3157         12.1489 
        1.41389         44.5627         11.8389 
        1.42964          43.883         11.5403 
        1.44531         43.4719         11.2536 
        1.46101          42.345         10.9761 
        1.47667         42.3056         10.7089 
        1.49229         41.9498         10.4514 
        1.50793         41.0255         10.2021 
        1.52367         40.6577         9.95944 
        1.53953         40.2503         9.72309 
        1.55526         39.5376         9.49637 
        1.57092         39.1669         9.27787 
        1.58662         38.6065         9.06579 
        1.60235         38.1949         8.85998 
        1.61809         37.5758         8.66052 
        1.63369         37.0643         8.46901 
        1.64941         36.4853         8.28198 
        1.66519         36.2061         8.09996 
        1.68085         35.8205         7.92476 
        1.69652         35.3898         7.75473 
        1.71228          35.101         7.58876 
        1.72806         34.5034         7.42756 
        1.74368         34.1022         7.27269 
        1.75933         33.6713         7.12197 
        1.77505          33.418         6.97485 
        1.79081         32.8713         6.83165 
         1.8065         32.5726         6.69312 
        1.82218         32.2218         6.55859 
        1.83797         31.8176         6.42686 
        1.85367         31.4108          6.2995 
        1.86928         31.0656         6.17639 
        1.88497         30.5839         6.05592 
        1.90073         30.5796         5.93824 
        1.91647         30.0432         5.82382 
        1.93218         29.7614         5.71268 
        1.94787         29.5032         5.60462 
        1.96363         29.2596         5.49896 
        1.97935         28.8743         5.39625 
        1.99499         28.5014         5.29677 
        2.01064         28.2259         5.19967 
         2.0264         27.8002         5.10441 
        2.04216         27.5169         5.01161 
        2.05781         27.3236         4.92171 
        2.07353           26.99         4.83371 
        2.08928         26.9071         4.74769 
        2.10499         26.5111         4.66401 
        2.12065         26.0979         4.58261 
        2.13633           25.92          4.5031 
        2.15211           25.49         4.42497 
        2.16785         25.3725         4.34893 
        2.18349         25.2061         4.27517 
        2.19916         24.8356         4.20297 
        2.21489         24.5591         4.13221 
        2.23063         24.3795         4.06305 
         2.2463         24.1936         3.99579 
        2.26194         23.9374         3.93023 
        2.27765         23.6265         3.86582 
        2.29341         23.3156         3.80269 
        2.30914         23.2249         3.74111 
        2.32486         22.9759         3.68094 
        2.34061         22.6792           3.622 
        2.35635         22.3866         3.56441 
        2.37203         22.2825         3.50828 
        2.38768         22.0749         3.45349 
        2.40339         21.8749         3.39967 
        2.41914          21.611         3.34689 
        2.43483         21.3666         3.29542 
         2.4505         21.1522         3.24512 
        2.46622         20.9343         3.19571 
        2.48195         20.7086         3.14733 
        2.49759         20.5465         3.10022 
        2.51328         20.3254         3.05395 
        2.52906          20.167         3.00835 
        2.54479         19.9537         2.96385 
        2.56049         19.7122         2.92034 
        2.57618         19.5945         2.87775 
        2.59189         19.4165         2.83595 
        2.60758         19.2656         2.79505 
        2.62325         19.0764         2.75501 
        2.63898         18.8833         2.71562 
        2.65468         18.7858         2.67709 
        2.67044         18.5176         2.63915 
        2.68618         18.3783         2.60203 
        2.70184         18.2003         2.56578 
        2.71755         17.9774         2.53014 
        2.73329         17.8517         2.49512 
        2.74897         17.6202         2.46089 
        2.76462         17.6706         2.42737 
        2.78034         17.4079         2.39435 
        2.79607         17.2132          2.3619 
        2.81179         17.0942          2.3301 
        2.82749         16.9743         2.29893 
        2.84321         16.7585         2.26829 
        2.85893         16.6174         2.23823 
        2.87462         16.4518         2.20876 
        2.89033         16.2819          2.1798 
        2.90605         16.1551         2.15134 
        2.92176         15.9959         2.12341 
        2.93747         15.8493         2.09598 
        2.95318         15.7372         2.06904 
        2.96891         15.5206         2.04257 
        2.98456          15.435         2.01667 
        3.00023         15.3436         1.99119 
        3.01596         15.1713         1.96608 
        3.03164         15.0413         1.94147 
        3.04738         14.8778         1.91721 
         3.0631         14.7777         1.89338 
        3.07883         14.6104         1.86995 
        3.09456         14.5019         1.84693 
        3.11026         14.3245         1.82433 
        3.12596         14.2364         1.80212 
        3.14163         14.1429         1.78032 
        3.15734         13.9722         1.75884 
        3.17308         13.8799         1.73767 
        3.18879         13.7603          1.7169 
        3.20447         13.6251         1.69651 
         3.2202         13.5042         1.67638 
         3.2359         13.4026         1.65662 
        3.25157         13.3072         1.63722 
        3.26729         13.1238         1.61808 
        3.28304         13.0519         1.59921 
        3.29877         12.9275         1.58067 
        3.31446         12.8294         1.56246 
        3.33014         12.6789         1.54456 
        3.34585         12.6132         1.52691 
        3.36158         12.4928         1.50952 
        3.37727         12.4027         1.49245 
        3.39294         12.2968         1.47566 
        3.40867          12.126         1.45907 
        3.42439          12.075         1.44275 
        3.44008         11.9689         1.42671 
        3.45578         11.8955          1.4109 
        3.47153         11.7825          1.3953 
        3.48724         11.6916         1.37996 
        3.50292         11.5373         1.36489 
        3.51859         11.4894         1.35006 
        3.53431         11.3887         1.33539 
        3.55007         11.3026         1.32092 
        3.56577         11.2088         1.30671 
        3.58146         11.1249         1.29273 
        3.59719         10.9894         1.27891 
        3.61292         10.9309          1.2653 
        3.62859         10.7962         1.25195 
        3.64429         10.7345         1.23876 
        3.66003         10.6516         1.22572 
        3.67578         10.5344         1.21288 
        3.69146          10.464         1.20027 
        3.70712          10.386         1.18786 
        3.72284         10.2999         1.17558 
        3.73853         10.2328          1.1635 
        3.75422         10.1367         1.15159 
        3.76993          10.035         1.13983 
        3.78564         9.94177         1.12824 
        3.80137         9.89718         1.11679 
        3.81707         9.79436         1.10553 
        3.83279         9.72275         1.09442 
        3.84853         9.64214         1.08344 
        3.86424          9.5542         1.07264 
        3.87992         9.48118         1.06199 
        3.89561         9.42342          1.0515 
        3.91134         9.35275         1.04112 
        3.92704         9.26534          1.0309 
        3.94273         9.20328         1.02082 
        3.95845         9.11974         1.01087 
        3.97418         9.02925         1.00104 
        3.98988         8.97679        0.991357 
        4.00554         8.87729         0.98183 
        4.02125          8.8297        0.972402 
        4.03698          8.7606        0.963084 
        4.05268         8.69854        0.953909 
        4.06839         8.60424        0.944848 
         4.0841         8.55243        0.935908 
        4.09983         8.49357        0.927072 
        4.11555         8.43117        0.918354 
        4.13124         8.34031        0.909772 
        4.14693         8.27082        0.901294 
        4.16266         8.22225        0.892904 
        4.17839         8.15789        0.884627 
        4.19408         8.08601        0.876475 
        4.20977         8.02013        0.868421 
        4.22551         7.95964        0.860451 
        4.24123         7.89852        0.852589 
        4.25691         7.84565        0.844847 
        4.27259         7.77769          0.8372 
        4.28831         7.72278        0.829632 
        4.30404         7.65165        0.822151 
        4.31974         7.57694        0.814779 
        4.33543         7.51011        0.807502 
        4.35116         7.48641        0.800297 
        4.36688         7.43285        0.793183 
        4.38255         7.35447        0.786182 
        4.39825         7.28435        0.779252 
        4.41398         7.25235        0.772391 
         4.4297         7.19409        0.765621 
        4.44541         7.13353        0.758933 
        4.46111         7.09823        0.752331 
        4.47683          7.0123        0.745803 
        4.49251          6.9965        0.739366 
        4.50819         6.92741        0.733007 
         4.5239         6.86572        0.726715 
        4.53962         6.82343        0.720488 
        4.55535         6.76992        0.714332 
        4.57106         6.70751        0.708257 
        4.58678         6.65834        0.702252 
         4.6025         6.61704        0.696316 
        4.61821         6.55504        0.690449 
        4.63391          6.5083        0.684658 
         4.6496         6.45369        0.678936 
        4.66532          6.4215        0.673271 
        4.68103         6.35559        0.667673 
        4.69673         6.32637        0.662145 
        4.71241         6.27997        0.656685 
        4.72811         6.20779        0.651278 
        4.74384         6.18295        0.645925 
        4.75955         6.12469        0.640641 
        4.77525         6.09799        0.635419 
        4.79096         6.04585        0.630249 
        4.80669         6.00048        0.625135 
         4.8224         5.96913        0.620083 
        4.83809         5.90544        0.615093 
        4.85379         5.85977        0.610155 
         4.8695         5.81876        0.605268 
        4.88521         5.77414        0.600436 
        4.90093         5.73604        0.595657 
        4.91663         5.69923        0.590934 
        4.93234         5.66117        0.586258 
        4.94807         5.61744        0.581629 
        4.96377         5.58063        0.577059 
        4.97943         5.53112        0.572549 
        4.99514         5.49385        0.568075 
        5.01086         5.44535        0.563646 
        5.02654         5.42349        0.559275 
        5.04227         5.36566        0.554938 
          5.058         5.33128        0.550646 
        5.07371         5.30085        0.546407 
        5.08942         5.27032        0.542213 
        5.10513         5.23725        0.538062 
        5.12084         5.20559        0.533954 
        5.13656         5.16359        0.529889 
        5.15225         5.12909        0.525873 
        5.16796         5.08788        0.521893 
        5.18369          5.0478        0.517951 
         5.1994         5.02338        0.514056 
        5.21509         4.98641        0.510206 
        5.23079          4.9515         0.50639 
        5.24649         4.91295        0.502617 
        5.26217         4.87861        0.498885 
        5.27788         4.84335        0.495186 
        5.29359         4.81097        0.491524 
        5.30933         4.78047        0.487893 
        5.32504          4.7565        0.484306 
        5.34073         4.70762        0.480759 
        5.35646         4.67405        0.477241 
        5.37218         4.64332        0.473757 
        5.38789         4.61671        0.470313 
        5.40357         4.57354        0.466909 
        5.41929         4.55959         0.46353 
        5.43502         4.52945        0.460185 
         5.4507         4.48872         0.45688 
        5.46639         4.45578        0.453608 
        5.48212         4.42842        0.450361 
        5.49786         4.39923        0.447141 
        5.51353         4.36922        0.443969 
        5.52921         4.34194        0.440825 
        5.54495          4.3113        0.437703 
        5.56066         4.28037        0.434614 
        5.57637         4.25901        0.431555 
        5.59207         4.22764        0.428529 
        5.60778         4.20272         0.42553 
        5.62346         4.16494        0.422565 
        5.63916         4.14358        0.419625 
        5.65487         4.11229        0.416712 
         5.6706         4.08196        0.413824 
        5.68633         4.06608        0.410961 
        5.70203         4.03772        0.408132 
        5.71773         4.01566         0.40533 
        5.73344         3.99393        0.402553 
        5.74916         3.95532          0.3998 
        5.76486           3.933        0.397076 
        5.78054         3.90419        0.394382 
        5.79626         3.88403        0.391706 
          5.812         3.85959        0.389051 
         5.8277         3.83931         0.38643 
        5.84339         3.80944        0.383832 
        5.85911         3.79098        0.381254 
        5.87484         3.76697        0.378699 
        5.89053          3.7425        0.376174 
        5.90623         3.71406         0.37367 
        5.92195         3.69215        0.371185 
        5.93767         3.67271        0.368724 
        5.95336         3.64757         0.36629 
        5.96905         3.61952        0.363878 
        5.98476         3.60088        0.361485 
        6.00048         3.57465        0.359113 
        6.01617         3.56006        0.356765 
        6.03185         3.53108        0.354441 
        6.04756         3.51669        0.352133 
        6.06331         3.49342         0.34984 
        6.07903         3.47398        0.347572 
        6.09473         3.44873        0.345327 
        6.11044         3.42661          0.3431 
        6.12616         3.40381        0.340893 
        6.14186         3.38089        0.338707 
        6.15755         3.36505        0.336541 
        6.17326         3.34965        0.334393 
        6.18898         3.32454        0.332262 
        6.20467         3.30199        0.330153 
        6.22036         3.28341        0.328063 
         6.2361          3.2667        0.325986 
         6.2518         3.24756         0.32393 
        6.26748         3.22935        0.321897 
        6.28319         3.20795        0.319875 
        6.29893         3.18555        0.317869 
        6.31463         3.17126        0.315884 
        6.33033         3.14843        0.313916 
        6.34604         3.12647        0.311964 
        6.36177         3.10679        0.310027 
        6.37747         3.09485         0.30811 
