# k  (h/Mpc)    Pcb(k)  (Mpc/h)^3    Pcb_linear(k) (Mpc/h)^3   ShotnoiseSubtracted = true
      0.0200456         2127.04          1847.7 
      0.0350414         1503.57         1319.94 
      0.0492313         1035.61         956.364 
      0.0637834         773.299         796.505 
      0.0800726         609.081         624.759 
       0.096163         438.654         449.307 
       0.111083         379.661         361.571 
       0.126058         323.457         321.691 
       0.142273         256.845         268.669 
       0.158546           214.6         210.947 
        0.17375         181.923         179.776 
       0.188953         167.496         163.312 
       0.204907         138.036         142.825 
       0.220756         125.458         120.166 
        0.23588          104.76         105.419 
         0.2514         99.4887          96.193 
       0.267535         90.8198         86.3682 
       0.283568         77.9829         75.7807 
       0.299022         67.7033          67.847 
       0.314451         66.6715         62.2389 
       0.330372          58.587         56.8725 
       0.346141         56.2309         51.4194 
       0.361624         50.9703         46.8191 
       0.377134         46.2158         43.1949 
       0.392932         43.1818         39.9139 
       0.408854         40.9329         36.6985 
       0.424564         37.2091         33.8339 
       0.440253         34.6278          31.415 
       0.455999         32.6436         29.2602 
       0.471626         30.6118         27.2483 
        0.48727          28.416         25.3966 
       0.502856         26.6495         23.7574 
       0.518488         25.4585         22.2805 
       0.534347         24.1229         20.8944 
       0.550082         22.8026         19.6201 
       0.565732         21.5326         18.4661 
       0.581496         20.5221         17.4063 
       0.597222         19.1942         16.4296 
       0.612804         18.2399         15.5308 
       0.628434         17.9021         14.6968 
       0.644267         16.7562         13.9182 
       0.660051         16.0318          13.199 
       0.675724         15.3833         12.5347 
       0.691403         14.5974         11.9156 
       0.707174         14.1614         11.3347 
       0.722871         13.3818         10.7949 
        0.73838         12.7987         10.2961 
       0.754018          12.348         9.82499 
       0.769845         11.7567         9.37828 
        0.78569         11.3014         8.95901 
       0.801365           10.91         8.56957 
       0.817031         10.5709         8.20367 
       0.832809         10.0823         7.85693 
       0.848511         9.89675          7.5319 
       0.864097         9.49809         7.22757 
       0.879701         9.20272         6.93986 
       0.895507          8.8755         6.66449 
       0.911279         8.55764         6.40471 
        0.92691         8.26871         6.16099 
       0.942635         8.05216         5.92866 
       0.958396         7.79662         5.70788 
       0.974128         7.62227         5.49878 
       0.989692         7.29194         5.30227 
        1.00528         7.09712         5.11511 
        1.02113         6.85388         4.93408 
        1.03692         6.64855         4.76252 
        1.05264         6.46721         4.59994 
        1.06832         6.34966         4.44524 
        1.08405         6.06941         4.29727 
        1.09979         5.93937         4.15597 
        1.11537         5.84402         4.02245 
        1.13105         5.64864         3.89402 
        1.14679         5.50135         3.77073 
        1.16256         5.40204         3.65256 
        1.17828         5.24174         3.53985 
        1.19395         5.11588         3.43231 
         1.2097         5.01833          3.3287 
        1.22537         4.87412         3.22988 
          1.241         4.72975         3.13539 
        1.25666         4.61194         3.04446 
        1.27241         4.54094         2.95672 
        1.28819         4.41577          2.8723 
        1.30392         4.35795         2.79144 
        1.31957         4.24714         2.71406 
        1.33529         4.15818         2.63934 
        1.35108           4.027         2.56714 
        1.36674         3.98748         2.49817 
         1.3824         3.85453         2.43181 
        1.39811         3.77045         2.36764 
        1.41389         3.69157         2.30555 
        1.42964         3.64863          2.2458 
        1.44531         3.54022         2.18846 
        1.46101         3.47957         2.13301 
        1.47667         3.41355         2.07965 
        1.49229         3.34773         2.02826 
        1.50793         3.26578         1.97856 
        1.52367         3.22294         1.93021 
        1.53953         3.16624         1.88315 
        1.55526         3.09798         1.83804 
        1.57092         3.01349          1.7946 
        1.58662         2.97306         1.75246 
        1.60235         2.92549          1.7116 
        1.61809         2.87118         1.67202 
        1.63369         2.81757         1.63405 
        1.64941         2.79235         1.59699 
        1.66519         2.72197         1.56094 
        1.68085         2.66612         1.52627 
        1.69652         2.62453         1.49264 
        1.71228         2.59936         1.45984 
        1.72806         2.54733           1.428 
        1.74368         2.49732         1.39743 
        1.75933         2.45015          1.3677 
        1.77505         2.40928         1.33869 
        1.79081         2.37481         1.31048 
         1.8065         2.33499          1.2832 
        1.82218          2.2931         1.25673 
        1.83797         2.26352         1.23082 
        1.85367         2.22041         1.20578 
        1.86928         2.18593          1.1816 
        1.88497         2.15719         1.15794 
        1.90073         2.11972         1.13485 
        1.91647         2.09456         1.11241 
        1.93218         2.04945         1.09063 
        1.94787         2.02585         1.06946 
        1.96363         1.98476         1.04877 
        1.97935         1.97177         1.02867 
        1.99499         1.94114         1.00921 
        2.01064         1.91054        0.990229 
         2.0264         1.89091        0.971616 
        2.04216         1.86289        0.953492 
        2.05781         1.82471        0.935946 
        2.07353         1.80198        0.918779 
        2.08928         1.78075        0.902006 
        2.10499         1.75529        0.885697 
        2.12065         1.72819        0.869841 
        2.13633         1.69382         0.85436 
        2.15211         1.67672        0.839156 
        2.16785         1.65927        0.824365 
        2.18349         1.64159        0.810024 
        2.19916         1.61848        0.795994 
        2.21489         1.58656         0.78225 
        2.23063         1.57204        0.768822 
         2.2463         1.54894         0.75577 
        2.26194         1.53565        0.743054 
        2.27765         1.51195        0.730565 
        2.29341         1.49285        0.718332 
        2.30914         1.47221        0.706404 
        2.32486         1.45462        0.694753 
        2.34061         1.43616        0.683347 
        2.35635         1.41313        0.672207 
        2.37203         1.40905        0.661354 
        2.38768         1.39373        0.650763 
        2.40339         1.37021        0.640366 
        2.41914          1.3499        0.630172 
        2.43483         1.33831        0.620237 
         2.4505         1.31455        0.610532 
        2.46622         1.30056        0.601002 
        2.48195         1.28575        0.591675 
        2.49759         1.27602        0.582596 
        2.51328         1.25909        0.573683 
        2.52906         1.23767        0.564901 
        2.54479         1.22972        0.556336 
        2.56049         1.21335        0.547965 
        2.57618         1.20523        0.539773 
        2.59189         1.18418        0.531737 
        2.60758         1.17303        0.523877 
        2.62325         1.16391        0.516186 
        2.63898         1.15153        0.508622 
        2.65468         1.13445        0.501226 
        2.67044         1.12503        0.493946 
        2.68618          1.1155        0.486827 
        2.70184         1.10144        0.479876 
        2.71755         1.08567        0.473044 
        2.73329         1.07536        0.466335 
        2.74897         1.06635        0.459778 
        2.76462          1.0506        0.453361 
        2.78034         1.03983        0.447041 
        2.79607            1.03        0.440834 
        2.81179         1.02221        0.434753 
        2.82749         1.01059        0.428793 
        2.84321         1.00058        0.422938 
        2.85893        0.993435        0.417194 
        2.87462        0.981086        0.411567 
        2.89033        0.969833        0.406038 
        2.90605         0.96088        0.400607 
        2.92176        0.951004        0.395277 
        2.93747         0.94585        0.390047 
        2.95318        0.940734        0.384911 
        2.96891        0.927476        0.379865 
        2.98456        0.912584        0.374932 
        3.00023        0.907481        0.370079 
        3.01596        0.896478        0.365297 
        3.03164        0.893025        0.360613 
        3.04738          0.8828        0.355998 
         3.0631        0.872138        0.351465 
        3.07883        0.867531         0.34701 
        3.09456        0.858471        0.342634 
        3.11026        0.850785         0.33834 
        3.12596        0.842428         0.33412 
        3.14163        0.835824        0.329981 
        3.15734        0.829485        0.325904 
        3.17308        0.821515        0.321885 
        3.18879        0.814676        0.317945 
        3.20447        0.802264        0.314076 
         3.2202         0.79859        0.310261 
         3.2359         0.79028        0.306515 
        3.25157        0.788018         0.30284 
        3.26729        0.778872        0.299214 
        3.28304         0.77516         0.29564 
        3.29877        0.766905         0.29213 
        3.31446        0.760109        0.288684 
        3.33014         0.75317        0.285297 
        3.34585        0.745194        0.281959 
        3.36158        0.742053        0.278669 
        3.37727         0.73381        0.275442 
        3.39294        0.726778        0.272269 
        3.40867        0.724713        0.269135 
        3.42439        0.716161        0.266052 
        3.44008        0.711101        0.263023 
        3.45578        0.706037        0.260039 
        3.47153         0.69961        0.257095 
        3.48724        0.696211        0.254201 
        3.50292        0.690198        0.251359 
        3.51859        0.685721        0.248561 
        3.53431        0.678628        0.245798 
        3.55007        0.670712        0.243069 
        3.56577        0.669649        0.240393 
        3.58146        0.662849        0.237759 
        3.59719        0.657508        0.235157 
        3.61292        0.653563        0.232596 
        3.62859        0.648914        0.230082 
        3.64429        0.645745        0.227601 
        3.66003        0.638295        0.225148 
        3.67578        0.635816        0.222733 
        3.69146        0.631592        0.220362 
        3.70712         0.62667         0.21803 
        3.72284        0.622568        0.215723 
        3.73853        0.617436        0.213454 
        3.75422        0.613715        0.211216 
        3.76993        0.608409        0.209009 
        3.78564        0.603328        0.206833 
        3.80137        0.599993        0.204686 
        3.81707        0.598741        0.202573 
        3.83279        0.592229        0.200488 
        3.84853        0.588791         0.19843 
        3.86424        0.584445        0.196404 
        3.87992         0.58108        0.194409 
        3.89561        0.575517        0.192443 
        3.91134        0.573625        0.190499 
        3.92704        0.569248        0.188584 
        3.94273        0.563333        0.186698 
        3.95845        0.561366        0.184834 
        3.97418        0.557678        0.182995 
        3.98988        0.554491        0.181183 
        4.00554        0.550739        0.179401 
        4.02125        0.545604        0.177638 
        4.03698        0.541266        0.175896 
        4.05268         0.53755        0.174181 
        4.06839        0.533074        0.172488 
         4.0841        0.526436        0.170817 
        4.09983        0.522945        0.169167 
        4.11555        0.520257        0.167539 
        4.13124        0.515185        0.165937 
        4.14693        0.509969        0.164354 
        4.16266        0.505011        0.162788 
        4.17839        0.502437        0.161244 
        4.19408        0.498629        0.159723 
        4.20977        0.495117        0.158222 
        4.22551        0.490265        0.156735 
        4.24123        0.487567         0.15527 
        4.25691        0.484533        0.153827 
        4.27259        0.481435        0.152402 
        4.28831        0.476303        0.150993 
        4.30404        0.473989        0.149599 
        4.31974         0.47105        0.148227 
        4.33543        0.467572        0.146872 
        4.35116        0.464794        0.145531 
        4.36688        0.460775        0.144207 
        4.38255        0.458907        0.142905 
        4.39825        0.456473        0.141616 
        4.41398        0.454955         0.14034 
         4.4297        0.451217        0.139082 
        4.44541        0.448243        0.137839 
        4.46111        0.447945        0.136612 
        4.47683        0.444346        0.135399 
        4.49251        0.441145        0.134203 
        4.50819         0.44062        0.133022 
         4.5239        0.437572        0.131854 
        4.53962        0.435756        0.130698 
        4.55535        0.434435        0.129556 
        4.57106         0.43166        0.128428 
        4.58678        0.428825        0.127314 
         4.6025        0.427706        0.126213 
        4.61821        0.425859        0.125125 
        4.63391        0.424159        0.124052 
         4.6496         0.42213        0.122991 
        4.66532        0.421771        0.121941 
        4.68103        0.418812        0.120904 
        4.69673        0.418569         0.11988 
        4.71241        0.416707        0.118868 
        4.72811        0.414432        0.117867 
        4.74384        0.413385        0.116876 
        4.75955        0.412802        0.115898 
        4.77525        0.410459        0.114932 
        4.79096        0.409927        0.113975 
        4.80669        0.408695        0.113029 
         4.8224        0.408995        0.112095 
        4.83809        0.407437        0.111172 
        4.85379        0.406124        0.110259 
         4.8695        0.404918        0.109355 
        4.88521        0.404155        0.108462 
        4.90093        0.403603        0.107579 
        4.91663        0.403166        0.106707 
        4.93234        0.402638        0.105843 
        4.94807        0.402257        0.104988 
        4.96377        0.402222        0.104144 
        4.97943        0.402867        0.103312 
        4.99514        0.399917        0.102486 
        5.01086        0.400993        0.101669 
        5.02654        0.398977        0.100862 
        5.04227        0.399341        0.100062 
          5.058        0.399855       0.0992706 
        5.07371         0.39861       0.0984891 
        5.08942        0.399286       0.0977158 
        5.10513        0.398635       0.0969507 
        5.12084        0.399556       0.0961935 
        5.13656        0.398966       0.0954445 
        5.15225         0.39815       0.0947047 
        5.16796        0.400566       0.0939715 
        5.18369        0.398915       0.0932455 
         5.1994        0.399292       0.0925285 
        5.21509        0.400496       0.0918196 
        5.23079        0.401069       0.0911173 
        5.24649        0.398689       0.0904229 
        5.26217        0.400637       0.0897362 
        5.27788        0.401206       0.0890557 
        5.29359        0.401223       0.0883821 
        5.30933        0.401431       0.0877145 
        5.32504        0.402494       0.0870549 
        5.34073        0.403201       0.0864029 
        5.35646         0.40198       0.0857561 
        5.37218        0.404342       0.0851159 
        5.38789        0.403721       0.0844833 
        5.40357        0.404492       0.0838578 
        5.41929        0.404966       0.0832372 
        5.43502        0.406335       0.0826228 
         5.4507        0.406256       0.0820161 
        5.46639        0.406497       0.0814154 
        5.48212          0.4083       0.0808194 
        5.49786        0.408495       0.0802285 
        5.51353        0.411387       0.0796465 
        5.52921         0.40941       0.0790697 
        5.54495        0.412209       0.0784969 
        5.56066        0.412756       0.0779304 
        5.57637        0.413102       0.0773696 
        5.59207          0.4142       0.0768148 
        5.60778        0.415517       0.0762652 
        5.62346        0.415848       0.0757217 
        5.63916        0.416198        0.075183 
        5.65487         0.41866       0.0746493 
         5.6706        0.420145       0.0741201 
        5.68633        0.421955       0.0735959 
        5.70203        0.421103       0.0730778 
        5.71773        0.423362       0.0725648 
        5.73344        0.424254       0.0720564 
        5.74916        0.425595       0.0715525 
        5.76486        0.427354        0.071054 
        5.78054        0.427439       0.0705611 
        5.79626        0.428783       0.0700714 
          5.812        0.430826       0.0695859 
         5.8277        0.431862       0.0691064 
        5.84339        0.432099       0.0686315 
        5.85911         0.43368         0.06816 
        5.87484        0.434957       0.0676931 
        5.89053        0.434577       0.0672315 
        5.90623        0.436202        0.066774 
        5.92195        0.438272       0.0663199 
        5.93767        0.438512       0.0658703 
        5.95336        0.440334       0.0654257 
        5.96905        0.441662       0.0649852 
        5.98476        0.441142       0.0645482 
        6.00048        0.442639       0.0641151 
        6.01617        0.444834       0.0636866 
        6.03185        0.446681       0.0632625 
        6.04756        0.446777       0.0628412 
        6.06331        0.448997       0.0624228 
        6.07903        0.450703       0.0620092 
        6.09473        0.450986       0.0615996 
        6.11044        0.452683       0.0611934 
        6.12616        0.454453        0.060791 
        6.14186        0.455392       0.0603925 
        6.15755        0.455438       0.0599976 
        6.17326        0.457985        0.059606 
        6.18898        0.458988       0.0592177 
        6.20467        0.458879       0.0588335 
        6.22036          0.4618       0.0584527 
         6.2361        0.462162       0.0580743 
         6.2518        0.464293       0.0576999 
        6.26748        0.463207       0.0573296 
        6.28319        0.465394       0.0569615 
        6.29893        0.466488       0.0565963 
        6.31463         0.46943        0.056235 
        6.33033        0.467584       0.0558769 
        6.34604        0.469201       0.0555216 
        6.36177        0.469928       0.0551692 
        6.37747        0.472167       0.0548204 
