# k  (h/Mpc)    Pcb(k)  (Mpc/h)^3    Pcb_linear(k) (Mpc/h)^3   ShotnoiseSubtracted = true
      0.0200456         16440.6         14284.4 
      0.0350414         11324.5         10204.3 
      0.0492313         7772.88         7393.53 
      0.0637834         6003.11         6157.68 
      0.0800726         4561.47         4829.94 
       0.096163         3375.88         3473.54 
       0.111083         2977.63         2795.26 
       0.126058         2573.59         2486.95 
       0.142273         2127.17         2077.05 
       0.158546         1809.68          1630.8 
        0.17375         1511.71         1389.83 
       0.188953         1379.89         1262.54 
       0.204907          1170.1         1104.16 
       0.220756         1111.52         928.991 
        0.23588         975.982         814.983 
         0.2514         881.143         743.656 
       0.267535         826.145         667.702 
       0.283568          758.12         585.851 
       0.299022         679.419         524.517 
       0.314451         662.853         481.161 
       0.330372         604.823         439.674 
       0.346141          575.87         397.517 
       0.361624         532.267         361.953 
       0.377134         504.982         333.935 
       0.392932         473.852          308.57 
       0.408854         459.617         283.712 
       0.424564         421.939         261.566 
       0.440253         420.773         242.865 
       0.455999         391.767         226.207 
       0.471626         389.984         210.653 
        0.48727          358.96         196.338 
       0.502856         348.745         183.665 
       0.518488         338.078         172.248 
       0.534347         317.186         161.532 
       0.550082         314.398          151.68 
       0.565732         299.915         142.759 
       0.581496          291.36         134.566 
       0.597222         277.318         127.015 
       0.612804         272.748         120.067 
       0.628434         266.795         113.619 
       0.644267         255.825           107.6 
       0.660051         249.887          102.04 
       0.675724           239.8         96.9045 
       0.691403         236.493         92.1179 
       0.707174         227.498         87.6275 
       0.722871         221.548         83.4544 
        0.73838         215.208         79.5977 
       0.754018         211.247         75.9558 
       0.769845         205.992         72.5023 
        0.78569         201.505          69.261 
       0.801365         194.358         66.2503 
       0.817031           192.5         63.4216 
       0.832809         187.251          60.741 
       0.848511          183.15         58.2282 
       0.864097         178.663         55.8755 
       0.879701         175.979         53.6512 
       0.895507         171.022         51.5224 
       0.911279         165.997          49.514 
        0.92691         164.742         47.6298 
       0.942635         160.857         45.8338 
       0.958396         157.764         44.1269 
       0.974128         154.706         42.5104 
       0.989692         152.058         40.9912 
        1.00528          149.72         39.5443 
        1.02113         145.281         38.1448 
        1.03692         142.636         36.8185 
        1.05264         140.376         35.5616 
        1.06832         138.038         34.3656 
        1.08405         136.616         33.2216 
        1.09979         132.648         32.1293 
        1.11537         131.219          31.097 
        1.13105         129.032         30.1042 
        1.14679         126.851          29.151 
        1.16256          124.24         28.2375 
        1.17828         123.274         27.3662 
        1.19395         120.974         26.5347 
         1.2097         118.038         25.7338 
        1.22537         116.359         24.9698 
          1.241         113.881         24.2393 
        1.25666         112.782         23.5364 
        1.27241         110.653         22.8581 
        1.28819         107.285         22.2054 
        1.30392         107.145         21.5803 
        1.31957         105.673         20.9821 
        1.33529         103.361         20.4044 
        1.35108         101.975         19.8463 
        1.36674         100.567         19.3131 
         1.3824         99.3055            18.8 
        1.39811         97.3344         18.3039 
        1.41389         95.9905         17.8239 
        1.42964         94.0337          17.362 
        1.44531         92.4431         16.9187 
        1.46101         91.9506           16.49 
        1.47667         90.2361         16.0775 
        1.49229          88.666         15.6803 
        1.50793         87.8978          15.296 
        1.52367         85.8597         14.9222 
        1.53953         85.0962         14.5584 
        1.55526         83.8916         14.2096 
        1.57092         82.2912         13.8738 
        1.58662         80.7472          13.548 
        1.60235         79.7585         13.2321 
        1.61809         78.4511         12.9262 
        1.63369         77.7179         12.6326 
        1.64941         76.1886         12.3461 
        1.66519         74.9096         12.0675 
        1.68085         74.0626         11.7994 
        1.69652         72.9557         11.5394 
        1.71228           72.28         11.2859 
        1.72806          71.174         11.0397 
        1.74368          70.113         10.8034 
        1.75933          69.208         10.5735 
        1.77505          68.184         10.3493 
        1.79081         67.1301         10.1312 
         1.8065         65.8608         9.92028 
        1.82218         65.3391          9.7156 
        1.83797         64.6387          9.5153 
        1.85367         63.6866         9.32176 
        1.86928         63.0244         9.13478 
        1.88497         61.8224         8.95192 
        1.90073          61.355          8.7734 
        1.91647         60.0949         8.59991 
        1.93218         59.4651         8.43149 
        1.94787         58.5967         8.26784 
        1.96363         57.8859         8.10789 
        1.97935         56.8542         7.95251 
        1.99499         56.0841         7.80208 
        2.01064         55.2743         7.65533 
         2.0264         54.7122         7.51145 
        2.04216         53.7922         7.37133 
        2.05781         52.8692         7.23568 
        2.07353         52.4638         7.10297 
        2.08928         51.9833          6.9733 
        2.10499         51.0205         6.84721 
        2.12065         50.5185         6.72463 
        2.13633         49.9725         6.60495 
        2.15211         49.0089         6.48741 
        2.16785          48.457         6.37306 
        2.18349          48.198         6.26219 
        2.19916         47.4247         6.15373 
        2.21489         46.9046         6.04748 
        2.23063         46.1456         5.94367 
         2.2463         45.7721         5.84277 
        2.26194          45.002         5.74446 
        2.27765         44.2798         5.64791 
        2.29341         43.8357         5.55333 
        2.30914         43.2221         5.46112 
        2.32486         42.7615         5.37105 
        2.34061         42.2181         5.28287 
        2.35635         41.7808         5.19675 
        2.37203         41.0029         5.11284 
        2.38768         40.7206         5.03097 
        2.40339         40.3763         4.95059 
        2.41914         39.9915         4.87179 
        2.43483         39.3813         4.79497 
         2.4505         38.6937         4.71995 
        2.46622         38.4157         4.64627 
        2.48195         38.0547         4.57417 
        2.49759         37.4986         4.50397 
        2.51328         36.7835         4.43507 
        2.52906         36.4568         4.36718 
        2.54479         36.1684         4.30096 
        2.56049         35.5807         4.23625 
        2.57618         35.0404         4.17292 
        2.59189         34.9172         4.11079 
        2.60758         34.3229         4.05003 
        2.62325         33.9778         3.99057 
        2.63898         33.6065          3.9321 
        2.65468         33.0412         3.87492 
        2.67044         32.7978         3.81863 
        2.68618         32.2591          3.7636 
        2.70184         32.0214         3.70986 
        2.71755          31.607         3.65705 
        2.73329         31.1827         3.60518 
        2.74897         30.9505         3.55449 
        2.76462         30.5767         3.50488 
        2.78034         30.2335         3.45602 
        2.79607         29.9087         3.40804 
        2.81179         29.4656         3.36102 
        2.82749          29.148         3.31494 
        2.84321         28.9184         3.26968 
        2.85893         28.3946         3.22528 
        2.87462         28.1265         3.18177 
        2.89033         27.9595         3.13903 
        2.90605         27.5947         3.09704 
        2.92176         27.2445         3.05584 
        2.93747         26.9295         3.01541 
        2.95318         26.5367          2.9757 
        2.96891         26.2935         2.93669 
        2.98456         26.1319         2.89855 
        3.00023         25.8738         2.86103 
        3.01596         25.4844         2.82406 
        3.03164         25.1609         2.78785 
        3.04738         24.8818         2.75217 
         3.0631         24.6915         2.71713 
        3.07883         24.3906         2.68269 
        3.09456         24.1516         2.64886 
        3.11026         23.8098         2.61566 
        3.12596         23.5524         2.58304 
        3.14163         23.3389         2.55105 
        3.15734         23.0003         2.51952 
        3.17308         22.9144         2.48845 
        3.18879         22.5787         2.45799 
        3.20447         22.3586         2.42809 
         3.2202         22.1067         2.39859 
         3.2359         21.8716         2.36963 
        3.25157         21.5854         2.34122 
        3.26729         21.3651         2.31319 
        3.28304         21.2368         2.28556 
        3.29877         20.9123         2.25842 
        3.31446         20.7907         2.23178 
        3.33014         20.5872         2.20559 
        3.34585         20.3866         2.17979 
        3.36158         20.0647         2.15436 
        3.37727         19.8659         2.12941 
        3.39294         19.6479         2.10488 
        3.40867         19.4843         2.08065 
        3.42439          19.318         2.05681 
        3.44008         19.0906          2.0334 
        3.45578         18.9355         2.01033 
        3.47153         18.7385         1.98757 
        3.48724         18.5362          1.9652 
        3.50292         18.3095         1.94322 
        3.51859         18.0951          1.9216 
        3.53431         17.9528         1.90023 
        3.55007         17.7335         1.87914 
        3.56577         17.5493         1.85845 
        3.58146         17.4292         1.83808 
        3.59719         17.2734         1.81797 
        3.61292         17.0436         1.79817 
        3.62859         16.9181         1.77874 
        3.64429         16.7292         1.75955 
        3.66003         16.5427         1.74059 
        3.67578          16.389         1.72192 
        3.69146         16.2227         1.70359 
        3.70712         16.0558         1.68556 
        3.72284         15.8967         1.66773 
        3.73853         15.7669         1.65018 
        3.75422          15.633         1.63289 
        3.76993         15.4896         1.61582 
        3.78564         15.3111           1.599 
        3.80137         15.1471          1.5824 
        3.81707         14.9905         1.56607 
        3.83279         14.8528         1.54995 
        3.84853          14.694         1.53403 
        3.86424         14.6116         1.51837 
        3.87992          14.431         1.50296 
        3.89561         14.2874         1.48775 
        3.91134         14.1494         1.47272 
        3.92704         14.0528         1.45792 
        3.94273          13.917         1.44334 
        3.95845         13.7673         1.42893 
        3.97418         13.6319         1.41471 
        3.98988         13.5081         1.40071 
        4.00554         13.3902         1.38693 
        4.02125         13.2803          1.3733 
        4.03698         13.1157         1.35983 
        4.05268         13.0053         1.34657 
        4.06839          12.905         1.33348 
         4.0841         12.7475         1.32057 
        4.09983         12.6411         1.30781 
        4.11555         12.5325         1.29522 
        4.13124         12.4132         1.28284 
        4.14693         12.3261          1.2706 
        4.16266         12.1848          1.2585 
        4.17839         12.1159         1.24656 
        4.19408         11.9638          1.2348 
        4.20977         11.8263         1.22319 
        4.22551         11.7806          1.2117 
        4.24123         11.6186         1.20037 
        4.25691         11.5532         1.18922 
        4.27259         11.4385          1.1782 
        4.28831         11.3442         1.16731 
        4.30404         11.2154         1.15653 
        4.31974          11.128         1.14592 
        4.33543         11.0486         1.13545 
        4.35116         10.9027         1.12508 
        4.36688         10.8693         1.11485 
        4.38255         10.7131         1.10478 
        4.39825         10.6823         1.09482 
        4.41398         10.5408         1.08495 
         4.4297         10.4831         1.07522 
        4.44541         10.3461         1.06561 
        4.46111         10.2704         1.05613 
        4.47683         10.2022         1.04675 
        4.49251         10.1157         1.03751 
        4.50819         9.99923         1.02838 
         4.5239         9.94263         1.01935 
        4.53962         9.84599         1.01041 
        4.55535         9.76294         1.00158 
        4.57106         9.65439        0.992864 
        4.58678         9.59637        0.984251 
         4.6025         9.51804        0.975739 
        4.61821         9.42545        0.967328 
        4.63391         9.32716        0.959028 
         4.6496         9.26828        0.950828 
        4.66532         9.17777        0.942711 
        4.68103         9.09115        0.934693 
        4.69673         9.01679        0.926775 
        4.71241         8.96539        0.918957 
        4.72811         8.86591        0.911216 
        4.74384         8.80859        0.903555 
        4.75955         8.72959        0.895993 
        4.77525         8.65939        0.888522 
        4.79096         8.57663        0.881127 
        4.80669         8.50562        0.873812 
         4.8224         8.44565        0.866589 
        4.83809         8.36095        0.859455 
        4.85379         8.30252        0.852397 
         4.8695         8.22559        0.845412 
        4.88521         8.14946        0.838509 
        4.90093         8.09991        0.831682 
        4.91663           8.049        0.824937 
        4.93234         7.97844        0.818259 
        4.94807         7.89683        0.811651 
        4.96377         7.84848        0.805128 
        4.97943         7.77236         0.79869 
        4.99514         7.70127        0.792307 
        5.01086         7.64979        0.785988 
        5.02654         7.60316        0.779754 
        5.04227         7.53761        0.773569 
          5.058         7.46298        0.767449 
        5.07371         7.40437        0.761407 
        5.08942         7.34706        0.755429 
        5.10513         7.31268        0.749514 
        5.12084         7.24739         0.74366 
        5.13656         7.19485        0.737869 
        5.15225         7.13509         0.73215 
        5.16796         7.06968        0.726482 
        5.18369         7.02331         0.72087 
         5.1994         6.97035        0.715326 
        5.21509         6.89972        0.709846 
        5.23079         6.85425        0.704417 
        5.24649         6.80151        0.699048 
        5.26217         6.75369         0.69374 
        5.27788         6.69723        0.688479 
        5.29359          6.6557        0.683271 
        5.30933          6.6062         0.67811 
        5.32504         6.55834        0.673011 
        5.34073         6.49258         0.66797 
        5.35646         6.45262         0.66297 
        5.37218         6.39794        0.658021 
        5.38789         6.34484         0.65313 
        5.40357         6.29868        0.648294 
        5.41929          6.2459        0.643496 
        5.43502         6.21474        0.638747 
         5.4507         6.16606        0.634057 
        5.46639         6.12671        0.629413 
        5.48212         6.07444        0.624804 
        5.49786         6.03302        0.620237 
        5.51353         5.99221        0.615738 
        5.52921         5.93484        0.611278 
        5.54495          5.8998         0.60685 
        5.56066         5.85253         0.60247 
        5.57637         5.81023        0.598135 
        5.59207         5.76222        0.593845 
        5.60778         5.71662        0.589597 
        5.62346         5.68645        0.585395 
        5.63916         5.64109        0.581231 
        5.65487         5.60647        0.577105 
         5.6706         5.55493        0.573014 
        5.68633          5.5277        0.568961 
        5.70203         5.47744        0.564956 
        5.71773         5.43832         0.56099 
        5.73344         5.39706        0.557059 
        5.74916         5.36471        0.553163 
        5.76486         5.32526         0.54931 
        5.78054         5.29035        0.545499 
        5.79626         5.24824        0.541713 
          5.812         5.21558         0.53796 
         5.8277         5.18576        0.534253 
        5.84339         5.14818        0.530581 
        5.85911         5.10171        0.526937 
        5.87484         5.07857        0.523327 
        5.89053         5.02512        0.519759 
        5.90623         4.99723        0.516221 
        5.92195         4.96352        0.512711 
        5.93767         4.93496        0.509235 
        5.95336         4.89645        0.505798 
        5.96905         4.87076        0.502393 
        5.98476         4.83739        0.499015 
        6.00048         4.78712        0.495666 
        6.01617         4.76083        0.492353 
        6.03185          4.7325        0.489074 
        6.04756         4.70343        0.485817 
        6.06331         4.67344        0.482583 
        6.07903         4.64623        0.479385 
        6.09473         4.60812        0.476219 
        6.11044         4.57646        0.473079 
        6.12616         4.54854        0.469967 
        6.14186         4.51161        0.466887 
        6.15755         4.48158        0.463834 
        6.17326         4.46596        0.460807 
        6.18898         4.43246        0.457804 
        6.20467         4.39426        0.454834 
        6.22036         4.36801        0.451891 
         6.2361         4.33701        0.448965 
         6.2518         4.31712        0.446071 
        6.26748           4.286        0.443208 
        6.28319         4.26106        0.440362 
        6.29893         4.22832        0.437539 
        6.31463         4.19781        0.434745 
        6.33033         4.17254        0.431977 
        6.34604         4.14238        0.429231 
        6.36177         4.12121        0.426506 
        6.37747         4.08916         0.42381 
