# k  (h/Mpc)    Pcb(k)  (Mpc/h)^3    Pcb_linear(k) (Mpc/h)^3   ShotnoiseSubtracted = true
      0.0200456         218.489         190.002 
      0.0350414         155.817         135.731 
      0.0492313         107.526         98.3443 
      0.0637834         79.3421         81.9058 
      0.0800726         63.1922         64.2449 
       0.096163         45.3588         46.2029 
       0.111083         38.9344         37.1809 
       0.126058         32.9355         33.0799 
       0.142273         25.9729         27.6276 
       0.158546         21.5199          21.692 
        0.17375         18.6395         18.4866 
       0.188953         17.0658         16.7936 
       0.204907         14.1695         14.6869 
       0.220756         12.4254         12.3569 
        0.23588         10.3949         10.8404 
         0.2514         10.0468         9.89167 
       0.267535          9.0933         8.88137 
       0.283568         7.63608         7.79264 
       0.299022         6.75057         6.97681 
       0.314451         6.46462         6.40012 
       0.330372         5.72276         5.84828 
       0.346141          5.3741         5.28753 
       0.361624         4.94696         4.81448 
       0.377134         4.46122          4.4418 
       0.392932          4.0779         4.10441 
       0.408854         3.82765         3.77376 
       0.424564         3.54479         3.47919 
       0.440253         3.24094         3.23045 
       0.455999         3.01431         3.00887 
       0.471626         2.82738         2.80198 
        0.48727         2.57943         2.61157 
       0.502856           2.451         2.44301 
       0.518488         2.28966         2.29114 
       0.534347         2.16885          2.1486 
       0.550082         2.02026         2.01756 
       0.565732         1.89653         1.89889 
       0.581496         1.79754         1.78991 
       0.597222         1.70791         1.68948 
       0.612804         1.59588         1.59706 
       0.628434         1.54235         1.51129 
       0.644267          1.4444         1.43123 
       0.660051         1.38234         1.35728 
       0.675724          1.2976         1.28897 
       0.691403         1.22627          1.2253 
       0.707174         1.19214         1.16557 
       0.722871         1.12332         1.11006 
        0.73838         1.05779         1.05876 
       0.754018         1.00463         1.01032 
       0.769845        0.962226        0.964383 
        0.78569        0.919207        0.921268 
       0.801365        0.892147        0.881222 
       0.817031        0.858023        0.843596 
       0.832809        0.806905         0.80794 
       0.848511        0.779514        0.774516 
       0.864097        0.748104        0.743222 
       0.879701        0.715406        0.713636 
       0.895507        0.692666         0.68532 
       0.911279        0.660905        0.658606 
        0.92691        0.640096        0.633544 
       0.942635        0.611084        0.609653 
       0.958396        0.593417        0.586949 
       0.974128        0.568244        0.565448 
       0.989692        0.545487         0.54524 
        1.00528        0.532188        0.525994 
        1.02113        0.514659        0.507379 
        1.03692        0.495801        0.489738 
        1.05264        0.480272        0.473019 
        1.06832        0.466562        0.457111 
        1.08405        0.444334        0.441894 
        1.09979        0.427209        0.427364 
        1.11537        0.421349        0.413634 
        1.13105        0.406418        0.400428 
        1.14679        0.389621         0.38775 
        1.16256        0.379819        0.375598 
        1.17828        0.367919        0.364009 
        1.19395        0.356857        0.352949 
         1.2097        0.345616        0.342295 
        1.22537        0.334981        0.332134 
          1.241        0.325584        0.322417 
        1.25666        0.316345        0.313066 
        1.27241        0.308274        0.304044 
        1.28819        0.295418        0.295363 
        1.30392        0.289746        0.287048 
        1.31957        0.280804        0.279091 
        1.33529        0.274866        0.271407 
        1.35108        0.267955        0.263983 
        1.36674        0.259887        0.256891 
         1.3824        0.252095        0.250066 
        1.39811        0.246102        0.243468 
        1.41389        0.238129        0.237083 
        1.42964        0.233955        0.230939 
        1.44531        0.227554        0.225043 
        1.46101        0.220729        0.219341 
        1.47667        0.215884        0.213853 
        1.49229        0.209418        0.208569 
        1.50793        0.204722        0.203458 
        1.52367        0.200879        0.198486 
        1.53953        0.194702        0.193647 
        1.55526        0.190338        0.189008 
        1.57092        0.185537        0.184541 
        1.58662        0.180653        0.180208 
        1.60235        0.177664        0.176006 
        1.61809        0.171898        0.171936 
        1.63369        0.168644        0.168031 
        1.64941        0.164445         0.16422 
        1.66519        0.162071        0.160514 
        1.68085        0.157639        0.156949 
        1.69652        0.154674        0.153491 
        1.71228        0.150335        0.150118 
        1.72806         0.14714        0.146844 
        1.74368        0.142653          0.1437 
        1.75933        0.140957        0.140643 
        1.77505        0.138336         0.13766 
        1.79081        0.135438        0.134759 
         1.8065        0.132211        0.131954 
        1.82218         0.12905        0.129231 
        1.83797        0.126431        0.126567 
        1.85367        0.124362        0.123992 
        1.86928        0.121555        0.121505 
        1.88497        0.118401        0.119073 
        1.90073        0.116215        0.116698 
        1.91647        0.114095        0.114391 
        1.93218        0.111973        0.112151 
        1.94787        0.109039        0.109974 
        1.96363        0.107787        0.107846 
        1.97935        0.105208        0.105779 
        1.99499        0.103354        0.103779 
        2.01064        0.101359        0.101827 
         2.0264       0.0992963       0.0999128 
        2.04216       0.0968803        0.098049 
        2.05781       0.0954395       0.0962447 
        2.07353       0.0937723       0.0944794 
        2.08928       0.0926104       0.0927546 
        2.10499       0.0897607       0.0910775 
        2.12065       0.0886387        0.089447 
        2.13633       0.0867742       0.0878551 
        2.15211       0.0857354       0.0862916 
        2.16785       0.0834414       0.0847707 
        2.18349        0.082048       0.0832959 
        2.19916       0.0812915       0.0818532 
        2.21489       0.0790268         0.08044 
        2.23063       0.0776334       0.0790591 
         2.2463       0.0770098        0.077717 
        2.26194       0.0747893       0.0764093 
        2.27765       0.0739826       0.0751251 
        2.29341       0.0721304       0.0738671 
        2.30914       0.0714877       0.0726406 
        2.32486       0.0699065       0.0714425 
        2.34061       0.0690471       0.0702696 
        2.35635        0.067607        0.069124 
        2.37203       0.0666717        0.068008 
        2.38768       0.0653017       0.0669189 
        2.40339       0.0645106       0.0658498 
        2.41914       0.0633387       0.0648016 
        2.43483        0.062648       0.0637799 
         2.4505       0.0615545       0.0627819 
        2.46622       0.0605263       0.0618019 
        2.48195       0.0593322       0.0608428 
        2.49759       0.0585449       0.0599092 
        2.51328       0.0577249       0.0589927 
        2.52906       0.0565097       0.0580896 
        2.54479       0.0558237       0.0572088 
        2.56049       0.0548736        0.056348 
        2.57618       0.0542812       0.0555057 
        2.59189       0.0533355       0.0546793 
        2.60758        0.052397       0.0538711 
        2.62325       0.0516805       0.0530802 
        2.63898       0.0508609       0.0523024 
        2.65468       0.0500789       0.0515418 
        2.67044       0.0491771       0.0507932 
        2.68618       0.0484416       0.0500611 
        2.70184       0.0477126       0.0493464 
        2.71755        0.047199       0.0486439 
        2.73329       0.0464541       0.0479539 
        2.74897       0.0456719       0.0472797 
        2.76462       0.0450397       0.0466198 
        2.78034       0.0443426       0.0459699 
        2.79607       0.0435124       0.0453317 
        2.81179       0.0431612       0.0447063 
        2.82749       0.0424118       0.0440934 
        2.84321       0.0419779       0.0434913 
        2.85893        0.041391       0.0429007 
        2.87462       0.0408393        0.042322 
        2.89033       0.0401217       0.0417535 
        2.90605        0.039651        0.041195 
        2.92176       0.0391808       0.0406469 
        2.93747       0.0386203       0.0401092 
        2.95318       0.0380575        0.039581 
        2.96891       0.0375548       0.0390621 
        2.98456       0.0370222       0.0385548 
        3.00023       0.0365447       0.0380558 
        3.01596       0.0361547        0.037564 
        3.03164       0.0356503       0.0370824 
        3.04738       0.0349744       0.0366078 
         3.0631       0.0347375       0.0361416 
        3.07883       0.0341787       0.0356836 
        3.09456       0.0337696       0.0352336 
        3.11026       0.0332896        0.034792 
        3.12596        0.032834        0.034358 
        3.14163       0.0324436       0.0339325 
        3.15734       0.0320302       0.0335132 
        3.17308       0.0316576       0.0330999 
        3.18879       0.0313361       0.0326947 
        3.20447       0.0308926        0.032297 
         3.2202       0.0305467       0.0319046 
         3.2359       0.0302141       0.0315194 
        3.25157       0.0297894       0.0311415 
        3.26729        0.029474       0.0307686 
        3.28304       0.0291122       0.0304011 
        3.29877       0.0288795       0.0300401 
        3.31446       0.0283873       0.0296858 
        3.33014       0.0280047       0.0293375 
        3.34585       0.0278086       0.0289942 
        3.36158       0.0274951       0.0286559 
        3.37727       0.0272289       0.0283241 
        3.39294       0.0268444       0.0279979 
        3.40867       0.0265449       0.0276756 
        3.42439       0.0262084       0.0273585 
        3.44008       0.0260541        0.027047 
        3.45578       0.0257051       0.0267402 
        3.47153       0.0254127       0.0264374 
        3.48724       0.0251344       0.0261399 
        3.50292       0.0248934       0.0258476 
        3.51859       0.0245709       0.0255599 
        3.53431       0.0243086       0.0252757 
        3.55007       0.0240713       0.0249952 
        3.56577        0.023964         0.02472 
        3.58146       0.0236018       0.0244491 
        3.59719       0.0234722       0.0241816 
        3.61292       0.0231752       0.0239182 
        3.62859       0.0228595       0.0236597 
        3.64429        0.022694       0.0234045 
        3.66003       0.0224813       0.0231523 
        3.67578       0.0223306        0.022904 
        3.69146       0.0222098       0.0226602 
        3.70712       0.0219503       0.0224204 
        3.72284       0.0217571       0.0221831 
        3.73853       0.0214731       0.0219498 
        3.75422       0.0213562       0.0217197 
        3.76993       0.0211805       0.0214927 
        3.78564       0.0209766        0.021269 
        3.80137        0.020754       0.0210481 
        3.81707        0.020578       0.0208309 
        3.83279       0.0204403       0.0206165 
        3.84853       0.0203135       0.0204048 
        3.86424       0.0201528       0.0201965 
        3.87992       0.0199941       0.0199914 
        3.89561       0.0198051       0.0197892 
        3.91134       0.0196614       0.0195893 
        3.92704       0.0194466       0.0193924 
        3.94273       0.0193125       0.0191984 
        3.95845       0.0192296       0.0190067 
        3.97418          0.0191       0.0188176 
        3.98988        0.018912       0.0186314 
        4.00554       0.0186927       0.0184481 
        4.02125       0.0185559       0.0182668 
        4.03698       0.0183195       0.0180876 
        4.05268       0.0180618       0.0179113 
        4.06839       0.0178016       0.0177372 
         4.0841       0.0174958       0.0175654 
        4.09983       0.0172387       0.0173957 
        4.11555       0.0170277       0.0172283 
        4.13124       0.0168021       0.0170635 
        4.14693       0.0166106       0.0169008 
        4.16266       0.0163445       0.0167398 
        4.17839       0.0161945        0.016581 
        4.19408       0.0159597       0.0164246 
        4.20977        0.015812       0.0162702 
        4.22551        0.015639       0.0161173 
        4.24123       0.0154653       0.0159666 
        4.25691       0.0153222       0.0158183 
        4.27259       0.0151692       0.0156718 
        4.28831       0.0149563       0.0155268 
        4.30404       0.0148594       0.0153835 
        4.31974       0.0147129       0.0152424 
        4.33543       0.0145699       0.0151031 
        4.35116        0.014514       0.0149652 
        4.36688       0.0143993       0.0148291 
        4.38255       0.0142741       0.0146951 
        4.39825         0.01419       0.0145626 
        4.41398        0.014083       0.0144314 
         4.4297       0.0140013        0.014302 
        4.44541       0.0139233       0.0141742 
        4.46111       0.0138083        0.014048 
        4.47683       0.0137575       0.0139233 
        4.49251       0.0137191       0.0138003 
        4.50819        0.013664       0.0136789 
         4.5239       0.0136467       0.0135587 
        4.53962       0.0135862       0.0134399 
        4.55535       0.0135827       0.0133224 
        4.57106       0.0135277       0.0132065 
        4.58678       0.0135154       0.0130919 
         4.6025       0.0134918       0.0129787 
        4.61821       0.0135213       0.0128668 
        4.63391       0.0135431       0.0127564 
         4.6496       0.0135263       0.0126473 
        4.66532       0.0135459       0.0125394 
        4.68103       0.0135236       0.0124327 
        4.69673       0.0135566       0.0123274 
        4.71241        0.013608       0.0122234 
        4.72811       0.0135848       0.0121205 
        4.74384       0.0137157       0.0120185 
        4.75955       0.0137174        0.011918 
        4.77525       0.0137492       0.0118186 
        4.79096        0.013861       0.0117202 
        4.80669       0.0138977       0.0116229 
         4.8224        0.013972       0.0115268 
        4.83809        0.013994        0.011432 
        4.85379       0.0141179       0.0113381 
         4.8695       0.0142471       0.0112452 
        4.88521       0.0142934       0.0111533 
        4.90093       0.0144268       0.0110625 
        4.91663       0.0145656       0.0109728 
        4.93234       0.0146721        0.010884 
        4.94807       0.0147325       0.0107961 
        4.96377       0.0148775       0.0107093 
        4.97943       0.0150884       0.0106237 
        4.99514       0.0151893       0.0105388 
        5.01086       0.0153363       0.0104547 
        5.02654       0.0154563       0.0103718 
        5.04227       0.0156175       0.0102896 
          5.058       0.0157957       0.0102081 
        5.07371        0.015937       0.0101278 
        5.08942       0.0162286       0.0100483 
        5.10513       0.0164265      0.00996959 
        5.12084       0.0165887      0.00989172 
        5.13656        0.016776       0.0098147 
        5.15225       0.0170153      0.00973862 
        5.16796        0.017284      0.00966323 
        5.18369       0.0175195      0.00958858 
         5.1994       0.0177893      0.00951484 
        5.21509       0.0179552      0.00944195 
        5.23079        0.018243      0.00936973 
        5.24649       0.0185179      0.00929832 
        5.26217        0.018725      0.00922771 
        5.27788       0.0190795      0.00915773 
        5.29359       0.0194016      0.00908847 
        5.30933       0.0196844      0.00901982 
        5.32504        0.020018      0.00895199 
        5.34073       0.0203185      0.00888494 
        5.35646       0.0206914      0.00881843 
        5.37218       0.0210698       0.0087526 
        5.38789        0.021343      0.00868754 
        5.40357       0.0217542      0.00862322 
        5.41929       0.0220349       0.0085594 
        5.43502       0.0225977      0.00849623 
         5.4507       0.0229152      0.00843384 
        5.46639       0.0233378      0.00837207 
        5.48212       0.0236869      0.00831078 
        5.49786       0.0242188      0.00825002 
        5.51353       0.0246571      0.00819017 
        5.52921       0.0250493      0.00813086 
        5.54495       0.0255209      0.00807196 
        5.56066       0.0258959       0.0080137 
        5.57637       0.0266052      0.00795603 
        5.59207       0.0270409      0.00789898 
        5.60778       0.0276799      0.00784246 
        5.62346       0.0281739      0.00778658 
        5.63916       0.0285868      0.00773118 
        5.65487       0.0293498       0.0076763 
         5.6706       0.0297919      0.00762189 
        5.68633       0.0305466      0.00756798 
        5.70203       0.0312803       0.0075147 
        5.71773       0.0318885      0.00746195 
        5.73344        0.032362      0.00740967 
        5.74916        0.033254      0.00735785 
        5.76486       0.0339376      0.00730659 
        5.78054       0.0346565       0.0072559 
        5.79626        0.035375      0.00720555 
          5.812       0.0362373      0.00715562 
         5.8277       0.0368759      0.00710632 
        5.84339       0.0379434      0.00705748 
        5.85911       0.0387796        0.007009 
        5.87484       0.0395678      0.00696099 
        5.89053       0.0406162      0.00691352 
        5.90623       0.0414643      0.00686647 
        5.92195       0.0426537      0.00681978 
        5.93767       0.0433796      0.00677355 
        5.95336       0.0441534      0.00672782 
        5.96905       0.0453473      0.00668253 
        5.98476       0.0461126      0.00663759 
        6.00048       0.0473603      0.00659306 
        6.01617       0.0486292      0.00654899 
        6.03185       0.0498733      0.00650537 
        6.04756       0.0506851      0.00646205 
        6.06331       0.0521841      0.00641903 
        6.07903       0.0536702       0.0063765 
        6.09473       0.0549431      0.00633438 
        6.11044       0.0558623      0.00629261 
        6.12616       0.0579285      0.00625123 
        6.14186       0.0587672      0.00621025 
        6.15755       0.0604098      0.00616965 
        6.17326       0.0617665      0.00612937 
        6.18898       0.0635945      0.00608944 
        6.20467        0.065232      0.00604994 
        6.22036        0.066624      0.00601078 
         6.2361       0.0686875      0.00597187 
         6.2518       0.0705369      0.00593337 
        6.26748        0.072583      0.00589529 
        6.28319       0.0735191      0.00585743 
        6.29893       0.0758994      0.00581988 
        6.31463       0.0784273      0.00578272 
        6.33033       0.0797725       0.0057459 
        6.34604       0.0821698      0.00570937 
        6.36177        0.084667      0.00567313 
        6.37747       0.0874168      0.00563726 
