# k  (h/Mpc)    Pcb(k)  (Mpc/h)^3    Pcb_linear(k) (Mpc/h)^3   ShotnoiseSubtracted = true
      0.0200456         3238.62         2812.65 
      0.0350414          2282.1         2009.27 
      0.0492313         1570.96         1455.82 
      0.0637834         1178.01         1212.47 
      0.0800726         924.046         951.035 
       0.096163         667.018         683.955 
       0.111083         578.934         550.399 
       0.126058         494.435         489.692 
       0.142273         393.968          408.98 
       0.158546         330.196         321.112 
        0.17375         278.342         273.663 
       0.188953         256.415           248.6 
       0.204907         211.281         217.415 
       0.220756          194.19         182.922 
        0.23588         162.771         160.474 
         0.2514         153.207         146.429 
       0.267535         140.332         131.473 
       0.283568         121.805         115.357 
       0.299022         105.476          103.28 
       0.314451         104.525         94.7428 
       0.330372         91.8657         86.5738 
       0.346141         88.5491         78.2728 
       0.361624         79.7108         71.2701 
       0.377134         72.9589         65.7532 
       0.392932         68.8067         60.7587 
       0.408854         65.2254          55.864 
       0.424564         59.1872         51.5034 
       0.440253         55.4394         47.8212 
       0.455999         52.3902         44.5412 
       0.471626         49.4023         41.4785 
        0.48727         45.8298         38.6598 
       0.502856         43.0199         36.1645 
       0.518488         41.6772         33.9164 
       0.534347         39.2417         31.8063 
       0.550082         37.3556         29.8665 
       0.565732         35.4426         28.1098 
       0.581496         33.7088         26.4966 
       0.597222         31.7352         25.0098 
       0.612804         30.3276         23.6417 
       0.628434         29.5273         22.3721 
       0.644267         27.8699         21.1868 
       0.660051         26.8296         20.0921 
       0.675724         25.7918         19.0809 
       0.691403         24.6263         18.1384 
       0.707174         23.7216         17.2542 
       0.722871         22.5503         16.4325 
        0.73838         21.6979         15.6731 
       0.754018         21.0842          14.956 
       0.769845         20.1087          14.276 
        0.78569         19.4512         13.6378 
       0.801365         18.6362          13.045 
       0.817031         18.0581          12.488 
       0.832809         17.4639         11.9602 
       0.848511         17.0745         11.4654 
       0.864097         16.4544         11.0021 
       0.879701          16.026         10.5642 
       0.895507         15.3548          10.145 
       0.911279         14.9722         9.74953 
        0.92691         14.5493         9.37852 
       0.942635         14.1628         9.02487 
       0.958396         13.7135         8.68878 
       0.974128         13.4771         8.37049 
       0.989692         12.9743         8.07134 
        1.00528         12.6108         7.78644 
        1.02113         12.1769         7.51088 
        1.03692         11.8552         7.24972 
        1.05264         11.5845         7.00224 
        1.06832          11.341         6.76673 
        1.08405         10.9409         6.54148 
        1.09979         10.7017         6.32639 
        1.11537         10.5105         6.12314 
        1.13105         10.2509         5.92765 
        1.14679         9.99504         5.73997 
        1.16256         9.76603         5.56008 
        1.17828         9.52379         5.38852 
        1.19395         9.32481         5.22481 
         1.2097         9.20947         5.06709 
        1.22537         8.95164         4.91667 
          1.241         8.73232         4.77283 
        1.25666         8.46705         4.63441 
        1.27241         8.38602         4.50085 
        1.28819         8.19838         4.37235 
        1.30392         8.08449         4.24925 
        1.31957         7.91592         4.13146 
        1.33529         7.75097         4.01771 
        1.35108         7.54663         3.90782 
        1.36674         7.48521         3.80283 
         1.3824         7.23316          3.7018 
        1.39811         7.13424         3.60412 
        1.41389         6.96724         3.50961 
        1.42964         6.87222         3.41865 
        1.44531         6.72884         3.33137 
        1.46101         6.60394         3.24696 
        1.47667         6.49726         3.16573 
        1.49229         6.36709         3.08751 
        1.50793         6.22457         3.01185 
        1.52367         6.17068         2.93824 
        1.53953          6.0734         2.86661 
        1.55526         5.95197         2.79794 
        1.57092         5.83356         2.73181 
        1.58662         5.72081         2.66767 
        1.60235         5.64402         2.60546 
        1.61809         5.56798         2.54522 
        1.63369         5.46797         2.48742 
        1.64941         5.38626           2.431 
        1.66519           5.318         2.37613 
        1.68085         5.19105         2.32336 
        1.69652         5.12783         2.27217 
        1.71228         5.06583         2.22224 
        1.72806          5.0252         2.17377 
        1.74368         4.89872         2.12723 
        1.75933         4.85558         2.08197 
        1.77505         4.77077         2.03782 
        1.79081         4.69967         1.99487 
         1.8065          4.6325         1.95335 
        1.82218         4.54657         1.91304 
        1.83797         4.49312          1.8736 
        1.85367          4.4232          1.8355 
        1.86928         4.35091         1.79868 
        1.88497         4.30477         1.76267 
        1.90073         4.25167         1.72752 
        1.91647         4.17368         1.69336 
        1.93218         4.09405          1.6602 
        1.94787         4.07122         1.62797 
        1.96363         3.99762         1.59648 
        1.97935         3.93937         1.56588 
        1.99499         3.90756         1.53626 
        2.01064         3.84086         1.50737 
         2.0264         3.81722         1.47904 
        2.04216         3.77434         1.45145 
        2.05781         3.72135         1.42474 
        2.07353         3.66029         1.39861 
        2.08928         3.61514         1.37307 
        2.10499         3.57768         1.34825 
        2.12065         3.52857         1.32411 
        2.13633         3.45997         1.30054 
        2.15211         3.43094          1.2774 
        2.16785         3.39656         1.25488 
        2.18349         3.37037         1.23305 
        2.19916         3.32399          1.2117 
        2.21489         3.25244         1.19078 
        2.23063         3.24645         1.17033 
         2.2463           3.202         1.15047 
        2.26194         3.17458         1.13111 
        2.27765         3.12275          1.1121 
        2.29341         3.09292         1.09348 
        2.30914         3.04884         1.07532 
        2.32486         3.01548         1.05758 
        2.34061         2.98122         1.04022 
        2.35635          2.9424         1.02326 
        2.37203         2.92508         1.00674 
        2.38768         2.89097         0.99062 
        2.40339         2.84069        0.974793 
        2.41914          2.8219        0.959276 
        2.43483         2.79948        0.944151 
         2.4505         2.75319        0.929379 
        2.46622         2.72614        0.914871 
        2.48195         2.70376        0.900673 
        2.49759         2.67499        0.886852 
        2.51328         2.63833        0.873286 
        2.52906         2.60844        0.859917 
        2.54479         2.58023        0.846878 
        2.56049         2.55808        0.834136 
        2.57618         2.53601        0.821666 
        2.59189         2.50695        0.809433 
        2.60758         2.48469        0.797469 
        2.62325         2.45764        0.785761 
        2.63898         2.43282        0.774247 
        2.65468         2.39183        0.762988 
        2.67044         2.38228        0.751905 
        2.68618         2.36376        0.741068 
        2.70184         2.33207        0.730488 
        2.71755         2.30333        0.720089 
        2.73329         2.28957        0.709876 
        2.74897         2.26246        0.699894 
        2.76462         2.23184        0.690126 
        2.78034         2.21825        0.680505 
        2.79607         2.19164        0.671057 
        2.81179         2.18078        0.661799 
        2.82749         2.15622        0.652727 
        2.84321         2.13822        0.643814 
        2.85893         2.10952        0.635071 
        2.87462         2.09899        0.626505 
        2.89033         2.08254        0.618089 
        2.90605         2.06733        0.609821 
        2.92176         2.04053        0.601708 
        2.93747         2.01929        0.593747 
        2.95318         2.00631        0.585928 
        2.96891         1.98746        0.578247 
        2.98456         1.96768        0.570737 
        3.00023         1.94358         0.56335 
        3.01596         1.93902        0.556071 
        3.03164         1.91982        0.548941 
        3.04738         1.90514        0.541915 
         3.0631         1.87866        0.535015 
        3.07883         1.86493        0.528234 
        3.09456         1.85386        0.521572 
        3.11026         1.83529        0.515036 
        3.12596         1.82056        0.508612 
        3.14163         1.80388        0.502312 
        3.15734         1.79258        0.496105 
        3.17308         1.77287        0.489987 
        3.18879          1.7624        0.483989 
        3.20447         1.73865        0.478101 
         3.2202         1.73328        0.472292 
         3.2359         1.71095         0.46659 
        3.25157         1.69939        0.460996 
        3.26729         1.68636        0.455476 
        3.28304         1.67942        0.450037 
        3.29877         1.65767        0.444693 
        3.31446         1.65449        0.439447 
        3.33014         1.63954        0.434291 
        3.34585         1.61714         0.42921 
        3.36158         1.60428        0.424202 
        3.37727         1.59677         0.41929 
        3.39294         1.58535         0.41446 
        3.40867         1.56743        0.409689 
        3.42439         1.55662        0.404996 
        3.44008         1.54606        0.400385 
        3.45578         1.53825        0.395842 
        3.47153         1.52411         0.39136 
        3.48724         1.51413        0.386956 
        3.50292         1.50418        0.382629 
        3.51859         1.49381        0.378371 
        3.53431          1.4823        0.374164 
        3.55007         1.46992        0.370011 
        3.56577         1.45741        0.365937 
        3.58146         1.44917        0.361926 
        3.59719         1.43472        0.357967 
        3.61292         1.42673        0.354067 
        3.62859         1.41392        0.350241 
        3.64429         1.40818        0.346464 
        3.66003         1.39452        0.342731 
        3.67578         1.38873        0.339054 
        3.69146         1.37351        0.335445 
        3.70712         1.36641        0.331895 
        3.72284         1.35691        0.328383 
        3.73853         1.34659        0.324929 
        3.75422         1.33755        0.321522 
        3.76993         1.32381        0.318162 
        3.78564          1.3199        0.314851 
        3.80137         1.30791        0.311581 
        3.81707         1.30154        0.308365 
        3.83279          1.2926        0.305192 
        3.84853         1.28179        0.302058 
        3.86424         1.27448        0.298975 
        3.87992         1.26572        0.295938 
        3.89561         1.25701        0.292944 
        3.91134         1.24646        0.289986 
        3.92704         1.24282        0.287071 
        3.94273         1.23082          0.2842 
        3.95845         1.21791        0.281362 
        3.97418         1.21142        0.278563 
        3.98988         1.20776        0.275805 
        4.00554         1.19303        0.273092 
        4.02125         1.18858        0.270408 
        4.03698         1.17903        0.267756 
        4.05268         1.17235        0.265146 
        4.06839         1.16053        0.262568 
         4.0841         1.15386        0.260026 
        4.09983         1.14463        0.257513 
        4.11555          1.1376        0.255035 
        4.13124         1.12756        0.252596 
        4.14693         1.12124        0.250187 
        4.16266         1.11302        0.247804 
        4.17839         1.10351        0.245453 
        4.19408         1.09886        0.243138 
        4.20977         1.08985        0.240852 
        4.22551         1.08286        0.238589 
        4.24123         1.07445        0.236359 
        4.25691          1.0695        0.234162 
        4.27259         1.05995        0.231993 
        4.28831         1.05248        0.229847 
        4.30404         1.04376        0.227727 
        4.31974         1.04185        0.225637 
        4.33543         1.03438        0.223575 
        4.35116         1.02907        0.221534 
        4.36688         1.01991        0.219519 
        4.38255         1.01543        0.217536 
        4.39825         1.01164        0.215574 
        4.41398         1.00335        0.213632 
         4.4297        0.993531        0.211716 
        4.44541        0.988672        0.209824 
        4.46111        0.983461        0.207956 
        4.47683        0.976935         0.20611 
        4.49251        0.971712         0.20429 
        4.50819          0.9666        0.202492 
         4.5239        0.962525        0.200714 
        4.53962         0.95556        0.198954 
        4.55535        0.950944        0.197215 
        4.57106        0.945441        0.195499 
        4.58678        0.941324        0.193803 
         4.6025        0.937587        0.192127 
        4.61821        0.933528        0.190471 
        4.63391        0.927483        0.188837 
         4.6496        0.923585        0.187222 
        4.66532        0.919453        0.185624 
        4.68103        0.913101        0.184045 
        4.69673        0.908564        0.182486 
        4.71241        0.903382        0.180947 
        4.72811         0.89974        0.179422 
        4.74384        0.893294        0.177914 
        4.75955        0.889306        0.176425 
        4.77525        0.887565        0.174954 
        4.79096        0.882356        0.173498 
        4.80669        0.879095        0.172057 
         4.8224         0.87528        0.170635 
        4.83809        0.870741         0.16923 
        4.85379        0.869824        0.167841 
         4.8695        0.865285        0.166465 
        4.88521        0.861649        0.165106 
        4.90093        0.858914        0.163762 
        4.91663        0.855936        0.162434 
        4.93234        0.850341        0.161119 
        4.94807        0.846085        0.159818 
        4.96377        0.842961        0.158533 
        4.97943        0.843354        0.157266 
        4.99514        0.838941        0.156009 
        5.01086         0.83445        0.154764 
        5.02654        0.833122        0.153537 
        5.04227        0.830968        0.152319 
          5.058        0.826048        0.151114 
        5.07371        0.822723        0.149924 
        5.08942        0.821495        0.148747 
        5.10513        0.818043        0.147583 
        5.12084        0.815772         0.14643 
        5.13656        0.813105         0.14529 
        5.15225        0.809174        0.144164 
        5.16796        0.807239        0.143048 
        5.18369        0.806057        0.141942 
         5.1994        0.801423        0.140851 
        5.21509        0.800222        0.139772 
        5.23079        0.797385        0.138703 
        5.24649        0.796054        0.137646 
        5.26217        0.794507          0.1366 
        5.27788        0.791037        0.135564 
        5.29359        0.789041        0.134539 
        5.30933        0.787176        0.133523 
        5.32504        0.785137        0.132519 
        5.34073        0.782882        0.131526 
        5.35646         0.77957        0.130542 
        5.37218        0.778324        0.129567 
        5.38789        0.775194        0.128604 
        5.40357        0.774878        0.127652 
        5.41929        0.773546        0.126707 
        5.43502        0.771067        0.125772 
         5.4507        0.769102        0.124849 
        5.46639        0.766393        0.123934 
        5.48212        0.765337        0.123027 
        5.49786        0.763763        0.122127 
        5.51353        0.762925        0.121241 
        5.52921        0.759564        0.120363 
        5.54495        0.757906        0.119491 
        5.56066         0.75686        0.118629 
        5.57637        0.755157        0.117775 
        5.59207         0.75363        0.116931 
        5.60778        0.753888        0.116094 
        5.62346        0.749547        0.115267 
        5.63916        0.749954        0.114447 
        5.65487        0.746477        0.113634 
         5.6706        0.746862        0.112829 
        5.68633        0.744532        0.112031 
        5.70203        0.745196        0.111242 
        5.71773        0.742629        0.110461 
        5.73344         0.74035        0.109687 
        5.74916        0.738769         0.10892 
        5.76486        0.738605        0.108161 
        5.78054         0.73758        0.107411 
        5.79626        0.734865        0.106666 
          5.812        0.735312        0.105927 
         5.8277        0.731648        0.105197 
        5.84339        0.731499        0.104474 
        5.85911        0.732367        0.103756 
        5.87484        0.729784        0.103045 
        5.89053         0.72886        0.102343 
        5.90623        0.726598        0.101646 
        5.92195         0.72467        0.100955 
        5.93767        0.724314        0.100271 
        5.95336        0.721666       0.0995938 
        5.96905        0.721537       0.0989233 
        5.98476        0.720136       0.0982581 
        6.00048        0.720452       0.0975988 
        6.01617        0.717036       0.0969465 
        6.03185          0.7166       0.0963008 
        6.04756         0.71775       0.0956595 
        6.06331        0.715152       0.0950227 
        6.07903        0.713078        0.094393 
        6.09473        0.714304       0.0937696 
        6.11044        0.712151       0.0931513 
        6.12616        0.710382       0.0925386 
        6.14186         0.70956       0.0919321 
        6.15755        0.709305        0.091331 
        6.17326        0.709765       0.0907348 
        6.18898        0.705297       0.0901437 
        6.20467        0.707161       0.0895589 
        6.22036        0.705278       0.0889793 
         6.2361        0.703216       0.0884033 
         6.2518        0.702596       0.0878333 
        6.26748        0.701007       0.0872696 
        6.28319        0.700597       0.0867092 
        6.29893        0.699648       0.0861533 
        6.31463        0.699167       0.0856033 
        6.33033        0.696844       0.0850582 
        6.34604        0.697676       0.0845174 
        6.36177        0.696662       0.0839809 
        6.37747        0.695944         0.08345 
