# k  (h/Mpc)    Pcb(k)  (Mpc/h)^3    Pcb_linear(k) (Mpc/h)^3   ShotnoiseSubtracted = true
      0.0200456         638.541         555.052 
      0.0350414         454.058         396.511 
      0.0492313         313.113         287.292 
      0.0637834         231.944         239.271 
      0.0800726         184.063         187.678 
       0.096163         132.183         134.972 
       0.111083         113.773         108.616 
       0.126058         96.4645         96.6361 
       0.142273         76.2066         80.7084 
       0.158546         63.3041         63.3685 
        0.17375         54.3935         54.0048 
       0.188953         49.9247          49.059 
       0.204907         41.2991         42.9048 
       0.220756         36.6551         36.0981 
        0.23588         30.5726          31.668 
         0.2514         29.4275         28.8965 
       0.267535         26.6995         25.9451 
       0.283568         22.5381         22.7646 
       0.299022         19.7825         20.3813 
       0.314451         19.1374         18.6966 
       0.330372         16.8789         17.0845 
       0.346141         15.9747         15.4464 
       0.361624         14.6561         14.0645 
       0.377134         13.1805         12.9758 
       0.392932         12.1168         11.9902 
       0.408854         11.4314         11.0243 
       0.424564          10.503         10.1637 
       0.440253         9.65145         9.43708 
       0.455999         9.01562          8.7898 
       0.471626         8.43708          8.1854 
        0.48727         7.75609         7.62915 
       0.502856         7.32945         7.13674 
       0.518488          6.8681         6.69308 
       0.534347         6.52349         6.27669 
       0.550082         6.10102         5.89389 
       0.565732         5.72576         5.54722 
       0.581496          5.4362         5.22886 
       0.597222         5.13154         4.93546 
       0.612804         4.81249         4.66548 
       0.628434         4.69575         4.41492 
       0.644267         4.38145         4.18103 
       0.660051         4.18772           3.965 
       0.675724         3.94959         3.76544 
       0.691403         3.73928         3.57945 
       0.707174         3.64376         3.40497 
       0.722871         3.41643         3.24281 
        0.73838          3.2336         3.09295 
       0.754018         3.08176         2.95143 
       0.769845         2.94536         2.81724 
        0.78569         2.81431         2.69129 
       0.801365         2.73306         2.57431 
       0.817031         2.63954         2.46439 
       0.832809          2.4728         2.36023 
       0.848511          2.4166         2.26259 
       0.864097         2.31182         2.17117 
       0.879701         2.21547         2.08474 
       0.895507         2.15261         2.00202 
       0.911279         2.04575         1.92398 
        0.92691         1.97431         1.85077 
       0.942635           1.906         1.78097 
       0.958396         1.84937         1.71465 
       0.974128         1.77726         1.65184 
       0.989692          1.7006         1.59281 
        1.00528         1.65315         1.53658 
        1.02113          1.6083          1.4822 
        1.03692         1.54313         1.43067 
        1.05264         1.49509         1.38183 
        1.06832         1.46209         1.33535 
        1.08405         1.38807          1.2909 
        1.09979         1.34123         1.24846 
        1.11537         1.32306         1.20835 
        1.13105         1.27212         1.16977 
        1.14679         1.22784         1.13273 
        1.16256         1.20243         1.09723 
        1.17828         1.16219         1.06338 
        1.19395         1.12845         1.03107 
         1.2097         1.09915        0.999944 
        1.22537         1.05883        0.970259 
          1.241          1.0298        0.941874 
        1.25666         1.00186        0.914558 
        1.27241        0.979875        0.888202 
        1.28819        0.944248        0.862842 
        1.30392         0.92125        0.838551 
        1.31957        0.892264        0.815305 
        1.33529        0.875937        0.792859 
        1.35108        0.851497        0.771172 
        1.36674        0.833288        0.750453 
         1.3824        0.803889        0.730517 
        1.39811        0.786712        0.711241 
        1.41389        0.761937        0.692589 
        1.42964        0.749667        0.674639 
        1.44531        0.731653        0.657415 
        1.46101        0.707224        0.640758 
        1.47667        0.693119        0.624728 
        1.49229        0.675561        0.609292 
        1.50793        0.658855        0.594361 
        1.52367        0.645147        0.579835 
        1.53953        0.628939        0.565699 
        1.55526        0.616227        0.552148 
        1.57092        0.599554        0.539098 
        1.58662        0.584901         0.52644 
        1.60235        0.574484        0.514165 
        1.61809        0.557675        0.502275 
        1.63369        0.546176        0.490869 
        1.64941          0.5332        0.479736 
        1.66519        0.524246        0.468908 
        1.68085        0.512534        0.458493 
        1.69652         0.50424        0.448391 
        1.71228        0.488846        0.438538 
        1.72806        0.479061        0.428973 
        1.74368        0.468106         0.41979 
        1.75933        0.461076        0.410858 
        1.77505        0.453923        0.402145 
        1.79081        0.440518         0.39367 
         1.8065        0.432851        0.385475 
        1.82218        0.422533        0.377522 
        1.83797        0.413935        0.369738 
        1.85367        0.407063        0.362218 
        1.86928        0.400338        0.354953 
        1.88497        0.389833        0.347847 
        1.90073        0.383442         0.34091 
        1.91647        0.375218        0.334169 
        1.93218        0.367931        0.327625 
        1.94787        0.361357        0.321266 
        1.96363        0.354722         0.31505 
        1.97935        0.346485        0.309013 
        1.99499        0.340745        0.303168 
        2.01064        0.334389        0.297465 
         2.0264        0.328651        0.291874 
        2.04216        0.321724         0.28643 
        2.05781        0.315591        0.281159 
        2.07353        0.310849        0.276002 
        2.08928         0.30612        0.270963 
        2.10499        0.298888        0.266064 
        2.12065        0.293969        0.261301 
        2.13633        0.288491         0.25665 
        2.15211        0.284698        0.252083 
        2.16785        0.278872         0.24764 
        2.18349        0.274452        0.243332 
        2.19916        0.270173        0.239117 
        2.21489        0.264034        0.234989 
        2.23063        0.258608        0.230955 
         2.2463        0.256505        0.227034 
        2.26194        0.250637        0.223214 
        2.27765        0.246586        0.219462 
        2.29341        0.241561        0.215787 
        2.30914        0.238396        0.212204 
        2.32486        0.234197        0.208704 
        2.34061        0.230723        0.205278 
        2.35635        0.227115        0.201931 
        2.37203        0.223298        0.198671 
        2.38768        0.219226         0.19549 
        2.40339        0.217203        0.192367 
        2.41914        0.212273        0.189304 
        2.43483        0.210334         0.18632 
         2.4505        0.206519        0.183404 
        2.46622        0.202954        0.180541 
        2.48195         0.19957         0.17774 
        2.49759        0.197619        0.175012 
        2.51328         0.19497        0.172335 
        2.52906         0.19031        0.169697 
        2.54479        0.188476        0.167124 
        2.56049        0.185541        0.164609 
        2.57618        0.183168        0.162148 
        2.59189        0.179235        0.159734 
        2.60758        0.176799        0.157373 
        2.62325        0.174093        0.155063 
        2.63898         0.17204        0.152791 
        2.65468        0.169361        0.150569 
        2.67044        0.166685        0.148382 
        2.68618        0.164492        0.146243 
        2.70184        0.161783        0.144155 
        2.71755        0.159427        0.142103 
        2.73329        0.157356        0.140087 
        2.74897        0.155132        0.138118 
        2.76462         0.15272         0.13619 
        2.78034        0.150996        0.134291 
        2.79607        0.148281        0.132427 
        2.81179        0.146372          0.1306 
        2.82749        0.144574         0.12881 
        2.84321        0.143002        0.127051 
        2.85893        0.141276        0.125325 
        2.87462        0.138933        0.123635 
        2.89033        0.137063        0.121974 
        2.90605        0.135286        0.120343 
        2.92176        0.133771        0.118742 
        2.93747        0.131977        0.117171 
        2.95318        0.129934        0.115628 
        2.96891        0.128073        0.114112 
        2.98456        0.126317         0.11263 
        3.00023        0.124876        0.111172 
        3.01596        0.123798        0.109735 
        3.03164        0.122255        0.108328 
        3.04738        0.119998        0.106942 
         3.0631         0.11909         0.10558 
        3.07883        0.117749        0.104242 
        3.09456        0.115932        0.102928 
        3.11026        0.114449        0.101638 
        3.12596        0.112982         0.10037 
        3.14163        0.111588       0.0991267 
        3.15734        0.109863       0.0979017 
        3.17308        0.109245       0.0966944 
        3.18879        0.107564       0.0955109 
        3.20447        0.106006       0.0943488 
         3.2202        0.105269       0.0932025 
         3.2359        0.104361       0.0920773 
        3.25157        0.102773       0.0909733 
        3.26729         0.10165       0.0898841 
        3.28304        0.100818       0.0888106 
        3.29877       0.0990679        0.087756 
        3.31446       0.0981385       0.0867209 
        3.33014       0.0970438       0.0857033 
        3.34585       0.0963085       0.0847006 
        3.36158       0.0949783       0.0837124 
        3.37727       0.0940037        0.082743 
        3.39294       0.0931889       0.0817899 
        3.40867        0.091957       0.0808483 
        3.42439       0.0912368       0.0799221 
        3.44008       0.0900898       0.0790123 
        3.45578       0.0892008       0.0781159 
        3.47153       0.0879133       0.0772314 
        3.48724       0.0873776       0.0763622 
        3.50292         0.08616       0.0755084 
        3.51859       0.0855279        0.074668 
        3.53431        0.084915       0.0738378 
        3.55007       0.0839374       0.0730182 
        3.56577       0.0830161       0.0722143 
        3.58146       0.0823241       0.0714228 
        3.59719       0.0813091       0.0706414 
        3.61292       0.0805807       0.0698719 
        3.62859       0.0798567       0.0691168 
        3.64429       0.0792004       0.0683714 
        3.66003       0.0784266       0.0676347 
        3.67578       0.0778199       0.0669092 
        3.69146       0.0771718        0.066197 
        3.70712       0.0760841       0.0654964 
        3.72284       0.0755535       0.0648034 
        3.73853       0.0750862       0.0641217 
        3.75422       0.0743533       0.0634495 
        3.76993        0.073638       0.0627863 
        3.78564       0.0729706       0.0621329 
        3.80137        0.072529       0.0614877 
        3.81707       0.0717267       0.0608531 
        3.83279       0.0710478       0.0602268 
        3.84853       0.0706492       0.0596084 
        3.86424        0.069907       0.0589999 
        3.87992       0.0694112       0.0584007 
        3.89561       0.0687318       0.0578099 
        3.91134       0.0681876        0.057226 
        3.92704       0.0676475       0.0566508 
        3.94273        0.066923       0.0560842 
        3.95845       0.0663535       0.0555242 
        3.97418       0.0658429       0.0549718 
        3.98988       0.0651189       0.0544276 
        4.00554       0.0647016       0.0538923 
        4.02125       0.0639993       0.0533626 
        4.03698       0.0635028       0.0528392 
        4.05268       0.0626402       0.0523241 
        4.06839       0.0620593       0.0518154 
         4.0841       0.0614718       0.0513136 
        4.09983       0.0608344       0.0508178 
        4.11555       0.0601904       0.0503288 
        4.13124       0.0596047       0.0498475 
        4.14693       0.0589793       0.0493721 
        4.16266       0.0585344       0.0489017 
        4.17839       0.0579722       0.0484378 
        4.19408       0.0573992        0.047981 
        4.20977       0.0569506       0.0475299 
        4.22551       0.0563927       0.0470834 
        4.24123       0.0558352       0.0466432 
        4.25691       0.0554757       0.0462098 
        4.27259       0.0548769       0.0457818 
        4.28831       0.0544795       0.0453583 
        4.30404       0.0541474       0.0449398 
        4.31974        0.053737       0.0445274 
        4.33543       0.0533207       0.0441205 
        4.35116        0.052774       0.0437177 
        4.36688       0.0526187         0.04332 
        4.38255       0.0522462       0.0429288 
        4.39825       0.0518923       0.0425416 
        4.41398       0.0515933       0.0421583 
         4.4297       0.0513941       0.0417802 
        4.44541       0.0509049       0.0414068 
        4.46111       0.0506144       0.0410383 
        4.47683       0.0503845       0.0406739 
        4.49251       0.0503132       0.0403148 
        4.50819       0.0498848         0.03996 
         4.5239       0.0498077        0.039609 
        4.53962       0.0496205       0.0392618 
        4.55535       0.0495824       0.0389186 
        4.57106       0.0493081         0.03858 
        4.58678       0.0492979       0.0382453 
         4.6025       0.0492629       0.0379145 
        4.61821       0.0492092       0.0375877 
        4.63391       0.0491436       0.0372652 
         4.6496       0.0488747       0.0369466 
        4.66532        0.049038       0.0366312 
        4.68103       0.0489041       0.0363196 
        4.69673       0.0488322       0.0360119 
        4.71241       0.0490643       0.0357082 
        4.72811       0.0489656       0.0354074 
        4.74384       0.0490351       0.0351097 
        4.75955       0.0492296       0.0348158 
        4.77525        0.049216       0.0345255 
        4.79096       0.0493976       0.0342382 
        4.80669       0.0494077        0.033954 
         4.8224       0.0497018       0.0336733 
        4.83809        0.049761       0.0333961 
        4.85379       0.0500334       0.0331218 
         4.8695       0.0500333       0.0328504 
        4.88521       0.0502405       0.0325822 
        4.90093       0.0505458       0.0323169 
        4.91663       0.0508023       0.0320548 
        4.93234       0.0509293       0.0317953 
        4.94807       0.0511018       0.0315385 
        4.96377       0.0517807       0.0312851 
        4.97943       0.0521848       0.0310349 
        4.99514       0.0524559       0.0307869 
        5.01086       0.0526701       0.0305413 
        5.02654       0.0533669       0.0302991 
        5.04227       0.0533776       0.0300588 
          5.058       0.0541633        0.029821 
        5.07371       0.0544117       0.0295862 
        5.08942       0.0551252       0.0293539 
        5.10513       0.0554533       0.0291241 
        5.12084       0.0559308       0.0288966 
        5.13656       0.0565975       0.0286716 
        5.15225       0.0571475       0.0284494 
        5.16796       0.0577961       0.0282291 
        5.18369       0.0582531        0.028011 
         5.1994       0.0589346       0.0277956 
        5.21509       0.0596458       0.0275827 
        5.23079       0.0602983       0.0273717 
        5.24649       0.0612018       0.0271631 
        5.26217       0.0615248       0.0269568 
        5.27788       0.0623969       0.0267524 
        5.29359       0.0634275       0.0265501 
        5.30933       0.0641814       0.0263495 
        5.32504       0.0651676       0.0261514 
        5.34073       0.0662994       0.0259555 
        5.35646        0.067009       0.0257612 
        5.37218       0.0676809       0.0255689 
        5.38789       0.0686486       0.0253788 
        5.40357       0.0697856       0.0251909 
        5.41929       0.0708876       0.0250045 
        5.43502       0.0718367         0.02482 
         5.4507       0.0729955       0.0246377 
        5.46639       0.0741516       0.0244573 
        5.48212       0.0751134       0.0242782 
        5.49786       0.0764846       0.0241007 
        5.51353        0.077807       0.0239259 
        5.52921       0.0789056       0.0237526 
        5.54495       0.0805485       0.0235805 
        5.56066       0.0818818       0.0234104 
        5.57637       0.0830789       0.0232419 
        5.59207        0.084239       0.0230752 
        5.60778        0.085785       0.0229101 
        5.62346        0.087428       0.0227469 
        5.63916       0.0885112        0.022585 
        5.65487        0.090524       0.0224247 
         5.6706       0.0919195       0.0222657 
        5.68633       0.0935812       0.0221083 
        5.70203       0.0955995       0.0219526 
        5.71773       0.0974918       0.0217985 
        5.73344       0.0993632       0.0216458 
        5.74916        0.100883       0.0214944 
        5.76486        0.103499       0.0213447 
        5.78054        0.105076       0.0211966 
        5.79626        0.106345       0.0210495 
          5.812        0.108998       0.0209037 
         5.8277        0.110919       0.0207596 
        5.84339        0.113315       0.0206169 
        5.85911         0.11539       0.0204753 
        5.87484        0.118031       0.0203351 
        5.89053         0.12017       0.0201964 
        5.90623        0.122145        0.020059 
        5.92195        0.124738       0.0199226 
        5.93767        0.126793       0.0197875 
        5.95336        0.129445       0.0196539 
        5.96905         0.13237       0.0195216 
        5.98476         0.13438       0.0193903 
        6.00048        0.137805       0.0192602 
        6.01617        0.139803       0.0191315 
        6.03185         0.14283       0.0190041 
        6.04756        0.146385       0.0188775 
        6.06331        0.149173       0.0187519 
        6.07903        0.152826       0.0186276 
        6.09473        0.156359       0.0185046 
        6.11044        0.159688       0.0183826 
        6.12616        0.161898       0.0182617 
        6.14186        0.165816        0.018142 
        6.15755        0.167866       0.0180233 
        6.17326        0.172131       0.0179057 
        6.18898        0.174622        0.017789 
        6.20467        0.178405       0.0176736 
        6.22036        0.181724       0.0175592 
         6.2361         0.18577       0.0174456 
         6.2518        0.190408       0.0173331 
        6.26748        0.193882       0.0172218 
        6.28319        0.197623       0.0171113 
        6.29893        0.202711       0.0170016 
        6.31463        0.204335        0.016893 
        6.33033        0.210386       0.0167855 
        6.34604        0.214076       0.0166787 
        6.36177        0.218256       0.0165729 
        6.37747        0.221654       0.0164681 
