# k  (h/Mpc)    Pcb(k)  (Mpc/h)^3    Pcb_linear(k) (Mpc/h)^3   ShotnoiseSubtracted = true
      0.0200456         25246.5         21961.4 
      0.0350414         17207.1         15688.5 
      0.0492313         11800.4         11367.1 
      0.0637834         9240.44         9467.08 
      0.0800726         6908.64         7425.75 
       0.096163          5183.5         5340.36 
       0.111083         4597.85         4297.55 
       0.126058         3982.85         3823.54 
       0.142273         3368.02         3193.34 
       0.158546         2866.98         2507.26 
        0.17375         2420.84         2136.78 
       0.188953         2197.24         1941.09 
       0.204907         1909.21         1697.59 
       0.220756         1798.05         1428.27 
        0.23588         1604.49         1252.99 
         0.2514         1462.94         1143.33 
       0.267535         1381.93         1026.55 
       0.283568         1286.72         900.712 
       0.299022         1169.72         806.414 
       0.314451         1127.04         739.758 
       0.330372         1032.84         675.974 
       0.346141           999.1         611.159 
       0.361624          945.55         556.481 
       0.377134         900.487         513.405 
       0.392932         826.102         474.408 
       0.408854         814.974          436.19 
       0.424564         753.593         402.142 
       0.440253         758.552         373.391 
       0.455999         718.042          347.78 
       0.471626         703.734         323.867 
        0.48727         666.489         301.858 
       0.502856         645.175         282.375 
       0.518488          623.46         264.821 
       0.534347         599.455         248.346 
       0.550082         588.965           233.2 
       0.565732         569.056         219.483 
       0.581496         550.606         206.887 
       0.597222         535.668         195.279 
       0.612804         524.464         184.596 
       0.628434         515.612         174.682 
       0.644267          491.04         165.428 
       0.660051         482.186         156.881 
       0.675724         472.251         148.985 
       0.691403         459.021         141.626 
       0.707174         449.159         134.722 
       0.722871         442.988         128.306 
        0.73838         427.374         122.377 
       0.754018         423.002         116.778 
       0.769845         412.498         111.468 
        0.78569         400.403         106.485 
       0.801365         389.714         101.856 
       0.817031         383.441          97.507 
       0.832809         376.665         93.3857 
       0.848511         368.399         89.5224 
       0.864097         362.709         85.9053 
       0.879701         357.616         82.4856 
       0.895507         348.782         79.2127 
       0.911279         335.794         76.1249 
        0.92691          334.92         73.2281 
       0.942635          325.92         70.4667 
       0.958396         321.433         67.8425 
       0.974128         315.466         65.3573 
       0.989692         307.649         63.0216 
        1.00528         302.041          60.797 
        1.02113         299.096         58.6454 
        1.03692         289.234         56.6063 
        1.05264         286.427         54.6739 
        1.06832         280.026         52.8351 
        1.08405         276.612         51.0763 
        1.09979         271.216         49.3969 
        1.11537         265.682         47.8099 
        1.13105         263.918         46.2835 
        1.14679          256.83          44.818 
        1.16256         254.675         43.4135 
        1.17828         249.404         42.0739 
        1.19395         245.323         40.7956 
         1.2097         243.885         39.5642 
        1.22537         238.664         38.3897 
          1.241         232.232         37.2666 
        1.25666         230.777         36.1858 
        1.27241          228.17         35.1429 
        1.28819         223.892         34.1396 
        1.30392         220.168         33.1784 
        1.31957         217.051         32.2587 
        1.33529         211.317         31.3706 
        1.35108          210.99         30.5125 
        1.36674         207.332         29.6927 
         1.3824         204.699         28.9039 
        1.39811         198.801         28.1412 
        1.41389         196.903         27.4032 
        1.42964         192.819          26.693 
        1.44531         189.559         26.0115 
        1.46101         187.976         25.3525 
        1.47667         184.322         24.7182 
        1.49229         181.154         24.1075 
        1.50793         180.761         23.5167 
        1.52367         176.193          22.942 
        1.53953         173.406         22.3827 
        1.55526         170.526         21.8465 
        1.57092         169.259         21.3302 
        1.58662           165.9         20.8293 
        1.60235         163.424         20.3436 
        1.61809         161.364         19.8732 
        1.63369         158.857         19.4219 
        1.64941         156.308         18.9814 
        1.66519         153.611          18.553 
        1.68085         152.276         18.1409 
        1.69652         149.433         17.7412 
        1.71228         147.163         17.3514 
        1.72806         146.554         16.9729 
        1.74368         143.096         16.6096 
        1.75933         140.144         16.2562 
        1.77505         138.607         15.9114 
        1.79081         136.974         15.5761 
         1.8065         135.785         15.2519 
        1.82218         133.311         14.9372 
        1.83797         131.099         14.6292 
        1.85367         129.535         14.3317 
        1.86928         127.818         14.0442 
        1.88497         126.276         13.7631 
        1.90073         124.584         13.4886 
        1.91647         121.669         13.2219 
        1.93218         120.657         12.9629 
        1.94787         119.223         12.7113 
        1.96363         117.636         12.4654 
        1.97935          115.57         12.2265 
        1.99499         114.543         11.9952 
        2.01064          112.45         11.7696 
         2.0264         111.401         11.5484 
        2.04216         110.079          11.333 
        2.05781         107.559         11.1244 
        2.07353          106.43         10.9204 
        2.08928         106.052          10.721 
        2.10499         104.299         10.5272 
        2.12065          102.53         10.3387 
        2.13633         101.138         10.1547 
        2.15211         99.7273         9.97402 
        2.16785         98.0669         9.79821 
        2.18349         96.9519         9.62776 
        2.19916          96.126           9.461 
        2.21489         94.7998         9.29765 
        2.23063         92.9349         9.13805 
         2.2463         91.8248         8.98291 
        2.26194         91.1543         8.83177 
        2.27765         89.5905         8.68334 
        2.29341           88.14         8.53793 
        2.30914         86.9948         8.39616 
        2.32486         85.9674         8.25768 
        2.34061          85.521         8.12211 
        2.35635          83.895          7.9897 
        2.37203         83.0286          7.8607 
        2.38768          81.909         7.73482 
        2.40339         80.8301         7.61125 
        2.41914         80.2645         7.49009 
        2.43483         78.7361         7.37199 
         2.4505         77.7617         7.25665 
        2.46622         76.9503         7.14337 
        2.48195          75.792         7.03251 
        2.49759          74.834          6.9246 
        2.51328         73.6966         6.81867 
        2.52906         73.2118         6.71429 
        2.54479         72.2204         6.61248 
        2.56049         71.4411         6.51299 
        2.57618         70.4329         6.41562 
        2.59189         69.5602         6.32011 
        2.60758         68.7304         6.22669 
        2.62325         68.0227         6.13527 
        2.63898         66.5078         6.04537 
        2.65468         66.0987         5.95746 
        2.67044         65.3528         5.87093 
        2.68618         64.5469         5.78631 
        2.70184         63.8649          5.7037 
        2.71755         63.0529          5.6225 
        2.73329         62.4056         5.54275 
        2.74897         61.9149         5.46482 
        2.76462         60.7047         5.38855 
        2.78034         60.0245         5.31343 
        2.79607         59.3222         5.23966 
        2.81179         58.8281         5.16737 
        2.82749         57.9258         5.09653 
        2.84321         57.4934         5.02694 
        2.85893         56.7251         4.95868 
        2.87462         55.8658         4.89179 
        2.89033         55.4123         4.82608 
        2.90605         54.7735         4.76152 
        2.92176          54.166         4.69817 
        2.93747         53.5012         4.63601 
        2.95318         52.9508         4.57497 
        2.96891         52.3296         4.51499 
        2.98456         51.5977         4.45635 
        3.00023         51.0929         4.39867 
        3.01596         50.2584         4.34184 
        3.03164         50.0232         4.28616 
        3.04738         49.3805         4.23131 
         3.0631         48.7227         4.17743 
        3.07883         48.3373         4.12449 
        3.09456         47.8581         4.07247 
        3.11026          47.182         4.02143 
        3.12596          46.505         3.97127 
        3.14163         46.1282         3.92209 
        3.15734         45.6322         3.87362 
        3.17308         45.2558         3.82585 
        3.18879         44.5695         3.77902 
        3.20447          44.083         3.73304 
         3.2202          43.564         3.68769 
         3.2359         43.1267         3.64317 
        3.25157         42.6312         3.59949 
        3.26729         42.1995         3.55639 
        3.28304         41.8513         3.51391 
        3.29877         41.3231         3.47219 
        3.31446         40.7845         3.43123 
        3.33014         40.3302         3.39097 
        3.34585         39.8519          3.3513 
        3.36158         39.6497          3.3122 
        3.37727         39.2981         3.27384 
        3.39294         38.6263         3.23613 
        3.40867         38.3554         3.19888 
        3.42439         38.0045         3.16223 
        3.44008          37.645         3.12623 
        3.45578         37.2362         3.09076 
        3.47153         36.8898         3.05577 
        3.48724         36.4008         3.02138 
        3.50292         36.0268         2.98759 
        3.51859         35.5771         2.95434 
        3.53431         35.3648          2.9215 
        3.55007         34.8504         2.88907 
        3.56577         34.4693         2.85726 
        3.58146         34.2826         2.82594 
        3.59719         33.8678         2.79503 
        3.61292         33.4526         2.76458 
        3.62859         33.2456          2.7347 
        3.64429          32.838         2.70521 
        3.66003         32.5784         2.67606 
        3.67578         32.1701         2.64735 
        3.69146         31.8969         2.61918 
        3.70712         31.5797         2.59146 
        3.72284         31.2324         2.56404 
        3.73853         30.9746         2.53706 
        3.75422         30.5643         2.51047 
        3.76993         30.0943         2.48423 
        3.78564         29.9645         2.45837 
        3.80137         29.7514         2.43285 
        3.81707         29.3914         2.40774 
        3.83279         29.1439         2.38296 
        3.84853         28.8763         2.35849 
        3.86424         28.5385         2.33441 
        3.87992         28.2998         2.31071 
        3.89561         28.0087         2.28733 
        3.91134         27.7639         2.26423 
        3.92704         27.4496         2.24147 
        3.94273         27.2703         2.21905 
        3.95845          26.903         2.19689 
        3.97418         26.7618         2.17503 
        3.98988         26.4809          2.1535 
        4.00554         26.1718         2.13232 
        4.02125         25.9156         2.11137 
        4.03698         25.6387         2.09066 
        4.05268         25.4795         2.07028 
        4.06839         25.2513         2.05015 
         4.0841         24.9789          2.0303 
        4.09983         24.7483         2.01068 
        4.11555          24.517         1.99133 
        4.13124         24.3076         1.97228 
        4.14693         23.9601         1.95347 
        4.16266         23.8021         1.93487 
        4.17839         23.6333         1.91651 
        4.19408         23.4397         1.89844 
        4.20977         23.1653         1.88059 
        4.22551         22.9777         1.86292 
        4.24123         22.7618          1.8455 
        4.25691         22.5056         1.82836 
        4.27259         22.3007         1.81142 
        4.28831         22.1027         1.79466 
        4.30404         21.9034          1.7781 
        4.31974         21.7344         1.76179 
        4.33543         21.5166         1.74569 
        4.35116         21.3594         1.72975 
        4.36688         21.1641         1.71402 
        4.38255          20.917         1.69854 
        4.39825         20.8147         1.68322 
        4.41398         20.5882         1.66805 
         4.4297         20.4071         1.65309 
        4.44541         20.2301         1.63832 
        4.46111         20.0337         1.62374 
        4.47683         19.9215         1.60932 
        4.49251         19.6821         1.59511 
        4.50819         19.5467         1.58107 
         4.5239         19.3439         1.56719 
        4.53962          19.179         1.55345 
        4.55535         19.0238         1.53987 
        4.57106         18.8836         1.52647 
        4.58678         18.6965         1.51323 
         4.6025         18.5477         1.50014 
        4.61821         18.3175         1.48721 
        4.63391         18.1983         1.47445 
         4.6496         18.0434         1.46184 
        4.66532         17.8855         1.44936 
        4.68103          17.727         1.43704 
        4.69673         17.5815         1.42486 
        4.71241         17.4505         1.41284 
        4.72811         17.3099         1.40094 
        4.74384         17.1821         1.38916 
        4.75955          17.016         1.37754 
        4.77525         16.8506         1.36605 
        4.79096         16.7314         1.35468 
        4.80669         16.6011         1.34344 
         4.8224         16.4476         1.33233 
        4.83809         16.2986         1.32136 
        4.85379         16.1697         1.31051 
         4.8695         16.0699         1.29977 
        4.88521         15.8917         1.28916 
        4.90093         15.7525         1.27866 
        4.91663         15.6644         1.26829 
        4.93234         15.5137         1.25803 
        4.94807         15.3463         1.24787 
        4.96377          15.204         1.23784 
        4.97943         15.1154         1.22794 
        4.99514         15.0012         1.21813 
        5.01086         14.8775         1.20841 
        5.02654         14.7656         1.19883 
        5.04227         14.6452         1.18932 
          5.058         14.5078         1.17991 
        5.07371         14.3838         1.17062 
        5.08942         14.2612         1.16143 
        5.10513         14.1785         1.15233 
        5.12084         14.0472         1.14333 
        5.13656         13.9199         1.13443 
        5.15225         13.8437         1.12564 
        5.16796         13.7189         1.11692 
        5.18369         13.5996          1.1083 
         5.1994         13.4451         1.09977 
        5.21509         13.4226         1.09135 
        5.23079         13.2818           1.083 
        5.24649         13.1658         1.07475 
        5.26217          13.108         1.06658 
        5.27788         12.9856          1.0585 
        5.29359         12.8715         1.05049 
        5.30933         12.7863         1.04256 
        5.32504         12.6775         1.03472 
        5.34073         12.5348         1.02696 
        5.35646         12.4922         1.01928 
        5.37218         12.3685         1.01167 
        5.38789          12.268         1.00415 
        5.40357         12.1841        0.996714 
        5.41929         12.0773        0.989338 
        5.43502         11.9959        0.982036 
         5.4507         11.9156        0.974825 
        5.46639         11.8036        0.967686 
        5.48212         11.7173        0.960601 
        5.49786         11.6359        0.953578 
        5.51353         11.5291        0.946661 
        5.52921         11.4287        0.939805 
        5.54495         11.3534        0.932997 
        5.56066         11.2844        0.926263 
        5.57637         11.1889        0.919598 
        5.59207         11.1465        0.913003 
        5.60778         11.0319        0.906471 
        5.62346         10.9469        0.900011 
        5.63916         10.8545        0.893609 
        5.65487         10.8089        0.887265 
         5.6706         10.7092        0.880975 
        5.68633         10.6345        0.874744 
        5.70203         10.5541        0.868586 
        5.71773           10.49        0.862489 
        5.73344         10.3963        0.856447 
        5.74916         10.3187        0.850457 
        5.76486         10.2434        0.844532 
        5.78054         10.1658        0.838673 
        5.79626         10.1057        0.832853 
          5.812         10.0135        0.827082 
         5.8277         9.95804        0.821383 
        5.84339         9.88088        0.815738 
        5.85911         9.79595        0.810135 
        5.87484         9.73544        0.804585 
        5.89053         9.67196        0.799099 
        5.90623         9.59423        0.793661 
        5.92195         9.51732        0.788264 
        5.93767         9.46296         0.78292 
        5.95336         9.37717        0.777634 
        5.96905         9.32704          0.7724 
        5.98476         9.24079        0.767206 
        6.00048         9.19552        0.762058 
        6.01617         9.10999        0.756964 
        6.03185         9.05692        0.751923 
        6.04756         8.98274        0.746916 
        6.06331         8.93083        0.741944 
        6.07903         8.88049        0.737027 
        6.09473         8.79926        0.732159 
        6.11044         8.72751        0.727331 
        6.12616         8.67723        0.722548 
        6.14186         8.62061        0.717812 
        6.15755         8.56442        0.713118 
        6.17326         8.49924        0.708463 
        6.18898         8.43549        0.703848 
        6.20467         8.37546        0.699282 
        6.22036         8.32758        0.694756 
         6.2361         8.26754        0.690258 
         6.2518         8.20886        0.685808 
        6.26748          8.1569        0.681406 
        6.28319         8.09967        0.677031 
        6.29893         8.03049        0.672691 
        6.31463         7.97418        0.668396 
        6.33033         7.92539         0.66414 
        6.34604         7.87248        0.659918 
        6.36177         7.82762        0.655728 
        6.37747         7.75896        0.651583 
