# k  (h/Mpc)    Pcb(k)  (Mpc/h)^3    Pcb_linear(k) (Mpc/h)^3   ShotnoiseSubtracted = true
      0.0200456         12720.3         11047.7 
      0.0350414         8807.22         7892.14 
      0.0492313         6048.32         5718.26 
      0.0637834         4640.11         4762.44 
      0.0800726         3552.74         3735.54 
       0.096163         2612.31         2686.48 
       0.111083         2297.07         2161.89 
       0.126058         1981.88         1923.44 
       0.142273         1621.74         1606.42 
       0.158546         1377.16         1261.29 
        0.17375         1147.58         1074.91 
       0.188953         1050.83         976.469 
       0.204907         882.084         853.975 
       0.220756         837.494         718.495 
        0.23588         727.889         630.319 
         0.2514         658.729         575.154 
       0.267535         614.446          516.41 
       0.283568         559.368         453.106 
       0.299022          496.02         405.669 
       0.314451         488.069         372.137 
       0.330372         441.233          340.05 
       0.346141         420.362         307.445 
       0.361624          382.35         279.939 
       0.377134         362.556          258.27 
       0.392932         344.552         238.652 
       0.408854         330.504         219.427 
       0.424564         303.016         202.299 
       0.440253         297.938         187.835 
       0.455999         277.572         174.952 
       0.471626         274.323         162.922 
        0.48727         250.355          151.85 
       0.502856         243.522         142.049 
       0.518488         237.324         133.219 
       0.534347         219.826         124.931 
       0.550082         217.817         117.312 
       0.565732          208.43         110.412 
       0.581496          200.31         104.075 
       0.597222         191.236         98.2354 
       0.612804          187.52         92.8615 
       0.628434         182.173         87.8745 
       0.644267         175.989         83.2191 
       0.660051         171.463         78.9193 
       0.675724         163.076         74.9473 
       0.691403         161.668         71.2453 
       0.707174         154.301         67.7724 
       0.722871         149.454         64.5448 
        0.73838           146.4          61.562 
       0.754018         143.949         58.7453 
       0.769845         139.804         56.0743 
        0.78569         136.861         53.5674 
       0.801365         131.933         51.2389 
       0.817031          130.32         49.0512 
       0.832809         125.341         46.9779 
       0.848511         124.112         45.0345 
       0.864097         120.283         43.2149 
       0.879701         118.166         41.4946 
       0.895507          114.94         39.8481 
       0.911279         111.905         38.2948 
        0.92691          110.25         36.8376 
       0.942635         108.521         35.4485 
       0.958396         106.184         34.1284 
       0.974128         103.761         32.8782 
       0.989692         101.624         31.7032 
        1.00528         100.396         30.5841 
        1.02113          97.253         29.5017 
        1.03692          95.637         28.4759 
        1.05264         94.1318         27.5038 
        1.06832         92.6168         26.5788 
        1.08405         91.4588         25.6941 
        1.09979         88.5167         24.8492 
        1.11537         87.0053         24.0509 
        1.13105         85.3219          23.283 
        1.14679         84.3243         22.5458 
        1.16256         82.8128         21.8392 
        1.17828         81.3279         21.1654 
        1.19395         80.2084         20.5223 
         1.2097         78.1374         19.9029 
        1.22537         76.8353          19.312 
          1.241         75.6644          18.747 
        1.25666         74.4152         18.2033 
        1.27241         73.4273         17.6787 
        1.28819         71.4638          17.174 
        1.30392         71.2483         16.6905 
        1.31957         70.6675         16.2278 
        1.33529         68.5494          15.781 
        1.35108         68.0106         15.3494 
        1.36674         66.3209          14.937 
         1.3824         65.5873         14.5402 
        1.39811         64.4925         14.1565 
        1.41389         63.3497         13.7853 
        1.42964         62.4825          13.428 
        1.44531         61.1968         13.0852 
        1.46101         60.6087         12.7536 
        1.47667         59.5123         12.4346 
        1.49229         58.7393         12.1273 
        1.50793         57.8601         11.8301 
        1.52367            56.5          11.541 
        1.53953         56.3225         11.2597 
        1.55526          55.532         10.9899 
        1.57092         54.3293         10.7302 
        1.58662         54.0004         10.4782 
        1.60235         52.3462         10.2339 
        1.61809         52.0975         9.99728 
        1.63369         51.4941         9.77024 
        1.64941         50.4047         9.54864 
        1.66519         49.5671         9.33314 
        1.68085         49.1921         9.12583 
        1.69652         48.5493         8.92477 
        1.71228         47.9113         8.72865 
        1.72806         47.3137         8.53827 
        1.74368         46.5203         8.35549 
        1.75933         46.0856         8.17771 
        1.77505         45.3575         8.00428 
        1.79081          44.589         7.83559 
         1.8065         44.0818         7.67249 
        1.82218         43.6405         7.51418 
        1.83797          43.116         7.35927 
        1.85367         42.1353         7.20958 
        1.86928         41.8113         7.06497 
        1.88497         41.2035         6.92354 
        1.90073         40.8691         6.78547 
        1.91647         40.1137         6.65129 
        1.93218          39.432         6.52104 
        1.94787         39.3493         6.39446 
        1.96363         38.5967         6.27076 
        1.97935         38.1962         6.15058 
        1.99499         37.4855         6.03424 
        2.01064         37.0229         5.92074 
         2.0264         36.7568         5.80946 
        2.04216         36.1921         5.70109 
        2.05781         35.7369         5.59618 
        2.07353          35.193         5.49354 
        2.08928          34.826         5.39325 
        2.10499          34.383         5.29573 
        2.12065         33.9698         5.20092 
        2.13633         33.5239         5.10836 
        2.15211          33.066         5.01745 
        2.16785         32.5609         4.92902 
        2.18349         32.4998         4.84327 
        2.19916         31.8469         4.75938 
        2.21489         31.4541         4.67721 
        2.23063         31.0517         4.59692 
         2.2463         30.7248         4.51888 
        2.26194          30.263         4.44285 
        2.27765         30.0121         4.36817 
        2.29341         29.5836         4.29503 
        2.30914         29.2061         4.22371 
        2.32486         28.9068         4.15405 
        2.34061         28.4946         4.08585 
        2.35635         28.1195         4.01924 
        2.37203          27.758         3.95435 
        2.38768         27.5009         3.89102 
        2.40339         27.3262         3.82886 
        2.41914         26.9896         3.76791 
        2.43483         26.5822          3.7085 
         2.4505         26.1583         3.65048 
        2.46622         25.9681         3.59349 
        2.48195         25.6214         3.53772 
        2.49759         25.3721         3.48344 
        2.51328         25.0129         3.43015 
        2.52906         24.7945         3.37764 
        2.54479         24.4366         3.32643 
        2.56049         24.0678         3.27637 
        2.57618         23.8486          3.2274 
        2.59189         23.6706         3.17935 
        2.60758         23.4257         3.13235 
        2.62325         23.1173         3.08636 
        2.63898          22.893         3.04114 
        2.65468         22.5815         2.99692 
        2.67044         22.2892         2.95338 
        2.68618         22.0549         2.91082 
        2.70184         21.8641         2.86926 
        2.71755         21.6751         2.82841 
        2.73329         21.2266          2.7883 
        2.74897         21.1141         2.74909 
        2.76462          20.829         2.71072 
        2.78034         20.6688         2.67293 
        2.79607         20.4318         2.63582 
        2.81179         20.2285         2.59946 
        2.82749         19.9194         2.56382 
        2.84321          19.756         2.52882 
        2.85893          19.541         2.49447 
        2.87462         19.3083         2.46083 
        2.89033         19.0548         2.42777 
        2.90605         18.9402          2.3953 
        2.92176         18.6813         2.36343 
        2.93747         18.4392         2.33216 
        2.95318         18.2808         2.30145 
        2.96891         18.1334         2.27128 
        2.98456           17.95         2.24178 
        3.00023         17.7532         2.21276 
        3.01596         17.4826         2.18417 
        3.03164         17.3397         2.15617 
        3.04738         17.1725         2.12857 
         3.0631         16.9654         2.10147 
        3.07883         16.7769         2.07483 
        3.09456          16.614         2.04867 
        3.11026         16.4211         2.02299 
        3.12596         16.2568         1.99776 
        3.14163         16.0744         1.97302 
        3.15734         15.8914         1.94863 
        3.17308         15.7557          1.9246 
        3.18879         15.6111         1.90105 
        3.20447         15.4258         1.87792 
         3.2202         15.2519          1.8551 
         3.2359         15.1783          1.8327 
        3.25157         14.9282         1.81073 
        3.26729         14.7757         1.78905 
        3.28304         14.6663         1.76768 
        3.29877         14.5428         1.74669 
        3.31446         14.3718         1.72609 
        3.33014         14.2525         1.70584 
        3.34585         14.0982         1.68588 
        3.36158         13.9537         1.66621 
        3.37727         13.8194         1.64691 
        3.39294         13.6394         1.62794 
        3.40867         13.5277          1.6092 
        3.42439          13.368         1.59077 
        3.44008          13.233         1.57266 
        3.45578         13.1082         1.55482 
        3.47153         12.9545         1.53721 
        3.48724         12.8767         1.51991 
        3.50292         12.7229         1.50292 
        3.51859         12.6252         1.48619 
        3.53431         12.4833         1.46967 
        3.55007         12.3312         1.45335 
        3.56577         12.2413         1.43735 
        3.58146         12.1101          1.4216 
        3.59719         11.9964         1.40605 
        3.61292         11.9033         1.39073 
        3.62859         11.7604          1.3757 
        3.64429         11.6492         1.36086 
        3.66003         11.5346          1.3462 
        3.67578         11.4383         1.33176 
        3.69146         11.3671         1.31758 
        3.70712         11.2193         1.30364 
        3.72284         11.1006         1.28985 
        3.73853         11.0042         1.27628 
        3.75422         10.9286          1.2629 
        3.76993         10.8027          1.2497 
        3.78564           10.66         1.23669 
        3.80137         10.6065         1.22385 
        3.81707         10.4974         1.21122 
        3.83279         10.3915         1.19875 
        3.84853         10.2976         1.18644 
        3.86424         10.1754         1.17433 
        3.87992          10.148         1.16241 
        3.89561         10.0004         1.15065 
        3.91134         9.93669         1.13902 
        3.92704         9.82688         1.12758 
        3.94273         9.70232          1.1163 
        3.95845         9.65089         1.10515 
        3.97418         9.57226         1.09416 
        3.98988          9.4577         1.08333 
        4.00554         9.36989         1.07267 
        4.02125          9.3236         1.06213 
        4.03698         9.18621         1.05171 
        4.05268         9.13548         1.04146 
        4.06839          9.0615         1.03133 
         4.0841         8.96964         1.02135 
        4.09983         8.85927         1.01148 
        4.11555         8.79287         1.00174 
        4.13124         8.73447        0.992163 
        4.14693          8.6755          0.9827 
        4.16266         8.59366        0.973339 
        4.17839         8.49592        0.964106 
        4.19408         8.43381        0.955013 
        4.20977         8.35629        0.946033 
        4.22551         8.27846        0.937148 
        4.24123         8.21816        0.928385 
        4.25691         8.14114        0.919759 
        4.27259         8.07503        0.911239 
        4.28831         8.01131         0.90281 
        4.30404         7.91186         0.89448 
        4.31974         7.86459        0.886273 
        4.33543         7.79662        0.878173 
        4.35116         7.70806        0.870155 
        4.36688         7.64062        0.862241 
        4.38255         7.57733        0.854454 
        4.39825         7.53947        0.846746 
        4.41398         7.46303        0.839119 
         4.4297         7.41792        0.831593 
        4.44541         7.34768        0.824161 
        4.46111         7.27005        0.816825 
        4.47683         7.22739        0.809573 
        4.49251         7.14961        0.802424 
        4.50819         7.10294        0.795363 
         4.5239         7.02421        0.788377 
        4.53962         6.96757        0.781466 
        4.55535         6.91718        0.774635 
        4.57106          6.8801        0.767895 
        4.58678         6.79616        0.761234 
         4.6025         6.75963         0.75465 
        4.61821          6.6797        0.748145 
        4.63391         6.65367        0.741725 
         4.6496         6.59387        0.735383 
        4.66532         6.53456        0.729106 
        4.68103         6.47865        0.722905 
        4.69673         6.43837        0.716781 
        4.71241         6.37029        0.710734 
        4.72811         6.33188        0.704747 
        4.74384         6.27629        0.698822 
        4.75955          6.2251        0.692974 
        4.77525         6.16877        0.687195 
        4.79096         6.12044        0.681476 
        4.80669         6.07305        0.675819 
         4.8224         6.02641        0.670232 
        4.83809          5.9801        0.664715 
        4.85379         5.92993        0.659256 
         4.8695         5.88841        0.653854 
        4.88521          5.8286        0.648515 
        4.90093         5.78537        0.643235 
        4.91663         5.74953        0.638018 
        4.93234         5.69089        0.632853 
        4.94807         5.67918        0.627742 
        4.96377         5.61473        0.622697 
        4.97943         5.57257        0.617718 
        4.99514         5.54077        0.612781 
        5.01086         5.48115        0.607894 
        5.02654         5.43919        0.603073 
        5.04227         5.40351         0.59829 
          5.058         5.36944        0.593556 
        5.07371         5.31929        0.588883 
        5.08942            5.28        0.584259 
        5.10513          5.2244        0.579685 
        5.12084         5.19372        0.575157 
        5.13656         5.15317        0.570679 
        5.15225         5.12334        0.566255 
        5.16796         5.07902        0.561872 
        5.18369         5.05006        0.557531 
         5.1994         4.99729        0.553243 
        5.21509           4.977        0.549005 
        5.23079         4.93256        0.544806 
        5.24649          4.8956        0.540654 
        5.26217         4.85819        0.536548 
        5.27788         4.82002        0.532479 
        5.29359         4.77572        0.528452 
        5.30933         4.74827         0.52446 
        5.32504         4.71597        0.520516 
        5.34073         4.68077        0.516617 
        5.35646         4.64264        0.512751 
        5.37218         4.60616        0.508923 
        5.38789         4.59123         0.50514 
        5.40357         4.55427          0.5014 
        5.41929         4.51046        0.497689 
        5.43502         4.47942        0.494016 
         5.4507         4.45543        0.490388 
        5.46639         4.41609        0.486797 
        5.48212         4.38751        0.483233 
        5.49786         4.35804          0.4797 
        5.51353         4.31739         0.47622 
        5.52921         4.30454        0.472771 
        5.54495         4.25779        0.469346 
        5.56066         4.23565        0.465959 
        5.57637         4.19947        0.462606 
        5.59207         4.17868        0.459288 
        5.60778         4.15008        0.456002 
        5.62346         4.12554        0.452753 
        5.63916          4.0775        0.449532 
        5.65487         4.06017        0.446341 
         5.6706         4.03853        0.443177 
        5.68633         4.00369        0.440042 
        5.70203         3.97634        0.436945 
        5.71773         3.95286        0.433877 
        5.73344         3.92616        0.430838 
        5.74916         3.90104        0.427824 
        5.76486         3.86496        0.424844 
        5.78054         3.84852        0.421897 
        5.79626         3.82181        0.418969 
          5.812         3.79123        0.416066 
         5.8277         3.76968        0.413199 
        5.84339         3.74496        0.410359 
        5.85911         3.72195         0.40754 
        5.87484         3.69565        0.404749 
        5.89053          3.6667        0.401989 
        5.90623         3.64077        0.399253 
        5.92195         3.62172        0.396538 
        5.93767         3.59478         0.39385 
        5.95336          3.5749        0.391191 
        5.96905         3.54964        0.388558 
        5.98476         3.52873        0.385945 
        6.00048         3.51286        0.383355 
        6.01617         3.47595        0.380793 
        6.03185         3.45482        0.378257 
        6.04756         3.43887        0.375738 
        6.06331         3.41531        0.373237 
        6.07903          3.3947        0.370763 
        6.09473         3.36642        0.368315 
        6.11044         3.35197        0.365886 
        6.12616         3.33093        0.363479 
        6.14186          3.3166        0.361097 
        6.15755         3.28607        0.358736 
        6.17326         3.26403        0.356394 
        6.18898         3.23865        0.354072 
        6.20467         3.22173        0.351775 
        6.22036         3.20694        0.349499 
         6.2361         3.18374        0.347236 
         6.2518         3.16822        0.344997 
        6.26748         3.14187        0.342783 
        6.28319         3.12749        0.340582 
        6.29893         3.10411        0.338399 
        6.31463         3.08846        0.336238 
        6.33033         3.07236        0.334097 
        6.34604         3.04757        0.331973 
        6.36177         3.03362        0.329866 
        6.37747         3.01286         0.32778 
