# k  (h/Mpc)    Pcb(k)  (Mpc/h)^3    Pcb_linear(k) (Mpc/h)^3   ShotnoiseSubtracted = true
      0.0200456         25021.3         21764.9 
      0.0350414         17057.7         15548.2 
      0.0492313         11697.8         11265.4 
      0.0637834         9156.82         9382.39 
      0.0800726         6848.36         7359.32 
       0.096163         5136.27         5292.59 
       0.111083         4555.09         4259.11 
       0.126058            3945         3789.34 
       0.142273         3333.75         3164.77 
       0.158546         2837.39         2484.84 
        0.17375         2394.62         2117.66 
       0.188953         2173.31         1923.72 
       0.204907         1886.74          1682.4 
       0.220756         1776.93         1415.49 
        0.23588         1584.76         1241.78 
         0.2514         1443.76          1133.1 
       0.267535         1363.24         1017.37 
       0.283568         1268.31         892.655 
       0.299022         1152.39         799.201 
       0.314451         1110.05          733.14 
       0.330372         1016.66         669.927 
       0.346141         982.602         605.692 
       0.361624         928.975         551.503 
       0.377134         884.222         508.812 
       0.392932         810.833         470.164 
       0.408854         799.541         432.288 
       0.424564         738.533         398.545 
       0.440253         742.859         370.051 
       0.455999         702.579         344.669 
       0.471626         688.554          320.97 
        0.48727         651.387         299.158 
       0.502856         630.142         279.849 
       0.518488         608.572         262.452 
       0.534347         584.497         246.124 
       0.550082         574.068         231.114 
       0.565732         554.101          217.52 
       0.581496         535.906         205.036 
       0.597222         520.861         193.532 
       0.612804         509.695         182.945 
       0.628434         500.742          173.12 
       0.644267         476.412         163.948 
       0.660051         467.615         155.477 
       0.675724         457.362         147.652 
       0.691403         444.729         140.359 
       0.707174         434.608         133.517 
       0.722871         428.199         127.159 
        0.73838         412.824         121.282 
       0.754018         408.169         115.733 
       0.769845          397.74         110.471 
        0.78569          385.84         105.532 
       0.801365         375.379         100.945 
       0.817031         369.093         96.6348 
       0.832809         362.352         92.5504 
       0.848511         354.078         88.7216 
       0.864097          348.33         85.1369 
       0.879701         343.146         81.7478 
       0.895507         334.518         78.5041 
       0.911279         321.802          75.444 
        0.92691         320.797         72.5731 
       0.942635         311.957         69.8364 
       0.958396         307.457         67.2357 
       0.974128         301.589         64.7727 
       0.989692          293.89         62.4578 
        1.00528         288.341         60.2532 
        1.02113         285.323         58.1208 
        1.03692         275.773         56.0999 
        1.05264         272.932         54.1848 
        1.06832         266.868         52.3625 
        1.08405         263.289         50.6194 
        1.09979         258.028          48.955 
        1.11537         252.764         47.3822 
        1.13105          250.74         45.8694 
        1.14679         244.101         44.4171 
        1.16256         241.715         43.0251 
        1.17828         236.735         41.6975 
        1.19395         232.538         40.4307 
         1.2097         231.122         39.2103 
        1.22537         226.067         38.0463 
          1.241         219.955         36.9332 
        1.25666         218.368         35.8621 
        1.27241         215.724         34.8286 
        1.28819         211.454         33.8342 
        1.30392         207.741         32.8816 
        1.31957         204.715         31.9701 
        1.33529         199.419           31.09 
        1.35108         198.739         30.2395 
        1.36674         195.235         29.4271 
         1.3824         192.578         28.6454 
        1.39811         187.063         27.8895 
        1.41389         185.095         27.1581 
        1.42964         181.211         26.4543 
        1.44531         178.034         25.7789 
        1.46101         176.448         25.1257 
        1.47667         172.935         24.4971 
        1.49229         169.841         23.8918 
        1.50793         169.423         23.3063 
        1.52367         165.111         22.7368 
        1.53953         162.323         22.1824 
        1.55526         159.497         21.6511 
        1.57092         158.328         21.1394 
        1.58662         155.068          20.643 
        1.60235         152.709         20.1617 
        1.61809         150.724         19.6955 
        1.63369         148.352         19.2482 
        1.64941         145.915         18.8116 
        1.66519         143.154          18.387 
        1.68085         141.924         17.9786 
        1.69652         139.208         17.5825 
        1.71228         137.117         17.1961 
        1.72806         136.499         16.8211 
        1.74368         133.253          16.461 
        1.75933         130.354         16.1108 
        1.77505         128.824         15.7691 
        1.79081         127.272         15.4368 
         1.8065         126.119         15.1154 
        1.82218         123.722         14.8035 
        1.83797         121.685         14.4984 
        1.85367         120.194         14.2035 
        1.86928          118.53         13.9186 
        1.88497         117.004         13.6399 
        1.90073         115.448         13.3679 
        1.91647         112.632         13.1036 
        1.93218         111.688          12.847 
        1.94787         110.299         12.5976 
        1.96363         108.792         12.3539 
        1.97935         106.889         12.1171 
        1.99499         105.799         11.8879 
        2.01064         103.901         11.6643 
         2.0264          102.84         11.4451 
        2.04216         101.559         11.2316 
        2.05781         99.1896         11.0249 
        2.07353         98.0952         10.8227 
        2.08928         97.6825         10.6251 
        2.10499         96.0723          10.433 
        2.12065         94.4265         10.2462 
        2.13633          93.151         10.0639 
        2.15211         91.7057         9.88479 
        2.16785         90.2178         9.71057 
        2.18349         89.1133         9.54163 
        2.19916         88.3245         9.37637 
        2.21489         87.0718         9.21448 
        2.23063         85.3604          9.0563 
         2.2463         84.2824         8.90256 
        2.26194         83.5652         8.75277 
        2.27765         82.1467         8.60566 
        2.29341         80.8039         8.46155 
        2.30914         79.7367         8.32105 
        2.32486         78.7403         8.18382 
        2.34061         78.2952         8.04945 
        2.35635         76.8285         7.91823 
        2.37203         75.9702         7.79039 
        2.38768         74.9144         7.66563 
        2.40339          73.934         7.54316 
        2.41914         73.3484         7.42309 
        2.43483         71.8916         7.30605 
         2.4505         71.0489         7.19173 
        2.46622         70.2025         7.07947 
        2.48195         69.1897         6.96961 
        2.49759         68.2946         6.86266 
        2.51328         67.2131         6.75767 
        2.52906         66.7716         6.65423 
        2.54479           65.86         6.55333 
        2.56049         65.0549         6.45472 
        2.57618         64.0958         6.35823 
        2.59189         63.3553         6.26357 
        2.60758         62.5451         6.17099 
        2.62325         61.9431         6.08039 
        2.63898         60.4693         5.99129 
        2.65468         60.1389         5.90417 
        2.67044         59.4294         5.81841 
        2.68618         58.6561         5.73455 
        2.70184         58.0183         5.65268 
        2.71755         57.2915          5.5722 
        2.73329         56.6748         5.49317 
        2.74897         56.1979         5.41593 
        2.76462         55.0631         5.34035 
        2.78034         54.4371          5.2659 
        2.79607         53.8295         5.19279 
        2.81179         53.2902         5.12115 
        2.82749         52.5208         5.05094 
        2.84321         52.0566         4.98198 
        2.85893         51.3551         4.91432 
        2.87462         50.5561         4.84803 
        2.89033         50.1221         4.78291 
        2.90605         49.5523         4.71893 
        2.92176         48.9979         4.65615 
        2.93747          48.384         4.59454 
        2.95318         47.8614         4.53404 
        2.96891         47.2803          4.4746 
        2.98456         46.6064         4.41649 
        3.00023         46.1339         4.35933 
        3.01596         45.3756           4.303 
        3.03164         45.1476         4.24782 
        3.04738         44.5742         4.19346 
         3.0631         43.9725         4.14006 
        3.07883         43.6224         4.08759 
        3.09456         43.1361         4.03604 
        3.11026         42.5506         3.98546 
        3.12596         41.9281         3.93575 
        3.14163          41.542           3.887 
        3.15734         41.1063         3.83897 
        3.17308         40.7377         3.79163 
        3.18879         40.1423         3.74522 
        3.20447         39.6802         3.69965 
         3.2202         39.2101          3.6547 
         3.2359         38.8215         3.61058 
        3.25157         38.3906         3.56729 
        3.26729         37.9626         3.52458 
        3.28304         37.6457         3.48248 
        3.29877         37.1496         3.44113 
        3.31446         36.6441         3.40054 
        3.33014         36.2364         3.36064 
        3.34585         35.8425         3.32132 
        3.36158         35.6231         3.28257 
        3.37727         35.2765         3.24456 
        3.39294         34.6857         3.20718 
        3.40867         34.4121         3.17026 
        3.42439         34.1161         3.13394 
        3.44008         33.7652         3.09826 
        3.45578         33.3888         3.06311 
        3.47153         33.0811         3.02843 
        3.48724         32.6172         2.99435 
        3.50292         32.2909         2.96087 
        3.51859         31.8711         2.92792 
        3.53431         31.6682         2.89536 
        3.55007         31.2051         2.86322 
        3.56577         30.8881          2.8317 
        3.58146         30.6848         2.80067 
        3.59719         30.3214         2.77002 
        3.61292         29.9519         2.73985 
        3.62859         29.7435         2.71024 
        3.64429         29.3749         2.68101 
        3.66003         29.1201         2.65212 
        3.67578         28.7634         2.62367 
        3.69146         28.5179         2.59575 
        3.70712         28.1925         2.56828 
        3.72284         27.9191          2.5411 
        3.73853         27.6664         2.51437 
        3.75422         27.2966         2.48801 
        3.76993         26.8623         2.46201 
        3.78564          26.757         2.43638 
        3.80137         26.5533         2.41108 
        3.81707         26.2424          2.3862 
        3.83279         26.0126         2.36164 
        3.84853          25.766         2.33739 
        3.86424         25.4711         2.31353 
        3.87992          25.242         2.29004 
        3.89561         24.9927         2.26687 
        3.91134         24.7564         2.24397 
        3.92704         24.4828         2.22142 
        3.94273         24.3043          2.1992 
        3.95845          23.986         2.17724 
        3.97418          23.839         2.15558 
        3.98988         23.6046         2.13424 
        4.00554         23.3178         2.11325 
        4.02125         23.0792         2.09248 
        4.03698         22.8466         2.07196 
        4.05268         22.6866         2.05176 
        4.06839         22.4856         2.03181 
         4.0841         22.2519         2.01213 
        4.09983         22.0325         1.99269 
        4.11555         21.8258         1.97351 
        4.13124         21.6225         1.95464 
        4.14693         21.3294           1.936 
        4.16266         21.1593         1.91756 
        4.17839         21.0261         1.89937 
        4.19408         20.8647         1.88145 
        4.20977          20.597         1.86376 
        4.22551         20.4432         1.84626 
        4.24123         20.2475         1.82899 
        4.25691         20.0235           1.812 
        4.27259         19.8309         1.79522 
        4.28831         19.6476         1.77861 
        4.30404         19.4704          1.7622 
        4.31974         19.3198         1.74603 
        4.33543         19.1254         1.73007 
        4.35116         18.9911         1.71428 
        4.36688         18.7957         1.69868 
        4.38255         18.5812         1.68334 
        4.39825         18.4868         1.66816 
        4.41398         18.2864         1.65313 
         4.4297         18.1304         1.63831 
        4.44541          17.974         1.62366 
        4.46111         17.7896         1.60921 
        4.47683         17.6732         1.59493 
        4.49251         17.4949         1.58084 
        4.50819         17.3461         1.56693 
         4.5239         17.1573         1.55317 
        4.53962         17.0297         1.53955 
        4.55535         16.8787         1.52609 
        4.57106         16.7465         1.51282 
        4.58678         16.5874         1.49969 
         4.6025         16.4633         1.48672 
        4.61821          16.252         1.47391 
        4.63391         16.1402         1.46126 
         4.6496         16.0085         1.44877 
        4.66532         15.8608          1.4364 
        4.68103         15.7205         1.42418 
        4.69673         15.5872         1.41212 
        4.71241         15.4638          1.4002 
        4.72811         15.3421         1.38841 
        4.74384         15.2145         1.37674 
        4.75955         15.0813         1.36521 
        4.77525         14.9289         1.35383 
        4.79096         14.8256         1.34256 
        4.80669          14.704         1.33142 
         4.8224         14.5597         1.32041 
        4.83809         14.4279         1.30954 
        4.85379         14.3226         1.29879 
         4.8695         14.2152         1.28815 
        4.88521         14.0596         1.27763 
        4.90093         13.9548         1.26722 
        4.91663         13.8577         1.25695 
        4.93234         13.7213         1.24677 
        4.94807         13.5794          1.2367 
        4.96377         13.4571         1.22676 
        4.97943         13.3719         1.21696 
        4.99514         13.2681         1.20723 
        5.01086         13.1563          1.1976 
        5.02654         13.0562          1.1881 
        5.04227         12.9572         1.17868 
          5.058         12.8299         1.16935 
        5.07371         12.7163         1.16015 
        5.08942         12.6013         1.15104 
        5.10513         12.5337         1.14203 
        5.12084         12.4178         1.13311 
        5.13656         12.3105         1.12428 
        5.15225         12.2399         1.11557 
        5.16796         12.1247         1.10693 
        5.18369         12.0308         1.09838 
         5.1994         11.8892         1.08993 
        5.21509         11.8527         1.08158 
        5.23079         11.7381         1.07331 
        5.24649         11.6351         1.06513 
        5.26217         11.5894         1.05704 
        5.27788         11.4718         1.04903 
        5.29359         11.3759         1.04109 
        5.30933         11.2969         1.03323 
        5.32504         11.2071         1.02546 
        5.34073         11.0664         1.01778 
        5.35646         11.0321         1.01016 
        5.37218         10.9287         1.00262 
        5.38789         10.8421        0.995166 
        5.40357         10.7727        0.987798 
        5.41929         10.6648        0.980488 
        5.43502         10.5989        0.973252 
         5.4507         10.5243        0.966105 
        5.46639         10.4225        0.959029 
        5.48212         10.3554        0.952008 
        5.49786         10.2782        0.945048 
        5.51353         10.1838        0.938193 
        5.52921         10.0981        0.931398 
        5.54495         10.0281        0.924651 
        5.56066         9.96728        0.917978 
        5.57637         9.88697        0.911371 
        5.59207         9.85393        0.904836 
        5.60778         9.73961        0.898362 
        5.62346         9.66979         0.89196 
        5.63916         9.58289        0.885615 
        5.65487         9.54931        0.879328 
         5.6706         9.45662        0.873095 
        5.68633          9.3924        0.866919 
        5.70203         9.32134        0.860817 
        5.71773         9.25772        0.854774 
        5.73344         9.17446        0.848785 
        5.74916         9.11603        0.842849 
        5.76486          9.0433        0.836977 
        5.78054         8.98161        0.831171 
        5.79626          8.9227        0.825403 
          5.812         8.84214        0.819684 
         5.8277         8.79376        0.814036 
        5.84339         8.72169        0.808441 
        5.85911         8.64956        0.802888 
        5.87484         8.59427        0.797388 
        5.89053         8.54216         0.79195 
        5.90623         8.47603        0.786561 
        5.92195         8.40401        0.781212 
        5.93767         8.35549        0.775916 
        5.95336         8.28325        0.770678 
        5.96905           8.234         0.76549 
        5.98476         8.16496        0.760343 
        6.00048         8.11513        0.755241 
        6.01617         8.04241        0.750193 
        6.03185          8.0032        0.745197 
        6.04756         7.93109        0.740235 
        6.06331          7.8868        0.735307 
        6.07903         7.83992        0.730434 
        6.09473         7.77263         0.72561 
        6.11044         7.70634        0.720825 
        6.12616         7.65956        0.716084 
        6.14186         7.61387        0.711391 
        6.15755         7.56322        0.706739 
        6.17326         7.50736        0.702126 
        6.18898          7.4526        0.697552 
        6.20467          7.3976        0.693026 
        6.22036         7.35169        0.688541 
         6.2361         7.30111        0.684084 
         6.2518         7.24725        0.679673 
        6.26748         7.20119        0.675311 
        6.28319         7.15394        0.670975 
        6.29893         7.09766        0.666673 
        6.31463         7.04626        0.662417 
        6.33033         6.99943        0.658199 
        6.34604         6.95725        0.654014 
        6.36177         6.91415        0.649862 
        6.37747         6.85854        0.645754 
