# k  (h/Mpc)    Pcb(k)  (Mpc/h)^3    Pcb_linear(k) (Mpc/h)^3   ShotnoiseSubtracted = true
      0.0200456         23850.3         24216.1 
      0.0350414         16244.6         15590.3 
      0.0492313         10604.8           10754 
      0.0637834         8390.94          8764.5 
      0.0800726         6281.52         6582.49 
       0.096163         4877.52         4544.88 
       0.111083         3956.18         3646.04 
       0.126058         3263.76         3229.35 
       0.142273          2770.9         2603.23 
       0.158546         2227.61         1997.67 
        0.17375         1989.01         1716.45 
       0.188953         1878.28         1552.29 
       0.204907         1584.32         1321.13 
       0.220756         1421.72         1095.66 
        0.23588         1265.99          967.67 
         0.2514         1135.65         880.164 
       0.267535         1090.48         775.421 
       0.283568         961.956         673.326 
       0.299022         911.083         604.318 
       0.314451         947.224         553.153 
       0.330372          821.82         499.305 
       0.346141         752.337         447.705 
       0.361624         719.056         407.529 
       0.377134         686.963          375.19 
       0.392932         649.667         344.044 
       0.408854         623.241         314.237 
       0.424564         606.178         289.121 
       0.440253         556.253         267.829 
       0.455999         529.553         248.191 
       0.471626         538.978         230.013 
        0.48727          504.53         213.751 
       0.502856          482.01         199.473 
       0.518488          466.49          186.41 
       0.534347         446.785         174.126 
       0.550082         424.338         163.028 
       0.565732         417.777         153.049 
       0.581496         406.133         143.849 
       0.597222         395.803         135.357 
       0.612804         384.511         127.597 
       0.628434         368.696         120.455 
       0.644267         356.111         113.782 
       0.660051         352.145         107.625 
       0.675724         342.054         101.956 
       0.691403         334.273          96.687 
       0.707174         322.003         91.7587 
       0.722871         318.327         87.1911 
        0.73838         310.208          82.981 
       0.754018         300.398         79.0152 
       0.769845         298.598         75.2639 
        0.78569         289.899         71.7513 
       0.801365         279.817         68.4959 
       0.817031         278.395         65.4437 
       0.832809         272.243         62.5571 
       0.848511         267.592         59.8566 
       0.864097         258.371         57.3331 
       0.879701         258.132         54.9518 
       0.895507         249.065          52.677 
       0.911279         243.992          50.535 
        0.92691         241.434         48.5291 
       0.942635         237.636         46.6205 
       0.958396         230.677         44.8098 
       0.974128         227.882         43.0981 
       0.989692         220.176         41.4921 
        1.00528         218.411         39.9652 
        1.02113         216.166         38.4908 
        1.03692         211.638         37.0959 
        1.05264         207.404         35.7761 
        1.06832         204.039         34.5223 
        1.08405         201.088         33.3249 
        1.09979         197.154         32.1833 
        1.11537         194.092         31.1062 
        1.13105         190.234         30.0717 
        1.14679         188.272           29.08 
        1.16256         185.553         28.1309 
        1.17828         182.707         27.2271 
        1.19395         177.904         26.3657 
         1.2097         177.312         25.5371 
        1.22537          174.98         24.7479 
          1.241         169.021         23.9942 
        1.25666         168.681         23.2699 
        1.27241         165.732         22.5719 
        1.28819          163.15         21.9011 
        1.30392         161.713         21.2595 
        1.31957          157.49         20.6462 
        1.33529         154.382         20.0547 
        1.35108         154.043          19.484 
        1.36674         149.357         18.9393 
         1.3824         148.279         18.4159 
        1.39811         147.153         17.9104 
        1.41389         143.616         17.4218 
        1.42964         140.898         16.9522 
        1.44531         140.288          16.502 
        1.46101         137.602         16.0672 
        1.47667         136.172         15.6492 
        1.49229         134.578          15.247 
        1.50793         131.907         14.8585 
        1.52367         129.647         14.4809 
        1.53953         127.701         14.1139 
        1.55526         126.235         13.7624 
        1.57092         125.255         13.4242 
        1.58662         122.748         13.0965 
        1.60235         121.368         12.7791 
        1.61809         119.123         12.4719 
        1.63369         117.069         12.1775 
        1.64941         116.295         11.8905 
        1.66519         113.944         11.6116 
        1.68085         112.325         11.3435 
        1.69652         111.346         11.0838 
        1.71228         109.166         10.8307 
        1.72806         108.304         10.5853 
        1.74368         107.036         10.3498 
        1.75933         105.709          10.121 
        1.77505         104.186         9.89799 
        1.79081         102.564         9.68127 
         1.8065         100.742         9.47191 
        1.82218         99.2393         9.26888 
        1.83797         98.3836         9.07038 
        1.85367         97.3036         8.87874 
        1.86928         96.2043         8.69375 
        1.88497         94.8948         8.51298 
        1.90073         93.9168         8.33665 
        1.91647         92.1753         8.16544 
        1.93218         91.0677         7.99936 
        1.94787         89.4809         7.83811 
        1.96363         88.9264         7.68064 
        1.97935         87.7312         7.52778 
        1.99499         86.7128         7.37992 
        2.01064         85.3308         7.23579 
         2.0264         84.1002         7.09457 
        2.04216         83.0263         6.95716 
        2.05781         81.8665         6.82423 
        2.07353         81.2737         6.69427 
        2.08928         79.9873         6.56739 
        2.10499         79.5023         6.44412 
        2.12065         77.9487         6.32435 
        2.13633         77.2736          6.2075 
        2.15211         75.9051         6.09283 
        2.16785         75.0974         5.98135 
        2.18349         73.8007         5.87334 
        2.19916         73.6503         5.76775 
        2.21489         72.4482         5.66438 
        2.23063         71.0576         5.56346 
         2.2463         70.4344         5.46543 
        2.26194         69.7938         5.36999 
        2.27765         68.6552         5.27633 
        2.29341         67.8039         5.18463 
        2.30914         66.7704         5.09529 
        2.32486         66.0074         5.00809 
        2.34061         65.0079         4.92276 
        2.35635         64.6614         4.83949 
        2.37203         63.5363         4.75841 
        2.38768         62.8968         4.67934 
        2.40339         61.9196         4.60177 
        2.41914         61.3278         4.52577 
        2.43483         60.6627         4.45174 
         2.4505         59.7103         4.37947 
        2.46622         59.0277         4.30854 
        2.48195         58.7843         4.23917 
        2.49759         57.5976         4.17169 
        2.51328         56.9102         4.10549 
        2.52906         56.2255         4.04029 
        2.54479         55.6067         3.97674 
        2.56049         54.8304         3.91467 
        2.57618         54.1853         3.85397 
        2.59189         53.4903         3.79445 
        2.60758         52.7961         3.73627 
        2.62325         52.2592         3.67938 
        2.63898         51.9828         3.62346 
        2.65468         51.1944         3.56881 
        2.67044         50.6174         3.51504 
        2.68618         50.2219          3.4625 
        2.70184         49.4904         3.41123 
        2.71755         48.8979         3.36087 
        2.73329         48.2474         3.31143 
        2.74897         47.8648         3.26315 
        2.76462         47.1765         3.21592 
        2.78034         46.5391         3.16943 
        2.79607         46.2818          3.1238 
        2.81179         45.7099         3.07911 
        2.82749         45.3849         3.03534 
        2.84321         44.6886         2.99237 
        2.85893         44.1326         2.95023 
        2.87462         43.8741         2.90897 
        2.89033          43.128         2.86845 
        2.90605         42.7008         2.82867 
        2.92176         42.1828         2.78965 
        2.93747         41.8928         2.75138 
        2.95318          41.393         2.71382 
        2.96891         40.8066         2.67693 
        2.98456         40.3055         2.64089 
        3.00023         40.0882         2.60545 
        3.01596         39.4445         2.57055 
        3.03164         38.9528         2.53638 
        3.04738         38.6555         2.50273 
         3.0631         38.1681         2.46969 
        3.07883         37.6527         2.43725 
        3.09456         37.2505         2.40539 
        3.11026         37.0044         2.37414 
        3.12596         36.5122         2.34344 
        3.14163         36.1434         2.31336 
        3.15734         35.6597         2.28372 
        3.17308         35.4062         2.25453 
        3.18879         35.0785         2.22593 
        3.20447         34.7266         2.19786 
         3.2202         34.2602         2.17018 
         3.2359         33.9506         2.14303 
        3.25157         33.6761          2.1164 
        3.26729          33.178         2.09014 
        3.28304          32.865         2.06426 
        3.29877         32.4978         2.03886 
        3.31446         32.1458         2.01394 
        3.33014          31.903         1.98945 
        3.34585         31.4558         1.96532 
        3.36158         31.2036         1.94156 
        3.37727         30.7381         1.91826 
        3.39294         30.5898         1.89536 
        3.40867         30.2869         1.87275 
        3.42439         29.9755         1.85052 
        3.44008         29.6427         1.82869 
        3.45578         29.3072         1.80719 
        3.47153         29.0133         1.78599 
        3.48724         28.7122         1.76516 
        3.50292         28.4168         1.74471 
        3.51859          28.128         1.72459 
        3.53431          27.862         1.70472 
        3.55007         27.6383         1.68512 
        3.56577         27.3599          1.6659 
        3.58146         27.0534         1.64698 
        3.59719          26.835         1.62831 
        3.61292         26.5334         1.60993 
        3.62859         26.2549         1.59191 
        3.64429         25.9963         1.57412 
        3.66003         25.8179         1.55655 
        3.67578         25.5619         1.53925 
        3.69146         25.2418         1.52227 
        3.70712         24.9857         1.50559 
        3.72284          24.757         1.48908 
        3.73853         24.5534         1.47285 
        3.75422         24.1853         1.45686 
        3.76993         24.1108         1.44108 
        3.78564         23.8378         1.42555 
        3.80137         23.6768         1.41021 
        3.81707         23.3564         1.39514 
        3.83279         23.2433         1.38026 
        3.84853         22.9269         1.36558 
        3.86424         22.7272         1.35114 
        3.87992         22.5063         1.33693 
        3.89561          22.261         1.32292 
        3.91134         22.0621         1.30908 
        3.92704         21.8566         1.29545 
        3.94273          21.643         1.28203 
        3.95845         21.4448         1.26877 
        3.97418         21.2622          1.2557 
        3.98988         20.9953         1.24282 
        4.00554         20.8514         1.23016 
        4.02125          20.646         1.21764 
        4.03698         20.4359         1.20527 
        4.05268         20.3186          1.1931 
        4.06839         20.0584         1.18109 
         4.0841         19.9278         1.16924 
        4.09983         19.6645         1.15754 
        4.11555         19.5225         1.14601 
        4.13124          19.332         1.13466 
        4.14693         19.1155         1.12345 
        4.16266         18.9754         1.11237 
        4.17839         18.8261         1.10144 
        4.19408         18.6895         1.09068 
        4.20977         18.4669         1.08006 
        4.22551          18.338         1.06955 
        4.24123         18.1386          1.0592 
        4.25691         17.9711         1.04901 
        4.27259         17.8694         1.03894 
        4.28831         17.6462         1.02899 
        4.30404         17.4971         1.01916 
        4.31974         17.3433         1.00948 
        4.33543            17.2        0.999926 
        4.35116         17.0538        0.990472 
        4.36688         16.9388        0.981144 
        4.38255         16.7541        0.971969 
        4.39825          16.601        0.962891 
        4.41398         16.4457        0.953909 
         4.4297         16.3397        0.945051 
        4.44541          16.173        0.936306 
        4.46111         16.0502        0.927677 
        4.47683         15.9367         0.91915 
        4.49251         15.7527        0.910746 
        4.50819         15.6451        0.902448 
         4.5239            15.5        0.894242 
        4.53962         15.3634        0.886126 
        4.55535         15.2283        0.878106 
        4.57106         15.1113        0.870196 
        4.58678         14.9389         0.86238 
         4.6025           14.88        0.854658 
        4.61821         14.7064        0.847031 
        4.63391         14.6034        0.839507 
         4.6496         14.4848        0.832075 
        4.66532         14.3711        0.824722 
        4.68103         14.2642         0.81746 
        4.69673         14.0834        0.810291 
        4.71241         14.0364        0.803215 
        4.72811         13.8397        0.796211 
        4.74384         13.7508         0.78928 
        4.75955         13.6636        0.782442 
        4.77525         13.5463        0.775688 
        4.79096         13.4396        0.769005 
        4.80669         13.3187        0.762397 
         4.8224         13.2265        0.755873 
        4.83809         13.0943        0.749432 
        4.85379         12.9968        0.743061 
         4.8695          12.926        0.736758 
        4.88521         12.7696        0.730531 
        4.90093         12.6938        0.724374 
        4.91663         12.5872        0.718292 
        4.93234         12.4685        0.712274 
        4.94807         12.3785         0.70632 
        4.96377         12.2728        0.700444 
        4.97943         12.2098        0.694647 
        4.99514         12.1076          0.6889 
        5.01086         11.9803        0.683214 
        5.02654          11.899        0.677605 
        5.04227         11.7912        0.672042 
          5.058         11.6917        0.666539 
        5.07371         11.6045        0.661107 
        5.08942         11.5529        0.655735 
        5.10513         11.4649        0.650421 
        5.12084         11.3476        0.645163 
        5.13656         11.2569        0.639964 
        5.15225         11.1885         0.63483 
        5.16796          11.077        0.629743 
        5.18369         11.0204        0.624708 
         5.1994          10.888        0.619736 
        5.21509         10.8424        0.614822 
        5.23079          10.745        0.609955 
        5.24649          10.662        0.605145 
        5.26217         10.5853        0.600388 
        5.27788         10.5051        0.595676 
        5.29359         10.4002        0.591014 
        5.30933         10.3538        0.586394 
        5.32504         10.2556         0.58183 
        5.34073         10.1892         0.57732 
        5.35646         10.1227        0.572848 
        5.37218         10.0283        0.568422 
        5.38789         9.96581         0.56405 
        5.40357         9.90545        0.559728 
        5.41929         9.80926        0.555442 
        5.43502         9.71589        0.551199 
         5.4507         9.65549        0.547011 
        5.46639         9.60781        0.542865 
        5.48212         9.51488        0.538752 
        5.49786         9.42026        0.534676 
        5.51353         9.39202        0.530663 
        5.52921         9.30451        0.526686 
        5.54495         9.22324        0.522738 
        5.56066         9.17215        0.518834 
        5.57637         9.08778         0.51497 
        5.59207         9.01685        0.511149 
        5.60778         8.95124        0.507365 
        5.62346         8.89756        0.503624 
        5.63916         8.84247        0.499916 
        5.65487           8.758        0.496244 
         5.6706         8.70903        0.492604 
        5.68633         8.66612        0.488999 
        5.70203         8.59939        0.485437 
        5.71773         8.51671        0.481911 
        5.73344         8.47163        0.478418 
        5.74916         8.38962        0.474956 
        5.76486         8.35134        0.471532 
        5.78054         8.27989        0.468148 
        5.79626         8.21189        0.464786 
          5.812         8.16826        0.461454 
         5.8277         8.11908        0.458164 
        5.84339         8.04273        0.454906 
        5.85911         7.98211        0.451673 
        5.87484         7.91773        0.448472 
        5.89053         7.86901        0.445308 
        5.90623         7.82799        0.442173 
        5.92195         7.77124        0.439062 
        5.93767         7.69223        0.435982 
        5.95336         7.65114        0.432937 
        5.96905         7.59398        0.429922 
        5.98476         7.54755        0.426931 
        6.00048         7.49972        0.423968 
        6.01617         7.44658        0.421036 
        6.03185         7.39255        0.418135 
        6.04756         7.35691        0.415254 
        6.06331          7.3013        0.412394 
        6.07903         7.25379        0.409567 
        6.09473          7.2069        0.406769 
        6.11044          7.1444        0.403994 
        6.12616         7.10027        0.401245 
        6.14186         7.03488        0.398524 
        6.15755         7.00763        0.395828 
        6.17326         6.96072        0.393155 
        6.18898         6.91693        0.390506 
        6.20467         6.85236        0.387885 
        6.22036         6.81108        0.385288 
         6.2361         6.77611        0.382708 
         6.2518         6.73342        0.380155 
        6.26748         6.67334        0.377631 
        6.28319         6.63878        0.375123 
        6.29893         6.59116        0.372635 
        6.31463         6.54001        0.370174 
        6.33033          6.5052        0.367736 
        6.34604         6.46025        0.365317 
        6.36177         6.42243        0.362918 
        6.37747         6.38837        0.360545 
