# k  (h/Mpc)    Pcb(k)  (Mpc/h)^3    Pcb_linear(k) (Mpc/h)^3   ShotnoiseSubtracted = true
      0.0200456         36095.7         36749.2 
      0.0350414         24773.1         23659.1 
      0.0492313         15936.3         16319.7 
      0.0637834         12612.1         13300.6 
      0.0800726          9431.9         9989.29 
       0.096163         7501.28          6897.1 
       0.111083         6069.78         5533.07 
       0.126058         5003.52         4900.71 
       0.142273         4318.28         3950.54 
       0.158546         3464.36         3031.58 
        0.17375         3157.52          2604.8 
       0.188953         3040.27         2355.68 
       0.204907         2578.63         2004.89 
       0.220756         2348.81         1662.73 
        0.23588         2090.27         1468.49 
         0.2514          1904.4          1335.7 
       0.267535         1814.33         1176.74 
       0.283568          1636.9         1021.81 
       0.299022          1536.8         917.085 
       0.314451         1609.21          839.44 
       0.330372         1453.98         757.723 
       0.346141         1339.81         679.417 
       0.361624         1276.81         618.447 
       0.377134         1240.98         569.371 
       0.392932         1150.36         522.106 
       0.408854         1122.53         476.872 
       0.424564         1093.55         438.758 
       0.440253         1032.51         406.445 
       0.455999         979.323         376.643 
       0.471626          985.82         349.057 
        0.48727         928.987         324.378 
       0.502856         919.329         302.712 
       0.518488         873.469         282.887 
       0.534347         853.807         264.245 
       0.550082         821.783         247.404 
       0.565732         795.331          232.26 
       0.581496         780.065         218.299 
       0.597222         767.329         205.412 
       0.612804         742.252         193.636 
       0.628434         717.662         182.797 
       0.644267         698.461         172.671 
       0.660051         687.206         163.327 
       0.675724         673.693         154.723 
       0.691403         645.811         146.728 
       0.707174         633.289         139.249 
       0.722871         636.008         132.317 
        0.73838         604.973         125.928 
       0.754018         601.292          119.91 
       0.769845         585.083         114.217 
        0.78569         574.539         108.886 
       0.801365         560.047         103.946 
       0.817031         547.263         99.3144 
       0.832809         541.347         94.9339 
       0.848511         522.646         90.8356 
       0.864097         517.234          87.006 
       0.879701         516.019         83.3924 
       0.895507         501.535         79.9403 
       0.911279         498.191         76.6897 
        0.92691         485.667         73.6456 
       0.942635         476.474         70.7491 
       0.958396         467.523         68.0014 
       0.974128         455.548         65.4037 
       0.989692          451.69         62.9666 
        1.00528         439.074         60.6494 
        1.02113         431.089         58.4119 
        1.03692         425.948          56.295 
        1.05264         418.417         54.2922 
        1.06832         411.411         52.3894 
        1.08405         408.549         50.5723 
        1.09979         397.285         48.8399 
        1.11537         387.185         47.2053 
        1.13105         381.949         45.6354 
        1.14679         378.605         44.1305 
        1.16256          371.46         42.6902 
        1.17828         366.174         41.3185 
        1.19395         360.731         40.0114 
         1.2097          352.84         38.7539 
        1.22537         346.218         37.5563 
          1.241         341.558         36.4125 
        1.25666         333.423         35.3133 
        1.27241         332.152          34.254 
        1.28819         325.281         33.2362 
        1.30392         322.061         32.2624 
        1.31957         313.514         31.3317 
        1.33529         311.186         30.4342 
        1.35108          308.48          29.568 
        1.36674         302.225         28.7415 
         1.3824         296.893         27.9472 
        1.39811         292.332           27.18 
        1.41389         288.728         26.4386 
        1.42964         281.931         25.7259 
        1.44531         279.862         25.0427 
        1.46101          272.61         24.3828 
        1.47667         268.722         23.7484 
        1.49229         267.202         23.1382 
        1.50793         259.806         22.5486 
        1.52367         259.441         21.9756 
        1.53953         253.438         21.4186 
        1.55526          248.97         20.8852 
        1.57092         246.349          20.372 
        1.58662         242.526         19.8747 
        1.60235           239.5          19.393 
        1.61809         234.678         18.9269 
        1.63369         230.074         18.4801 
        1.64941         229.071         18.0445 
        1.66519           224.6         17.6212 
        1.68085         219.728         17.2144 
        1.69652         218.624         16.8203 
        1.71228         215.185         16.4362 
        1.72806         211.669         16.0637 
        1.74368          207.88         15.7064 
        1.75933         206.703         15.3592 
        1.77505         203.485         15.0207 
        1.79081         199.791         14.6918 
         1.8065         198.416         14.3741 
        1.82218         193.785          14.066 
        1.83797         191.896         13.7648 
        1.85367         189.286          13.474 
        1.86928          186.01         13.1932 
        1.88497         184.497         12.9189 
        1.90073         181.259         12.6513 
        1.91647         179.771         12.3915 
        1.93218         176.193         12.1395 
        1.94787         173.592         11.8948 
        1.96363         172.077         11.6558 
        1.97935         167.344         11.4238 
        1.99499         166.501         11.1994 
        2.01064         163.987         10.9807 
         2.0264         162.088         10.7664 
        2.04216          160.35         10.5579 
        2.05781         157.349         10.3561 
        2.07353         155.514         10.1589 
        2.08928         153.468         9.96638 
        2.10499         151.627          9.7793 
        2.12065         148.701         9.59755 
        2.13633         147.262         9.42022 
        2.15211         145.086          9.2462 
        2.16785         143.403         9.07703 
        2.18349         141.715         8.91311 
        2.19916         140.467         8.75287 
        2.21489         138.158         8.59601 
        2.23063         136.005         8.44286 
         2.2463         134.612         8.29409 
        2.26194         132.257         8.14926 
        2.27765         130.755         8.00711 
        2.29341         129.432         7.86796 
        2.30914         128.251         7.73238 
        2.32486         126.837         7.60004 
        2.34061         124.387         7.47056 
        2.35635         122.056         7.34419 
        2.37203          121.87         7.22115 
        2.38768         119.811         7.10116 
        2.40339           118.4         6.98345 
        2.41914         117.064          6.8681 
        2.43483         114.783         6.75575 
         2.4505         114.145         6.64608 
        2.46622         112.455         6.53845 
        2.48195         110.853         6.43318 
        2.49759         109.344         6.33077 
        2.51328         107.744          6.2303 
        2.52906         106.732         6.13136 
        2.54479         105.853         6.03492 
        2.56049         104.009         5.94073 
        2.57618         103.081         5.84861 
        2.59189         101.789         5.75829 
        2.60758         100.311            5.67 
        2.62325          99.261         5.58366 
        2.63898         98.1158          5.4988 
        2.65468         96.3797         5.41586 
        2.67044         95.4831         5.33427 
        2.68618         94.5524         5.25454 
        2.70184         93.5027         5.17673 
        2.71755          92.171          5.1003 
        2.73329         91.2547         5.02528 
        2.74897         89.9189           4.952 
        2.76462         89.0872         4.88034 
        2.78034         87.9599         4.80978 
        2.79607         86.8031         4.74054 
        2.81179         85.9357         4.67272 
        2.82749         84.8968          4.6063 
        2.84321          84.015         4.54108 
        2.85893         82.8222         4.47713 
        2.87462         81.8316         4.41452 
        2.89033          80.723         4.35303 
        2.90605         80.0668         4.29266 
        2.92176         78.9907         4.23344 
        2.93747         78.1957         4.17537 
        2.95318         77.2263         4.11837 
        2.96891         76.2356         4.06239 
        2.98456          75.844          4.0077 
        3.00023         74.7113         3.95392 
        3.01596         73.8823         3.90095 
        3.03164         73.0563          3.8491 
        3.04738         72.5693         3.79803 
         3.0631         71.6034          3.7479 
        3.07883         70.9842         3.69866 
        3.09456         69.9018         3.65031 
        3.11026         69.0603         3.60288 
        3.12596         68.4767          3.5563 
        3.14163         67.7342         3.51064 
        3.15734         66.9401         3.46567 
        3.17308         66.0589         3.42138 
        3.18879         65.4431         3.37797 
        3.20447         64.7575         3.33537 
         3.2202         64.0511         3.29337 
         3.2359          63.552         3.25216 
        3.25157         62.7328         3.21175 
        3.26729         62.1567         3.17189 
        3.28304         61.6593         3.13263 
        3.29877         60.5281         3.09408 
        3.31446         60.0994         3.05626 
        3.33014         59.5294         3.01909 
        3.34585         58.9289         2.98249 
        3.36158         58.3622         2.94642 
        3.37727         57.6651         2.91107 
        3.39294         56.8108         2.87632 
        3.40867         56.4677         2.84201 
        3.42439         55.8799         2.80827 
        3.44008          55.401         2.77514 
        3.45578         54.7264         2.74251 
        3.47153         54.3546         2.71034 
        3.48724         53.7439         2.67873 
        3.50292         53.0752          2.6477 
        3.51859         52.5806         2.61716 
        3.53431         51.9884         2.58701 
        3.55007         51.4631         2.55726 
        3.56577          51.016         2.52809 
        3.58146         50.2968         2.49938 
        3.59719         50.0905         2.47105 
        3.61292         49.4249         2.44316 
        3.62859         48.9626         2.41581 
        3.64429         48.6022         2.38881 
        3.66003          47.959         2.36215 
        3.67578         47.6133         2.33589 
        3.69146         47.0766         2.31013 
        3.70712          46.597         2.28481 
        3.72284         46.2001         2.25976 
        3.73853         45.6158         2.23514 
        3.75422         45.3212         2.21086 
        3.76993         44.7919         2.18692 
        3.78564         44.4273         2.16335 
        3.80137         43.9851         2.14008 
        3.81707         43.4561          2.1172 
        3.83279         43.1254         2.09463 
        3.84853         42.6443         2.07235 
        3.86424         42.3967         2.05043 
        3.87992         41.8642         2.02886 
        3.89561         41.6013          2.0076 
        3.91134         41.1954          1.9866 
        3.92704         40.8109         1.96592 
        3.94273         40.2293         1.94555 
        3.95845         40.0229         1.92543 
        3.97418         39.5743         1.90559 
        3.98988         39.2747         1.88605 
        4.00554         38.8322         1.86684 
        4.02125         38.4528         1.84783 
        4.03698         38.1241         1.82906 
        4.05268          37.787          1.8106 
        4.06839         37.4907         1.79237 
         4.0841         37.2336         1.77439 
        4.09983         36.8559         1.75663 
        4.11555         36.4924         1.73913 
        4.13124         36.1049          1.7219 
        4.14693         35.7457         1.70489 
        4.16266         35.4714         1.68808 
        4.17839          35.166         1.67149 
        4.19408         34.8093         1.65517 
        4.20977          34.538         1.63905 
        4.22551         34.1841         1.62311 
        4.24123         33.9082         1.60739 
        4.25691         33.6431         1.59193 
        4.27259         33.3365         1.57666 
        4.28831         32.8977         1.56155 
        4.30404         32.6922         1.54663 
        4.31974         32.4045         1.53194 
        4.33543         32.1728         1.51744 
        4.35116         31.7547          1.5031 
        4.36688         31.6292         1.48894 
        4.38255         31.2348         1.47502 
        4.39825         31.0322         1.46124 
        4.41398         30.6756         1.44761 
         4.4297         30.5194         1.43417 
        4.44541         30.2671          1.4209 
        4.46111         29.8993          1.4078 
        4.47683         29.6336         1.39486 
        4.49251          29.408         1.38211 
        4.50819         29.1049         1.36951 
         4.5239         28.8418         1.35706 
        4.53962         28.6667         1.34474 
        4.55535         28.4314         1.33257 
        4.57106         28.0846         1.32057 
        4.58678         27.8664         1.30871 
         4.6025         27.7205         1.29699 
        4.61821         27.4126         1.28542 
        4.63391         27.1761           1.274 
         4.6496         26.9674         1.26272 
        4.66532         26.6834         1.25156 
        4.68103         26.5389         1.24054 
        4.69673         26.2449         1.22966 
        4.71241         26.0505         1.21892 
        4.72811         25.9236         1.20829 
        4.74384         25.6234         1.19778 
        4.75955         25.4977          1.1874 
        4.77525         25.2066         1.17715 
        4.79096         25.0504         1.16701 
        4.80669         24.8359         1.15698 
         4.8224         24.6741         1.14708 
        4.83809         24.4485          1.1373 
        4.85379         24.2329         1.12764 
         4.8695         24.0524         1.11807 
        4.88521         23.7542         1.10862 
        4.90093         23.6376         1.09928 
        4.91663         23.4373         1.09005 
        4.93234         23.2679         1.08091 
        4.94807         23.0654         1.07188 
        4.96377          22.872         1.06296 
        4.97943         22.7153         1.05417 
        4.99514         22.5215         1.04544 
        5.01086         22.3268         1.03681 
        5.02654         22.1257          1.0283 
        5.04227         21.9774         1.01986 
          5.058         21.8393         1.01151 
        5.07371         21.6287         1.00327 
        5.08942         21.4441        0.995113 
        5.10513         21.3066        0.987049 
        5.12084         21.1259         0.97907 
        5.13656         20.9507         0.97118 
        5.15225         20.8125        0.963389 
        5.16796         20.6228         0.95567 
        5.18369         20.4862        0.948028 
         5.1994         20.3003        0.940483 
        5.21509         20.1486        0.933026 
        5.23079         19.9999        0.925641 
        5.24649         19.8471         0.91834 
        5.26217         19.6773        0.911122 
        5.27788         19.5171        0.903971 
        5.29359         19.3418        0.896895 
        5.30933         19.2421        0.889884 
        5.32504         19.1258        0.882959 
        5.34073         18.9073        0.876114 
        5.35646         18.7282        0.869328 
        5.37218         18.6551        0.862612 
        5.38789         18.5059        0.855976 
        5.40357         18.3992        0.849418 
        5.41929         18.2366        0.842913 
        5.43502         18.1124        0.836475 
         5.4507          17.981        0.830119 
        5.46639         17.7969        0.823827 
        5.48212         17.6825        0.817586 
        5.49786         17.5598          0.8114 
        5.51353         17.4455         0.80531 
        5.52921         17.2907        0.799274 
        5.54495          17.177        0.793283 
        5.56066          17.004        0.787359 
        5.57637         16.8838        0.781496 
        5.59207         16.7926        0.775696 
        5.60778         16.6221        0.769954 
        5.62346            16.5        0.764276 
        5.63916         16.4343         0.75865 
        5.65487         16.2984        0.753078 
         5.6706         16.1944        0.747554 
        5.68633         16.0661        0.742083 
        5.70203          15.935        0.736678 
        5.71773         15.8337        0.731327 
        5.73344          15.676        0.726026 
        5.74916         15.5908        0.720772 
        5.76486         15.4863        0.715576 
        5.78054         15.3548         0.71044 
        5.79626         15.2441        0.705339 
          5.812         15.1435        0.700282 
         5.8277         15.0333         0.69529 
        5.84339         14.8955        0.690345 
        5.85911          14.809        0.685439 
        5.87484         14.7143        0.680581 
        5.89053         14.6077        0.675779 
        5.90623         14.4872        0.671021 
        5.92195         14.3782          0.6663 
        5.93767         14.2712        0.661627 
        5.95336         14.2299        0.657006 
        5.96905         14.1013         0.65243 
        5.98476         14.0013        0.647892 
        6.00048         13.9051        0.643394 
        6.01617         13.7882        0.638945 
        6.03185         13.7079        0.634542 
        6.04756          13.598        0.630171 
        6.06331         13.5223        0.625831 
        6.07903         13.3928         0.62154 
        6.09473         13.3474        0.617294 
        6.11044         13.2231        0.613082 
        6.12616         13.1355        0.608911 
        6.14186         13.0288        0.604782 
        6.15755         12.9423        0.600691 
        6.17326          12.846        0.596635 
        6.18898         12.7661        0.592614 
        6.20467         12.6701        0.588636 
        6.22036         12.6061        0.584696 
         6.2361          12.488         0.58078 
         6.2518         12.4193        0.576906 
        6.26748         12.3277        0.573076 
        6.28319         12.2417         0.56927 
        6.29893         12.1776        0.565494 
        6.31463         12.0855        0.561759 
        6.33033         11.9786        0.558059 
        6.34604         11.9142        0.554389 
        6.36177         11.8128        0.550748 
        6.37747         11.7536        0.547147 
