# k  (h/Mpc)    Pcb(k)  (Mpc/h)^3    Pcb_linear(k) (Mpc/h)^3   ShotnoiseSubtracted = true
      0.0200456         20563.8         20863.9 
      0.0350414         13972.4         13432.1 
      0.0492313         9161.74          9265.3 
      0.0637834         7251.85         7551.24 
      0.0800726         5430.72         5671.28 
       0.096163         4184.92         3915.74 
       0.111083         3395.03         3141.32 
       0.126058         2805.51         2782.31 
       0.142273         2368.13         2242.87 
       0.158546         1904.19         1721.14 
        0.17375         1691.22         1478.84 
       0.188953         1587.96         1337.41 
       0.204907         1335.53         1138.25 
       0.220756         1193.86         943.991 
        0.23588         1063.21         833.716 
         0.2514         949.885         758.324 
       0.267535         913.682         668.081 
       0.283568         800.737         580.118 
       0.299022         760.159         520.663 
       0.314451         784.396         476.581 
       0.330372         674.181         430.187 
       0.346141         618.487          385.73 
       0.361624         590.295         351.115 
       0.377134         560.694         323.253 
       0.392932         533.166         296.419 
       0.408854         509.759         270.738 
       0.424564         494.464         249.099 
       0.440253         450.727         230.753 
       0.455999         429.488         213.834 
       0.471626         435.871         198.172 
        0.48727         408.459         184.161 
       0.502856         384.706          171.86 
       0.518488         376.944         160.605 
       0.534347         357.045         150.022 
       0.550082         339.899          140.46 
       0.565732          336.33         131.863 
       0.581496         324.966         123.936 
       0.597222         315.586          116.62 
       0.612804         306.132         109.934 
       0.628434         294.448         103.781 
       0.644267         282.812         98.0315 
       0.660051         279.452         92.7269 
       0.675724         271.887          87.842 
       0.691403         266.363         83.3027 
       0.707174         255.638         79.0566 
       0.722871         251.494         75.1213 
        0.73838         246.823          71.494 
       0.754018         237.835         68.0772 
       0.769845         237.023         64.8452 
        0.78569         229.347         61.8188 
       0.801365         221.977         59.0141 
       0.817031         220.661         56.3844 
       0.832809         215.113         53.8974 
       0.848511         210.242         51.5707 
       0.864097         203.504         49.3965 
       0.879701         203.115         47.3449 
       0.895507         197.328          45.385 
       0.911279         192.667         43.5395 
        0.92691         189.576         41.8113 
       0.942635         187.501         40.1668 
       0.958396         182.397         38.6069 
       0.974128         180.167         37.1321 
       0.989692         173.275         35.7484 
        1.00528         172.969         34.4329 
        1.02113         170.452         33.1626 
        1.03692         166.275         31.9607 
        1.05264         162.686         30.8237 
        1.06832         161.784         29.7434 
        1.08405         157.651         28.7118 
        1.09979         155.622         27.7282 
        1.11537          153.64         26.8002 
        1.13105         150.178         25.9089 
        1.14679         148.863         25.0545 
        1.16256         145.591         24.2368 
        1.17828          143.98          23.458 
        1.19395         140.318         22.7159 
         1.2097         139.603          22.002 
        1.22537         138.175         21.3221 
          1.241         133.651         20.6727 
        1.25666         133.217         20.0486 
        1.27241          130.32         19.4473 
        1.28819         128.802         18.8694 
        1.30392         127.146         18.3165 
        1.31957         124.082         17.7882 
        1.33529         121.807         17.2786 
        1.35108         121.063         16.7868 
        1.36674         118.167         16.3176 
         1.3824         117.253         15.8666 
        1.39811         115.792         15.4311 
        1.41389         113.031         15.0101 
        1.42964         111.291         14.6055 
        1.44531         110.584         14.2177 
        1.46101         108.231          13.843 
        1.47667         107.631         13.4829 
        1.49229         106.172         13.1364 
        1.50793         103.874         12.8017 
        1.52367         102.348         12.4764 
        1.53953         100.559         12.1601 
        1.55526         99.8395         11.8573 
        1.57092         98.7655         11.5659 
        1.58662         96.9015         11.2836 
        1.60235         95.6619         11.0101 
        1.61809          94.364         10.7455 
        1.63369          92.647         10.4918 
        1.64941         92.3144         10.2445 
        1.66519         90.5697         10.0042 
        1.68085         88.9538         9.77327 
        1.69652         88.1799          9.5495 
        1.71228         86.5746         9.33143 
        1.72806         86.3433         9.11995 
        1.74368         84.9863         8.91709 
        1.75933         83.8091         8.71996 
        1.77505         82.7439         8.52782 
        1.79081         81.4124          8.3411 
         1.8065         79.7815         8.16072 
        1.82218         79.0787          7.9858 
        1.83797         78.6064         7.81478 
        1.85367         77.3167         7.64967 
        1.86928         76.8054         7.49028 
        1.88497         75.1496         7.33454 
        1.90073         74.5687         7.18262 
        1.91647          73.216         7.03511 
        1.93218         72.5968         6.89202 
        1.94787         71.1236         6.75309 
        1.96363         70.6511         6.61742 
        1.97935         69.9534         6.48572 
        1.99499         69.2609         6.35833 
        2.01064         67.8502         6.23414 
         2.0264          67.056         6.11247 
        2.04216         66.1087         5.99409 
        2.05781         65.2525         5.87956 
        2.07353          64.627         5.76759 
        2.08928         63.8122         5.65828 
        2.10499         62.9345         5.55206 
        2.12065         62.3142         5.44888 
        2.13633           61.39          5.3482 
        2.15211         60.5101          5.2494 
        2.16785         59.6308         5.15336 
        2.18349         58.9212          5.0603 
        2.19916         58.4318         4.96932 
        2.21489         57.6137         4.88027 
        2.23063          56.577         4.79332 
         2.2463         56.0413         4.70886 
        2.26194         55.7672         4.62663 
        2.27765         54.6449         4.54593 
        2.29341         54.1041         4.46693 
        2.30914         53.4709         4.38995 
        2.32486         53.0202         4.31482 
        2.34061         52.0539         4.24131 
        2.35635         51.5645         4.16956 
        2.37203          50.767         4.09971 
        2.38768         50.3735         4.03159 
        2.40339         49.7406         3.96476 
        2.41914         48.8643         3.89927 
        2.43483          48.678         3.83549 
         2.4505          47.975         3.77322 
        2.46622         47.5224         3.71212 
        2.48195         46.9124         3.65235 
        2.49759         46.4395         3.59421 
        2.51328         45.7327         3.53717 
        2.52906         45.3337           3.481 
        2.54479         44.8225         3.42624 
        2.56049         44.0489         3.37277 
        2.57618         43.6756         3.32047 
        2.59189         43.1213         3.26919 
        2.60758         42.5146         3.21907 
        2.62325         42.2327         3.17005 
        2.63898         41.8783         3.12187 
        2.65468         41.2769         3.07478 
        2.67044         40.8896         3.02846 
        2.68618         40.4895         2.98319 
        2.70184         39.9703         2.93902 
        2.71755         39.3388         2.89563 
        2.73329         38.9339         2.85304 
        2.74897         38.5483         2.81143 
        2.76462         38.0801         2.77075 
        2.78034         37.8381         2.73069 
        2.79607         37.3083         2.69137 
        2.81179         36.8395         2.65287 
        2.82749         36.4962         2.61516 
        2.84321         36.1352         2.57814 
        2.85893         35.6862         2.54183 
        2.87462         35.4171         2.50628 
        2.89033         34.7992         2.47137 
        2.90605         34.3483          2.4371 
        2.92176         34.2334         2.40348 
        2.93747         33.8222         2.37051 
        2.95318         33.4274         2.33815 
        2.96891         33.0071         2.30637 
        2.98456         32.7509         2.27531 
        3.00023         32.3304         2.24478 
        3.01596         31.7895         2.21471 
        3.03164         31.5584         2.18527 
        3.04738         31.2917         2.15628 
         3.0631         31.0743         2.12782 
        3.07883         30.7102         2.09986 
        3.09456         30.3113         2.07241 
        3.11026         30.0289         2.04549 
        3.12596         29.7298         2.01904 
        3.14163         29.3763         1.99312 
        3.15734         29.0715         1.96759 
        3.17308         28.7965         1.94244 
        3.18879         28.5337          1.9178 
        3.20447         28.1193         1.89361 
         3.2202         27.8501         1.86977 
         3.2359         27.6414         1.84637 
        3.25157         27.3131         1.82343 
        3.26729         27.0971          1.8008 
        3.28304         26.7695         1.77851 
        3.29877         26.4238         1.75662 
        3.31446         26.1373         1.73515 
        3.33014         25.8975         1.71405 
        3.34585         25.6117         1.69327 
        3.36158         25.4338         1.67279 
        3.37727         25.1436         1.65272 
        3.39294         24.9092         1.63299 
        3.40867         24.6317         1.61351 
        3.42439         24.4183         1.59436 
        3.44008           24.19         1.57555 
        3.45578         23.9314         1.55703 
        3.47153         23.6974         1.53876 
        3.48724         23.4057         1.52081 
        3.50292         23.2992         1.50319 
        3.51859         23.0016         1.48586 
        3.53431         22.7457         1.46874 
        3.55007         22.5105         1.45185 
        3.56577         22.3163         1.43529 
        3.58146         22.0909         1.41899 
        3.59719         21.8996          1.4029 
        3.61292         21.6875         1.38707 
        3.62859         21.4073         1.37154 
        3.64429         21.2552         1.35622 
        3.66003         21.0473         1.34108 
        3.67578         20.7893         1.32617 
        3.69146         20.6081         1.31155 
        3.70712         20.4528         1.29717 
        3.72284         20.2771         1.28295 
        3.73853          20.116         1.26897 
        3.75422         19.8425         1.25519 
        3.76993          19.686          1.2416 
        3.78564          19.513         1.22821 
        3.80137         19.2924           1.215 
        3.81707         19.1609         1.20201 
        3.83279         18.9426          1.1892 
        3.84853          18.738         1.17655 
        3.86424         18.5912         1.16411 
        3.87992         18.4291         1.15186 
        3.89561         18.1961         1.13979 
        3.91134         18.0461         1.12787 
        3.92704         17.8678         1.11612 
        3.94273         17.7294         1.10456 
        3.95845          17.563         1.09314 
        3.97418         17.4031         1.08187 
        3.98988         17.1789         1.07078 
        4.00554         17.0221         1.05987 
        4.02125         16.9297         1.04908 
        4.03698         16.7412         1.03843 
        4.05268         16.5916         1.02794 
        4.06839         16.4126         1.01759 
         4.0841         16.2604         1.00739 
        4.09983         16.1532        0.997305 
        4.11555         15.9743        0.987365 
        4.13124         15.8924        0.977586 
        4.14693         15.6684         0.96793 
        4.16266         15.5756        0.958382 
        4.17839         15.4778        0.948967 
        4.19408         15.3084        0.939698 
        4.20977         15.1853        0.930548 
        4.22551         15.0529        0.921497 
        4.24123         14.9123        0.912575 
        4.25691         14.7989        0.903794 
        4.27259          14.621        0.895125 
        4.28831         14.5468        0.886551 
        4.30404         14.4083         0.87808 
        4.31974         14.2966        0.869738 
        4.33543         14.1368        0.861507 
        4.35116         14.0263        0.853362 
        4.36688         13.9105        0.845325 
        4.38255         13.7823        0.837421 
        4.39825         13.6587        0.829599 
        4.41398         13.5603        0.821861 
         4.4297         13.4148        0.814229 
        4.44541         13.3319        0.806694 
        4.46111         13.1722         0.79926 
        4.47683         13.0881        0.791913 
        4.49251         12.9595        0.784672 
        4.50819          12.847        0.777523 
         4.5239         12.7841        0.770453 
        4.53962          12.627         0.76346 
        4.55535         12.5522         0.75655 
        4.57106         12.4553        0.749735 
        4.58678         12.3239        0.743002 
         4.6025         12.2144        0.736349 
        4.61821          12.114        0.729778 
        4.63391         12.0217        0.723295 
         4.6496         11.9011        0.716892 
        4.66532          11.796        0.710557 
        4.68103         11.7411          0.7043 
        4.69673         11.6272        0.698123 
        4.71241         11.5378        0.692027 
        4.72811          11.457        0.685992 
        4.74384         11.3421        0.680021 
        4.75955         11.2309         0.67413 
        4.77525         11.1594        0.668311 
        4.79096         11.0585        0.662553 
        4.80669         10.9825        0.656859 
         4.8224         10.8608        0.651238 
        4.83809         10.7804        0.645689 
        4.85379         10.7005          0.6402 
         4.8695         10.6231         0.63477 
        4.88521         10.5312        0.629404 
        4.90093         10.4584        0.624099 
        4.91663         10.3535         0.61886 
        4.93234         10.2892        0.613675 
        4.94807         10.2165        0.608545 
        4.96377         10.1208        0.603483 
        4.97943         10.0277        0.598488 
        4.99514         9.95565        0.593537 
        5.01086         9.86911        0.588637 
        5.02654         9.79953        0.583805 
        5.04227         9.72073        0.579012 
          5.058         9.65954         0.57427 
        5.07371         9.58549        0.569591 
        5.08942         9.53066        0.564962 
        5.10513         9.42486        0.560384 
        5.12084         9.36497        0.555854 
        5.13656         9.27524        0.551374 
        5.15225         9.21222        0.546951 
        5.16796         9.15944        0.542569 
        5.18369         9.05716         0.53823 
         5.1994         9.00935        0.533947 
        5.21509         8.94083        0.529713 
        5.23079         8.87515         0.52552 
        5.24649         8.80288        0.521375 
        5.26217         8.73566        0.517277 
        5.27788         8.67885        0.513218 
        5.29359         8.59544          0.5092 
        5.30933         8.54798         0.50522 
        5.32504         8.48496        0.501288 
        5.34073         8.40214        0.497402 
        5.35646         8.35602        0.493549 
        5.37218         8.28612        0.489736 
        5.38789         8.23093        0.485969 
        5.40357         8.14866        0.482246 
        5.41929         8.10982        0.478552 
        5.43502         8.04264        0.474897 
         5.4507         7.97711        0.471289 
        5.46639         7.90861        0.467717 
        5.48212         7.85417        0.464173 
        5.49786         7.80566        0.460662 
        5.51353         7.76543        0.457204 
        5.52921         7.70033        0.453777 
        5.54495         7.63905        0.450376 
        5.56066         7.57459        0.447012 
        5.57637         7.52174        0.443683 
        5.59207         7.46228        0.440391 
        5.60778         7.42548        0.437131 
        5.62346         7.36328        0.433908 
        5.63916         7.30925        0.430713 
        5.65487         7.26769         0.42755 
         5.6706         7.19343        0.424414 
        5.68633         7.14427        0.421308 
        5.70203         7.09124        0.418239 
        5.71773         7.05224        0.415201 
        5.73344          7.0056        0.412191 
        5.74916         6.95158        0.409208 
        5.76486         6.91689        0.406259 
        5.78054         6.85993        0.403342 
        5.79626         6.80425        0.400446 
          5.812         6.76566        0.397576 
         5.8277         6.68563        0.394741 
        5.84339           6.669        0.391934 
        5.85911         6.61322        0.389149 
        5.87484         6.58472        0.386391 
        5.89053          6.5381        0.383665 
        5.90623         6.48317        0.380963 
        5.92195         6.43537        0.378283 
        5.93767         6.39318         0.37563 
        5.95336         6.33735        0.373006 
        5.96905         6.29709        0.370409 
        5.98476         6.25952        0.367832 
        6.00048         6.21696        0.365278 
        6.01617         6.18783        0.362752 
        6.03185         6.12564        0.360253 
        6.04756         6.07599        0.357771 
        6.06331         6.04653        0.355307 
        6.07903         6.01852        0.352871 
        6.09473         5.96317         0.35046 
        6.11044         5.92352        0.348069 
        6.12616         5.89127        0.345701 
        6.14186         5.85587        0.343357 
        6.15755         5.81776        0.341034 
        6.17326         5.75932        0.338731 
        6.18898         5.73588        0.336448 
        6.20467         5.68365         0.33419 
        6.22036         5.66265        0.331953 
         6.2361         5.62429         0.32973 
         6.2518         5.59243        0.327531 
        6.26748         5.54563        0.325356 
        6.28319         5.52085        0.323195 
        6.29893          5.4775        0.321052 
        6.31463         5.43108        0.318931 
        6.33033         5.40585         0.31683 
        6.34604         5.37158        0.314747 
        6.36177         5.34239         0.31268 
        6.37747         5.30287        0.310635 
