# k  (h/Mpc)    Pcb(k)  (Mpc/h)^3    Pcb_linear(k) (Mpc/h)^3   ShotnoiseSubtracted = true
      0.0200456         27089.5         27524.9 
      0.0350414         18491.4         17720.5 
      0.0492313         12021.8         12223.4 
      0.0637834         9510.62         9962.06 
      0.0800726         7117.34          7481.9 
       0.096163         5565.04         5165.88 
       0.111083         4511.97         4144.23 
       0.126058         3718.63          3670.6 
       0.142273         3173.33         2958.93 
       0.158546         2549.91         2270.63 
        0.17375         2289.15         1950.98 
       0.188953         2173.26         1764.39 
       0.204907         1837.23         1501.65 
       0.220756         1655.19         1245.37 
        0.23588         1473.44         1099.89 
         0.2514         1327.63         1000.43 
       0.267535         1271.81         881.373 
       0.283568         1129.14         765.328 
       0.299022         1066.58          686.89 
       0.314451         1114.32         628.735 
       0.330372          977.34         567.529 
       0.346141         893.913         508.879 
       0.361624         854.789         463.213 
       0.377134         820.418         426.455 
       0.392932          771.66         391.054 
       0.408854         743.104         357.174 
       0.424564         724.322         328.626 
       0.440253         668.979         304.424 
       0.455999         636.153         282.103 
       0.471626         647.703         261.441 
        0.48727         606.174         242.957 
       0.502856         586.411         226.729 
       0.518488         562.221          211.88 
       0.534347         543.468         197.918 
       0.550082         516.205         185.304 
       0.565732         505.833         173.961 
       0.581496         493.292         163.504 
       0.597222         482.309         153.852 
       0.612804         468.472         145.032 
       0.628434         448.444         136.914 
       0.644267         434.754         129.329 
       0.660051         430.178         122.331 
       0.675724         418.357         115.887 
       0.691403         405.945         109.898 
       0.707174         393.111         104.296 
       0.722871         391.523         99.1047 
        0.73838         378.236         94.3193 
       0.754018         368.316         89.8117 
       0.769845         364.791         85.5478 
        0.78569         355.292         81.5552 
       0.801365         342.759         77.8551 
       0.817031         339.545         74.3858 
       0.832809         333.791         71.1048 
       0.848511         328.704         68.0352 
       0.864097         317.711         65.1669 
       0.879701         318.452         62.4603 
       0.895507         305.664         59.8747 
       0.911279         300.419           57.44 
        0.92691         297.206           55.16 
       0.942635         291.951         52.9906 
       0.958396         282.914         50.9325 
       0.974128         278.243         48.9869 
       0.989692         271.574         47.1615 
        1.00528         266.603         45.4259 
        1.02113         264.164         43.7501 
        1.03692         259.459         42.1646 
        1.05264          255.51         40.6645 
        1.06832         249.052         39.2393 
        1.08405         247.662         37.8783 
        1.09979         241.739         36.5807 
        1.11537         236.462         35.3565 
        1.13105         233.124         34.1806 
        1.14679         229.251         33.0535 
        1.16256         227.451         31.9747 
        1.17828         223.746         30.9473 
        1.19395         217.881         29.9683 
         1.2097         216.366         29.0264 
        1.22537         213.329         28.1294 
          1.241         207.029         27.2727 
        1.25666         205.773         26.4494 
        1.27241             203          25.656 
        1.28819          198.27         24.8937 
        1.30392         197.998         24.1643 
        1.31957         192.524         23.4672 
        1.33529         188.214          22.795 
        1.35108         188.436         22.1462 
        1.36674         183.088         21.5272 
         1.3824         180.525         20.9322 
        1.39811         178.433         20.3576 
        1.41389          175.22         19.8023 
        1.42964         171.701         19.2685 
        1.44531          170.85         18.7568 
        1.46101         167.137         18.2625 
        1.47667         164.794         17.7874 
        1.49229         163.344         17.3304 
        1.50793         160.193         16.8888 
        1.52367         157.215         16.4596 
        1.53953         155.317         16.0424 
        1.55526         152.593         15.6428 
        1.57092         151.765         15.2585 
        1.58662         148.903          14.886 
        1.60235         146.778         14.5252 
        1.61809         144.498         14.1761 
        1.63369          141.75         13.8415 
        1.64941         140.676         13.5152 
        1.66519         137.703         13.1982 
        1.68085         135.673         12.8935 
        1.69652         134.654         12.5983 
        1.71228         132.652         12.3106 
        1.72806         130.905         12.0316 
        1.74368         128.662          11.764 
        1.75933         127.485         11.5039 
        1.77505         125.736         11.2504 
        1.79081         123.549         11.0041 
         1.8065         122.324         10.7661 
        1.82218         119.371         10.5354 
        1.83797          118.44         10.3097 
        1.85367         116.807         10.0919 
        1.86928         115.191         9.88164 
        1.88497         114.849         9.67618 
        1.90073         112.953         9.47575 
        1.91647         111.069         9.28115 
        1.93218          109.11         9.09238 
        1.94787         107.531          8.9091 
        1.96363         106.926         8.73011 
        1.97935         105.799         8.55636 
        1.99499         103.899          8.3883 
        2.01064         102.451         8.22447 
         2.0264         101.294         8.06395 
        2.04216          99.287         7.90777 
        2.05781         98.2456         7.75668 
        2.07353         97.1563         7.60896 
        2.08928          95.442         7.46475 
        2.10499         95.1237         7.32463 
        2.12065         93.5686         7.18849 
        2.13633         92.4116         7.05568 
        2.15211          90.906         6.92534 
        2.16785         89.8528         6.79863 
        2.18349         88.6595         6.67586 
        2.19916         88.2358         6.55584 
        2.21489         86.2443         6.43835 
        2.23063         85.0321         6.32364 
         2.2463         84.2359         6.21222 
        2.26194         83.1696         6.10374 
        2.27765         82.3417         5.99727 
        2.29341         80.9978         5.89305 
        2.30914         80.1128          5.7915 
        2.32486          79.378         5.69238 
        2.34061         78.0806          5.5954 
        2.35635         77.3623         5.50074 
        2.37203          76.078         5.40859 
        2.38768         75.0354         5.31872 
        2.40339         74.2416         5.23055 
        2.41914         73.3814         5.14416 
        2.43483         72.5368         5.06001 
         2.4505         71.6119         4.97787 
        2.46622         70.7816         4.89725 
        2.48195         69.8701         4.81841 
        2.49759         68.7873          4.7417 
        2.51328         68.3388         4.66645 
        2.52906         67.4504         4.59235 
        2.54479         66.5512         4.52011 
        2.56049          65.546         4.44956 
        2.57618         64.8967         4.38056 
        2.59189         63.8774         4.31292 
        2.60758         62.8722         4.24679 
        2.62325         62.2742         4.18212 
        2.63898         61.8383         4.11856 
        2.65468         61.0646         4.05644 
        2.67044         60.2801         3.99533 
        2.68618         59.3886         3.93561 
        2.70184         58.8921         3.87734 
        2.71755         58.2024         3.82009 
        2.73329         57.4279          3.7639 
        2.74897          56.941         3.70902 
        2.76462         56.1891         3.65534 
        2.78034         55.4886         3.60249 
        2.79607         54.9252         3.55063 
        2.81179         54.2541         3.49983 
        2.82749         53.8539         3.45008 
        2.84321         52.9222         3.40124 
        2.85893         52.4477         3.35334 
        2.87462         51.9923         3.30644 
        2.89033         51.0064         3.26039 
        2.90605         50.6211         3.21517 
        2.92176         50.1253         3.17082 
        2.93747         49.6356         3.12732 
        2.95318         49.1063         3.08463 
        2.96891         48.5285          3.0427 
        2.98456         47.8839         3.00174 
        3.00023         47.4555         2.96146 
        3.01596         46.9736         2.92179 
        3.03164         46.3838         2.88295 
        3.04738         46.0073          2.8447 
         3.0631         45.2954         2.80715 
        3.07883          44.808         2.77027 
        3.09456         44.3081         2.73405 
        3.11026         44.1466         2.69853 
        3.12596         43.3753         2.66364 
        3.14163         43.0033         2.62945 
        3.15734         42.3732         2.59577 
        3.17308           41.93         2.56259 
        3.18879         41.4607         2.53008 
        3.20447         41.1793         2.49817 
         3.2202           40.62         2.46671 
         3.2359         40.1255         2.43585 
        3.25157         39.9239         2.40558 
        3.26729          39.528         2.37573 
        3.28304         39.0373         2.34632 
        3.29877         38.6485         2.31745 
        3.31446          38.079         2.28912 
        3.33014         37.7442         2.26128 
        3.34585         37.3072         2.23386 
        3.36158         37.0935         2.20685 
        3.37727          36.586         2.18037 
        3.39294         36.1795         2.15434 
        3.40867         35.8188         2.12864 
        3.42439         35.4839         2.10337 
        3.44008         35.2194         2.07856 
        3.45578         34.6988         2.05412 
        3.47153         34.3523         2.03002 
        3.48724         34.0122         2.00635 
        3.50292         33.7647          1.9831 
        3.51859         33.3879         1.96024 
        3.53431         32.9329         1.93765 
        3.55007         32.6926         1.91537 
        3.56577         32.4014         1.89352 
        3.58146         32.0225         1.87202 
        3.59719         31.7523          1.8508 
        3.61292         31.3948         1.82991 
        3.62859         31.1391         1.80942 
        3.64429         30.8164          1.7892 
        3.66003         30.4286         1.76923 
        3.67578          30.239         1.74957 
        3.69146         29.8729         1.73027 
        3.70712         29.6526         1.71131 
        3.72284         29.4264         1.69255 
        3.73853         29.0565          1.6741 
        3.75422         28.6889         1.65592 
        3.76993         28.5347         1.63799 
        3.78564         28.2244         1.62033 
        3.80137         27.9852          1.6029 
        3.81707         27.6059         1.58576 
        3.83279         27.3673         1.56886 
        3.84853           27.13         1.55217 
        3.86424         26.8761         1.53576 
        3.87992         26.6044          1.5196 
        3.89561         26.3517         1.50368 
        3.91134         26.1688         1.48795 
        3.92704         25.9303         1.47246 
        3.94273         25.7127          1.4572 
        3.95845         25.4309         1.44213 
        3.97418         25.2147         1.42727 
        3.98988         24.9273         1.41264 
        4.00554         24.6842         1.39825 
        4.02125         24.5033         1.38402 
        4.03698         24.2593         1.36996 
        4.05268         23.9975         1.35612 
        4.06839         23.7924         1.34247 
         4.0841         23.5466         1.32901 
        4.09983         23.3889         1.31571 
        4.11555         23.1292         1.30259 
        4.13124         22.9037         1.28969 
        4.14693         22.7287         1.27695 
        4.16266         22.5423         1.26436 
        4.17839         22.3169         1.25194 
        4.19408         22.0892         1.23971 
        4.20977         21.9291         1.22764 
        4.22551         21.6685          1.2157 
        4.24123         21.4607         1.20393 
        4.25691         21.3482         1.19234 
        4.27259         21.1429          1.1809 
        4.28831         20.9738         1.16959 
        4.30404         20.7315         1.15842 
        4.31974         20.5727         1.14741 
        4.33543         20.4033         1.13655 
        4.35116         20.2626         1.12581 
        4.36688         20.0071         1.11521 
        4.38255         19.8646         1.10478 
        4.39825         19.6918         1.09446 
        4.41398         19.5924         1.08425 
         4.4297         19.4024         1.07418 
        4.44541         19.2113         1.06424 
        4.46111         18.9728         1.05443 
        4.47683         18.8864         1.04474 
        4.49251         18.7104         1.03519 
        4.50819         18.5738         1.02576 
         4.5239         18.3492         1.01643 
        4.53962         18.2134          1.0072 
        4.55535         18.1138        0.998088 
        4.57106          17.934        0.989097 
        4.58678         17.7304        0.980214 
         4.6025         17.6124        0.971437 
        4.61821         17.4664        0.962768 
        4.63391         17.3322        0.954215 
         4.6496         17.1857        0.945768 
        4.66532         17.0376         0.93741 
        4.68103         16.8829        0.929156 
        4.69673         16.7906        0.921007 
        4.71241         16.6426        0.912964 
        4.72811         16.4894        0.905003 
        4.74384         16.3768        0.897126 
        4.75955         16.1863        0.889354 
        4.77525         16.0965        0.881677 
        4.79096         15.9363         0.87408 
        4.80669         15.8171        0.866569 
         4.8224         15.6984        0.859154 
        4.83809         15.5635        0.851832 
        4.85379         15.4558        0.844591 
         4.8695         15.3119        0.837427 
        4.88521         15.2032        0.830349 
        4.90093         15.0598        0.823351 
        4.91663         14.9612        0.816438 
        4.93234         14.8113        0.809597 
        4.94807         14.7248         0.80283 
        4.96377         14.5648        0.796151 
        4.97943         14.4551        0.789562 
        4.99514         14.3959         0.78303 
        5.01086         14.2686        0.776566 
        5.02654         14.1327        0.770191 
        5.04227         14.0042        0.763868 
          5.058         13.9124        0.757613 
        5.07371         13.7726        0.751439 
        5.08942         13.6908        0.745333 
        5.10513         13.5758        0.739293 
        5.12084         13.4753        0.733316 
        5.13656         13.3796        0.727407 
        5.15225         13.2571        0.721571 
        5.16796         13.1876         0.71579 
        5.18369         13.0751        0.710066 
         5.1994         12.9625        0.704415 
        5.21509         12.8719         0.69883 
        5.23079         12.7928        0.693298 
        5.24649         12.6639         0.68783 
        5.26217         12.5664        0.682424 
        5.27788         12.4653        0.677068 
        5.29359         12.4013        0.671768 
        5.30933         12.2881        0.666517 
        5.32504         12.1769         0.66133 
        5.34073         12.0939        0.656204 
        5.35646         12.0042        0.651121 
        5.37218         11.8952         0.64609 
        5.38789         11.8317         0.64112 
        5.40357         11.7707        0.636208 
        5.41929         11.6532        0.631336 
        5.43502         11.5411        0.626514 
         5.4507         11.4919        0.621753 
        5.46639         11.4082        0.617041 
        5.48212           11.29        0.612366 
        5.49786         11.2129        0.607733 
        5.51353         11.1338        0.603171 
        5.52921         11.0837        0.598651 
        5.54495         10.9999        0.594163 
        5.56066         10.8719        0.589726 
        5.57637         10.8339        0.585335 
        5.59207         10.7389        0.580991 
        5.60778         10.6444         0.57669 
        5.62346         10.5733        0.572438 
        5.63916         10.5132        0.568224 
        5.65487         10.4392         0.56405 
         5.6706         10.3426        0.559913 
        5.68633         10.2795        0.555815 
        5.70203         10.2228        0.551766 
        5.71773         10.1376        0.547759 
        5.73344         10.0522        0.543788 
        5.74916         9.98564        0.539853 
        5.76486         9.90195        0.535961 
        5.78054         9.82674        0.532114 
        5.79626         9.77592        0.528294 
          5.812         9.69514        0.524506 
         5.8277         9.64632        0.520767 
        5.84339          9.5702        0.517064 
        5.85911         9.51015        0.513389 
        5.87484         9.41304         0.50975 
        5.89053         9.34809        0.506154 
        5.90623         9.28869         0.50259 
        5.92195         9.24399        0.499054 
        5.93767         9.17434        0.495554 
        5.95336         9.10305        0.492093 
        5.96905         9.02494        0.488666 
        5.98476         8.97334        0.485266 
        6.00048         8.90493        0.481897 
        6.01617         8.86026        0.478565 
        6.03185         8.77647        0.475268 
        6.04756         8.72695        0.471993 
        6.06331         8.65646        0.468743 
        6.07903         8.60937        0.465529 
        6.09473         8.54834        0.462348 
        6.11044         8.49137        0.459194 
        6.12616         8.44763         0.45607 
        6.14186         8.37477        0.452977 
        6.15755         8.32002        0.449913 
        6.17326         8.25053        0.446875 
        6.18898         8.20274        0.443863 
        6.20467         8.15768        0.440884 
        6.22036         8.09033        0.437933 
         6.2361         8.05166           0.435 
         6.2518         7.99294        0.432099 
        6.26748         7.93304         0.42923 
        6.28319         7.86973        0.426379 
        6.29893         7.83298        0.423551 
        6.31463         7.77334        0.420754 
        6.33033         7.72619        0.417982 
        6.34604         7.66128        0.415233 
        6.36177         7.60182        0.412507 
        6.37747         7.56682        0.409809 
