# k  (h/Mpc)    Pcb(k)  (Mpc/h)^3    Pcb_linear(k) (Mpc/h)^3   ShotnoiseSubtracted = true
      0.0200456         6635.63         6729.08 
      0.0350414         4266.77         4332.17 
      0.0492313         2990.54         2988.27 
      0.0637834         2483.01         2435.45 
      0.0800726         1872.64         1829.12 
       0.096163         1257.71         1262.91 
       0.111083         1002.64         1013.15 
       0.126058           913.3          897.36 
       0.142273         756.509         723.376 
       0.158546         600.035         555.106 
        0.17375          490.95          476.96 
       0.188953         463.801         431.345 
       0.204907         419.932         367.112 
       0.220756         346.432         304.459 
        0.23588         304.148         268.893 
         0.2514         268.082         244.577 
       0.267535         248.898         215.471 
       0.283568         222.215         187.101 
       0.299022         204.146         167.926 
       0.314451         185.315         153.708 
       0.330372         170.488         138.745 
       0.346141         151.746         124.407 
       0.361624         143.757         113.243 
       0.377134         134.175         104.256 
       0.392932         120.984         95.6018 
       0.408854         115.463         87.3191 
       0.424564         109.909           80.34 
       0.440253         102.697         74.4233 
       0.455999         95.7488         68.9663 
       0.471626         88.6513         63.9152 
        0.48727         85.0515         59.3963 
       0.502856         80.9298          55.429 
       0.518488         77.8461         51.7988 
       0.534347         74.4475         48.3855 
       0.550082         68.1527         45.3017 
       0.565732         64.7808         42.5287 
       0.581496         62.4108         39.9722 
       0.597222         60.0879         37.6126 
       0.612804         56.7236         35.4563 
       0.628434         55.1082         33.4717 
       0.644267          53.167         31.6174 
       0.660051         51.3197         29.9066 
       0.675724         48.9131         28.3311 
       0.691403         47.3221          26.867 
       0.707174          45.598         25.4976 
       0.722871         44.2075         24.2284 
        0.73838         42.9311         23.0585 
       0.754018         40.6942         21.9565 
       0.769845         39.6591         20.9141 
        0.78569         38.5841          19.938 
       0.801365         37.0428         19.0334 
       0.817031         36.0282         18.1853 
       0.832809         35.3782         17.3832 
       0.848511         33.4668         16.6327 
       0.864097         32.7894         15.9315 
       0.879701         32.0082         15.2698 
       0.895507         31.4791         14.6377 
       0.911279         30.3962         14.0425 
        0.92691          29.753         13.4851 
       0.942635         28.5078         12.9547 
       0.958396         28.2649         12.4516 
       0.974128         27.3749         11.9759 
       0.989692         26.9177         11.5297 
        1.00528         26.2557         11.1054 
        1.02113         25.3849         10.6957 
        1.03692         24.7186         10.3081 
        1.05264           24.53         9.94134 
        1.06832         23.6064         9.59293 
        1.08405         23.2458          9.2602 
        1.09979         22.7954         8.94298 
        1.11537         22.0861         8.64367 
        1.13105         22.0212         8.35622 
        1.14679          21.578         8.08065 
        1.16256         20.8796         7.81692 
        1.17828          20.524         7.56576 
        1.19395         20.1009         7.32642 
         1.2097         19.8785         7.09616 
        1.22537         19.5693         6.87685 
          1.241         19.0153         6.66742 
        1.25666         18.5625         6.46615 
        1.27241         18.2798         6.27219 
        1.28819          17.816         6.08581 
        1.30392         17.6229         5.90751 
        1.31957         17.4455         5.73709 
        1.33529         17.2023         5.57274 
        1.35108         16.7927         5.41414 
        1.36674         16.5043          5.2628 
         1.3824         16.1262         5.11735 
        1.39811         15.9971         4.97688 
        1.41389         15.7988         4.84112 
        1.42964         15.4177         4.71061 
        1.44531         15.3389         4.58552 
        1.46101         14.9378         4.46469 
        1.47667         14.7496         4.34853 
        1.49229         14.5734          4.2368 
        1.50793         14.3729         4.12883 
        1.52367         14.1495         4.02391 
        1.53953         14.0125         3.92191 
        1.55526         13.7356         3.82424 
        1.57092         13.4669         3.73027 
        1.58662          13.363         3.63922 
        1.60235         13.1596         3.55101 
        1.61809         12.9818         3.46566 
        1.63369         12.8279         3.38385 
        1.64941          12.566         3.30409 
        1.66519         12.4788         3.22658 
        1.68085         12.2776          3.1521 
        1.69652         12.1019         3.07993 
        1.71228         11.9992          3.0096 
        1.72806         11.7979         2.94139 
        1.74368         11.6257         2.87597 
        1.75933         11.5167         2.81239 
        1.77505         11.4022         2.75042 
        1.79081         11.2013          2.6902 
         1.8065         11.1405         2.63202 
        1.82218          10.928          2.5756 
        1.83797         10.7384         2.52044 
        1.85367         10.6422         2.46719 
        1.86928         10.5549         2.41579 
        1.88497         10.3854         2.36556 
        1.90073         10.3654         2.31656 
        1.91647         10.1706         2.26898 
        1.93218         10.0819         2.22283 
        1.94787         9.96788         2.17803 
        1.96363         9.88518         2.13427 
        1.97935          9.7564         2.09179 
        1.99499         9.58355         2.05071 
        2.01064         9.52987         2.01065 
         2.0264         9.40258         1.97141 
        2.04216         9.29962         1.93323 
        2.05781         9.14324         1.89629 
        2.07353         9.09684         1.86018 
        2.08928         8.99019         1.82492 
        2.10499         8.88476         1.79067 
        2.12065         8.75405         1.75739 
        2.13633         8.73595         1.72492 
        2.15211         8.59006         1.69305 
        2.16785         8.53211         1.66208 
        2.18349         8.47196         1.63206 
        2.19916         8.36952         1.60272 
        2.21489         8.27748           1.574 
        2.23063         8.18841         1.54596 
         2.2463         8.09125         1.51872 
        2.26194         8.00431          1.4922 
        2.27765         7.97343         1.46617 
        2.29341         7.86627         1.44069 
        2.30914         7.74967         1.41586 
        2.32486         7.71181         1.39163 
        2.34061         7.63998         1.36792 
        2.35635         7.54567         1.34478 
        2.37203         7.51195         1.32225 
        2.38768         7.36645         1.30028 
        2.40339         7.31095         1.27873 
        2.41914         7.24488          1.2576 
        2.43483         7.22126         1.23703 
         2.4505         7.11379         1.21695 
        2.46622         7.04405         1.19724 
        2.48195         7.01438         1.17797 
        2.49759         6.92289         1.15921 
        2.51328         6.83918         1.14082 
        2.52906         6.80612          1.1227 
        2.54479         6.71588         1.10504 
        2.56049         6.71131         1.08779 
        2.57618         6.64642         1.07093 
        2.59189         6.54233         1.05439 
        2.60758         6.52554         1.03822 
        2.62325         6.46848         1.02241 
        2.63898         6.37712         1.00687 
        2.65468         6.29984        0.991688 
        2.67044         6.25976        0.976748 
        2.68618         6.19168        0.962148 
        2.70184         6.16791        0.947902 
        2.71755         6.10235        0.933906 
        2.73329         6.02543         0.92017 
        2.74897         6.00028        0.906752 
        2.76462         5.96336        0.893629 
        2.78034         5.85633         0.88071 
        2.79607         5.84701         0.86803 
        2.81179          5.7825        0.855613 
        2.82749         5.75793         0.84345 
        2.84321         5.70654        0.831508 
        2.85893         5.65026        0.819799 
        2.87462         5.60683        0.808334 
        2.89033         5.55391        0.797075 
        2.90605         5.47996         0.78602 
        2.92176         5.46399        0.775178 
        2.93747         5.43137        0.764544 
        2.95318         5.37826        0.754106 
        2.96891         5.33805        0.743857 
        2.98456         5.26591        0.733841 
        3.00023         5.24556        0.723994 
        3.01596         5.19908        0.714296 
        3.03164         5.17283        0.704801 
        3.04738         5.13633         0.69545 
         3.0631         5.07519         0.68627 
        3.07883         5.04925        0.677254 
        3.09456         5.00167          0.6684 
        3.11026         4.96008        0.659717 
        3.12596         4.92877        0.651187 
        3.14163         4.87746        0.642827 
        3.15734         4.84807        0.634593 
        3.17308         4.80337        0.626482 
        3.18879         4.76849        0.618534 
        3.20447         4.73594        0.610734 
         3.2202         4.68569        0.603043 
         3.2359         4.65409        0.595497 
        3.25157         4.62256        0.588097 
        3.26729         4.60496        0.580799 
        3.28304         4.54702         0.57361 
        3.29877         4.52001        0.566551 
        3.31446         4.48079        0.559625 
        3.33014         4.44913         0.55282 
        3.34585         4.43433        0.546117 
        3.36158         4.39682        0.539514 
        3.37727         4.36415         0.53304 
        3.39294         4.33608        0.526677 
        3.40867         4.29588        0.520394 
        3.42439         4.25648        0.514217 
        3.44008         4.23313         0.50815 
        3.45578         4.19899        0.502176 
        3.47153         4.16605        0.496285 
        3.48724         4.13559        0.490497 
        3.50292         4.11781        0.484814 
        3.51859         4.08367        0.479223 
        3.53431          4.0524        0.473703 
        3.55007         4.01898        0.468255 
        3.56577         4.00126        0.462913 
        3.58146         3.97564        0.457657 
        3.59719         3.94013        0.452469 
        3.61292         3.91857        0.447362 
        3.62859         3.89044        0.442353 
        3.64429         3.85638        0.437411 
        3.66003         3.82162        0.432528 
        3.67578         3.80887        0.427721 
        3.69146         3.76577        0.423004 
        3.70712          3.7607        0.418367 
        3.72284         3.71592        0.413781 
        3.73853         3.69543        0.409271 
        3.75422         3.66425        0.404827 
        3.76993         3.65282        0.400443 
        3.78564         3.61549        0.396126 
        3.80137         3.60493        0.391865 
        3.81707         3.57363        0.387676 
        3.83279         3.54414        0.383543 
        3.84853         3.52277        0.379463 
        3.86424         3.49523        0.375451 
        3.87992         3.47158        0.371501 
        3.89561         3.44826        0.367608 
        3.91134         3.41737        0.363762 
        3.92704         3.40578        0.359976 
        3.94273         3.37887        0.356246 
        3.95845          3.3587        0.352562 
        3.97418          3.3317        0.348929 
        3.98988         3.31019        0.345351 
        4.00554         3.29286        0.341833 
        4.02125          3.2694        0.338353 
        4.03698         3.23431        0.334916 
        4.05268         3.22312        0.331535 
        4.06839         3.20843        0.328197 
         4.0841         3.18027        0.324905 
        4.09983         3.15671        0.321654 
        4.11555          3.1288        0.318448 
        4.13124          3.1142        0.315294 
        4.14693         3.08051         0.31218 
        4.16266         3.05883          0.3091 
        4.17839         3.04063        0.306064 
        4.19408         3.01357        0.303074 
        4.20977         2.99883        0.300123 
        4.22551          2.9793        0.297204 
        4.24123         2.96011        0.294326 
        4.25691         2.93909        0.291494 
        4.27259         2.92556        0.288698 
        4.28831         2.90763        0.285933 
        4.30404         2.88284        0.283201 
        4.31974         2.86095         0.28051 
        4.33543          2.8499        0.277856 
        4.35116         2.82302        0.275229 
        4.36688         2.79775        0.272637 
        4.38255         2.78308        0.270087 
        4.39825         2.76581        0.267565 
        4.41398         2.75605        0.265069 
         4.4297         2.73288        0.262607 
        4.44541         2.72424        0.260177 
        4.46111         2.70561         0.25778 
        4.47683          2.6751         0.25541 
        4.49251         2.66615        0.253075 
        4.50819         2.64607        0.250769 
         4.5239         2.62857        0.248489 
        4.53962         2.62216        0.246233 
        4.55535          2.6009        0.244005 
        4.57106         2.59061        0.241807 
        4.58678         2.57466        0.239635 
         4.6025         2.55712        0.237489 
        4.61821         2.54373         0.23537 
        4.63391         2.52697        0.233279 
         4.6496         2.50777        0.231214 
        4.66532         2.49338        0.229171 
        4.68103         2.47779        0.227153 
        4.69673         2.46273        0.225161 
        4.71241         2.44557        0.223195 
        4.72811         2.43692        0.221248 
        4.74384         2.42057        0.219322 
        4.75955         2.40498        0.217422 
        4.77525         2.39191        0.215546 
        4.79096         2.37257        0.213688 
        4.80669         2.36584        0.211852 
         4.8224         2.34581        0.210039 
        4.83809         2.33921        0.208249 
        4.85379         2.32619        0.206479 
         4.8695         2.30888        0.204728 
        4.88521         2.29524        0.202997 
        4.90093         2.28359        0.201286 
        4.91663         2.26852        0.199597 
        4.93234         2.26034        0.197924 
        4.94807         2.24838         0.19627 
        4.96377         2.23283        0.194637 
        4.97943         2.21288        0.193026 
        4.99514         2.20681        0.191429 
        5.01086         2.19041        0.189849 
        5.02654         2.18375         0.18829 
        5.04227         2.16854        0.186745 
          5.058         2.16108        0.185215 
        5.07371         2.14652        0.183706 
        5.08942         2.13613        0.182213 
        5.10513         2.12294        0.180737 
        5.12084         2.10963        0.179276 
        5.13656         2.09905        0.177831 
        5.15225          2.0859        0.176404 
        5.16796         2.07704        0.174991 
        5.18369         2.06433        0.173592 
         5.1994         2.05708         0.17221 
        5.21509         2.04739        0.170845 
        5.23079          2.0293        0.169492 
        5.24649         2.02419        0.168155 
        5.26217         2.01147        0.166834 
        5.27788         2.00148        0.165524 
        5.29359          1.9911        0.164229 
        5.30933         1.98099        0.162945 
        5.32504         1.96531        0.161677 
        5.34073         1.95814        0.160424 
        5.35646         1.94514        0.159181 
        5.37218         1.93433        0.157951 
        5.38789         1.92482        0.156736 
        5.40357         1.91914        0.155535 
        5.41929         1.90909        0.154344 
        5.43502         1.89958        0.153165 
         5.4507          1.8917        0.152001 
        5.46639         1.88129        0.150849 
        5.48212         1.87168        0.149706 
        5.49786         1.86205        0.148574 
        5.51353         1.85306        0.147459 
        5.52921         1.84438        0.146354 
        5.54495          1.8325        0.145256 
        5.56066         1.82677        0.144172 
        5.57637         1.81574        0.143098 
        5.59207         1.80707        0.142036 
        5.60778         1.80211        0.140985 
        5.62346         1.79016        0.139945 
        5.63916         1.77838        0.138915 
        5.65487         1.77151        0.137895 
         5.6706         1.76342        0.136883 
        5.68633         1.75101        0.135881 
        5.70203         1.74596        0.134892 
        5.71773         1.73682        0.133912 
        5.73344         1.73261        0.132941 
        5.74916         1.71834        0.131979 
        5.76486          1.7145        0.131028 
        5.78054         1.70557        0.130087 
        5.79626         1.69835        0.129153 
          5.812         1.69153        0.128227 
         5.8277         1.68062        0.127313 
        5.84339         1.67473        0.126408 
        5.85911         1.66755        0.125509 
        5.87484          1.6592         0.12462 
        5.89053         1.65234        0.123741 
        5.90623         1.64593        0.122869 
        5.92195         1.63597        0.122005 
        5.93767         1.62673        0.121149 
        5.95336          1.6225        0.120303 
        5.96905         1.61379        0.119465 
        5.98476          1.6071        0.118634 
        6.00048         1.59966        0.117811 
        6.01617         1.59103        0.116996 
        6.03185         1.58244         0.11619 
        6.04756         1.57862        0.115389 
        6.06331         1.56893        0.114595 
        6.07903         1.56612        0.113809 
        6.09473         1.55627        0.113031 
        6.11044         1.55124         0.11226 
        6.12616         1.54285        0.111496 
        6.14186         1.53932         0.11074 
        6.15755         1.53423        0.109991 
        6.17326         1.52769        0.109249 
        6.18898         1.51637        0.108512 
        6.20467          1.5127        0.107784 
        6.22036         1.50373        0.107062 
         6.2361         1.50017        0.106345 
         6.2518         1.48914        0.105636 
        6.26748         1.48797        0.104935 
        6.28319         1.47994        0.104238 
        6.29893         1.47204        0.103547 
        6.31463         1.46685        0.102863 
        6.33033         1.46015        0.102185 
        6.34604         1.45317        0.101513 
        6.36177         1.44998        0.100846 
        6.37747         1.44195        0.100187 
