# k  (h/Mpc)    Pcb(k)  (Mpc/h)^3    Pcb_linear(k) (Mpc/h)^3   ShotnoiseSubtracted = true
      0.0200456         17226.5         17532.1 
      0.0350414         10929.7         11287.2 
      0.0492313         7724.56         7785.73 
      0.0637834         6523.36         6345.39 
      0.0800726         4923.21         4765.64 
       0.096163         3274.04         3290.43 
       0.111083         2626.96         2639.69 
       0.126058         2409.79         2338.01 
       0.142273         2024.92         1884.71 
       0.158546         1686.94         1446.29 
        0.17375         1352.72         1242.69 
       0.188953         1310.58         1123.84 
       0.204907         1205.75         956.484 
       0.220756         1021.24         793.246 
        0.23588         905.477         700.581 
         0.2514          783.68         637.228 
       0.267535         762.083         561.395 
       0.283568         685.977          487.48 
       0.299022         643.036         437.518 
       0.314451         605.783         400.476 
       0.330372         555.026         361.491 
       0.346141         505.659         324.133 
       0.361624         487.414         295.046 
       0.377134         448.822         271.633 
       0.392932         426.777         249.084 
       0.408854         410.861         227.504 
       0.424564         383.645          209.32 
       0.440253         375.195         193.905 
       0.455999         351.524         179.687 
       0.471626         333.164         166.526 
        0.48727         318.238         154.753 
       0.502856         307.999         144.416 
       0.518488         304.424         134.958 
       0.534347         284.267         126.065 
       0.550082          269.67          118.03 
       0.565732         266.058         110.806 
       0.581496         249.667         104.145 
       0.597222         244.737         97.9969 
       0.612804          237.43         92.3788 
       0.628434         227.203          87.208 
       0.644267         220.198          82.377 
       0.660051         215.815         77.9194 
       0.675724         211.078         73.8146 
       0.691403         204.488         70.0002 
       0.707174         197.213         66.4321 
       0.722871         193.402         63.1253 
        0.73838         189.952         60.0772 
       0.754018         185.287          57.206 
       0.769845         178.502         54.4901 
        0.78569         177.408          51.947 
       0.801365         170.192         49.5902 
       0.817031         165.027         47.3804 
       0.832809          163.83         45.2906 
       0.848511         158.207         43.3354 
       0.864097         156.336         41.5084 
       0.879701         153.037         39.7844 
       0.895507         148.731         38.1375 
       0.911279         144.196         36.5867 
        0.92691         143.998         35.1345 
       0.942635         139.462         33.7526 
       0.958396         138.743         32.4418 
       0.974128         135.053         31.2025 
       0.989692         132.065         30.0398 
        1.00528         130.019         28.9343 
        1.02113         128.294         27.8669 
        1.03692         125.114         26.8569 
        1.05264         122.257         25.9014 
        1.06832         119.893         24.9937 
        1.08405         118.219         24.1268 
        1.09979         116.761         23.3003 
        1.11537         114.073         22.5205 
        1.13105         111.981         21.7715 
        1.14679          111.46         21.0536 
        1.16256         109.815         20.3664 
        1.17828         107.509          19.712 
        1.19395          105.43         19.0885 
         1.2097         104.513         18.4885 
        1.22537         102.649         17.9171 
          1.241          100.98         17.3715 
        1.25666         99.3884         16.8471 
        1.27241         97.3123         16.3417 
        1.28819         96.4659         15.8561 
        1.30392         93.9392         15.3916 
        1.31957         93.5787         14.9476 
        1.33529         91.1592         14.5194 
        1.35108         90.4039         14.1061 
        1.36674         89.4005         13.7118 
         1.3824         87.8882         13.3329 
        1.39811         86.6133         12.9669 
        1.41389         85.4069         12.6132 
        1.42964         83.4497         12.2732 
        1.44531         82.1226         11.9473 
        1.46101         80.7773         11.6324 
        1.47667         80.4139         11.3298 
        1.49229         79.0044         11.0387 
        1.50793         78.0198         10.7574 
        1.52367         76.8114          10.484 
        1.53953         75.5777         10.2183 
        1.55526          75.032         9.96379 
        1.57092         74.2514         9.71896 
        1.58662         72.4266         9.48173 
        1.60235         72.1006         9.25191 
        1.61809         70.8125         9.02953 
        1.63369         70.0208         8.81639 
        1.64941         69.5252         8.60856 
        1.66519         67.8018         8.40664 
        1.68085         67.6964         8.21258 
        1.69652         65.8224         8.02455 
        1.71228         65.6858          7.8413 
        1.72806           64.99         7.66359 
        1.74368         63.8163         7.49313 
        1.75933         62.9331         7.32747 
        1.77505         62.3188         7.16602 
        1.79081         61.1718         7.00911 
         1.8065         60.3263         6.85754 
        1.82218         59.4709         6.71055 
        1.83797         58.6496         6.56684 
        1.85367         58.4307          6.4281 
        1.86928         57.5524         6.29416 
        1.88497         56.6826         6.16329 
        1.90073         56.0774         6.03563 
        1.91647         55.4834         5.91168 
        1.93218         54.7059         5.79144 
        1.94787         54.2426          5.6747 
        1.96363         53.3475         5.56069 
        1.97935         52.7577         5.45002 
        1.99499         52.1858         5.34297 
        2.01064         51.5142         5.23862 
         2.0264         50.8061         5.13638 
        2.04216         50.2395          5.0369 
        2.05781         49.4864         4.94066 
        2.07353         48.6023         4.84657 
        2.08928         48.2016         4.75471 
        2.10499         47.4497         4.66546 
        2.12065         47.1542         4.57875 
        2.13633         46.6732         4.49415 
        2.15211         46.2329         4.41113 
        2.16785         45.5422         4.33042 
        2.18349         45.2666         4.25222 
        2.19916         44.5106         4.17578 
        2.21489         44.1641         4.10094 
        2.23063         43.7744         4.02788 
         2.2463         42.9579         3.95691 
        2.26194         42.5381         3.88781 
        2.27765         42.3655         3.81999 
        2.29341         41.5901         3.75361 
        2.30914          41.097         3.68893 
        2.32486         40.5243         3.62579 
        2.34061         40.1364         3.56402 
        2.35635         39.4606         3.50373 
        2.37203         39.0943         3.44503 
        2.38768           38.64         3.38779 
        2.40339         38.3357         3.33163 
        2.41914         37.8787          3.2766 
        2.43483         37.6198           3.223 
         2.4505         37.2947         3.17068 
        2.46622         36.6138         3.11933 
        2.48195         36.3968         3.06911 
        2.49759         35.7886         3.02025 
        2.51328         35.3371         2.97232 
        2.52906         35.0047         2.92512 
        2.54479         34.7352         2.87911 
        2.56049         34.1434         2.83417 
        2.57618         34.0217         2.79022 
        2.59189         33.4781         2.74713 
        2.60758         33.2082         2.70502 
        2.62325         32.7914         2.66382 
        2.63898         32.5264         2.62334 
        2.65468         32.0269         2.58377 
        2.67044         31.5672         2.54485 
        2.68618         31.3277         2.50681 
        2.70184         30.9933         2.46969 
        2.71755         30.6475         2.43323 
        2.73329         30.3546         2.39744 
        2.74897         29.9654         2.36248 
        2.76462         29.6846         2.32829 
        2.78034         29.4736         2.29463 
        2.79607         29.0976         2.26159 
        2.81179         28.7721         2.22924 
        2.82749         28.3519         2.19755 
        2.84321         28.0952         2.16643 
        2.85893         27.8384         2.13593 
        2.87462         27.5247         2.10606 
        2.89033          27.237         2.07672 
        2.90605         26.9306         2.04792 
        2.92176         26.6682         2.01967 
        2.93747         26.4033         1.99197 
        2.95318         26.1038         1.96477 
        2.96891         25.8411         1.93807 
        2.98456          25.571         1.91197 
        3.00023         25.2136         1.88632 
        3.01596         25.0722         1.86105 
        3.03164         24.8069         1.83631 
        3.04738          24.597         1.81195 
         3.0631          24.255         1.78803 
        3.07883          23.993         1.76454 
        3.09456         23.8238         1.74147 
        3.11026         23.5342         1.71885 
        3.12596         23.3018         1.69662 
        3.14163         23.0809         1.67484 
        3.15734         22.8002         1.65339 
        3.17308         22.5911         1.63225 
        3.18879         22.4228         1.61155 
        3.20447         22.1504         1.59122 
         3.2202         21.8692         1.57119 
         3.2359         21.7917         1.55152 
        3.25157         21.4671         1.53224 
        3.26729         21.2502         1.51323 
        3.28304         21.0642          1.4945 
        3.29877         20.9025         1.47611 
        3.31446         20.6178         1.45806 
        3.33014         20.4735         1.44033 
        3.34585         20.1912         1.42287 
        3.36158         20.0517         1.40567 
        3.37727         19.8626          1.3888 
        3.39294         19.6319         1.37222 
        3.40867         19.4371         1.35585 
        3.42439         19.2744         1.33975 
        3.44008         19.1869         1.32395 
        3.45578         18.8663         1.30838 
        3.47153         18.6606         1.29303 
        3.48724         18.5119         1.27795 
        3.50292         18.3552         1.26315 
        3.51859         18.1392         1.24858 
        3.53431         18.0124          1.2342 
        3.55007         17.8132            1.22 
        3.56577         17.6411         1.20609 
        3.58146         17.4651         1.19239 
        3.59719         17.3206         1.17888 
        3.61292         17.1569         1.16557 
        3.62859         16.9251         1.15252 
        3.64429         16.8286         1.13964 
        3.66003         16.6086         1.12692 
        3.67578         16.5214          1.1144 
        3.69146         16.3472         1.10211 
        3.70712         16.1947         1.09002 
        3.72284         16.0638         1.07808 
        3.73853         15.8903         1.06633 
        3.75422         15.7734         1.05475 
        3.76993         15.6069         1.04333 
        3.78564         15.4318         1.03208 
        3.80137         15.3153         1.02098 
        3.81707         15.1558         1.01006 
        3.83279         14.9993        0.999294 
        3.84853         14.8831        0.988665 
        3.86424         14.7244         0.97821 
        3.87992         14.6352         0.96792 
        3.89561         14.4659        0.957777 
        3.91134         14.3669        0.947757 
        3.92704         14.2189        0.937891 
        3.94273         14.1073        0.928173 
        3.95845         13.9485        0.918575 
        3.97418         13.8236        0.909109 
        3.98988         13.6786        0.899788 
        4.00554         13.5778        0.890622 
        4.02125         13.5355        0.881556 
        4.03698         13.3312        0.872601 
        4.05268         13.2106         0.86379 
        4.06839         13.0962        0.855093 
         4.0841         12.9915        0.846517 
        4.09983         12.8731        0.838046 
        4.11555         12.7386        0.829693 
        4.13124         12.6215        0.821476 
        4.14693         12.5345        0.813362 
        4.16266         12.4144        0.805339 
        4.17839         12.2968        0.797427 
        4.19408         12.2151        0.789638 
        4.20977         12.0907         0.78195 
        4.22551         11.9813        0.774344 
        4.24123         11.8891        0.766846 
        4.25691         11.7744        0.759468 
        4.27259         11.6884        0.752183 
        4.28831         11.5787        0.744978 
        4.30404         11.5082         0.73786 
        4.31974         11.4012         0.73085 
        4.33543         11.2934        0.723934 
        4.35116         11.1853         0.71709 
        4.36688          11.099        0.710336 
        4.38255         11.0044        0.703693 
        4.39825         10.9265        0.697121 
        4.41398         10.8353        0.690618 
         4.4297         10.7304        0.684205 
        4.44541         10.6155        0.677874 
        4.46111         10.5495        0.671626 
        4.47683         10.4419        0.665453 
        4.49251          10.379        0.659369 
        4.50819         10.2869        0.653361 
         4.5239         10.1827         0.64742 
        4.53962          10.114        0.641544 
        4.55535         10.0337        0.635737 
        4.57106         9.92862        0.630011 
        4.58678         9.87719        0.624352 
         4.6025         9.74773        0.618762 
        4.61821         9.68994         0.61324 
        4.63391         9.63044        0.607792 
         4.6496         9.55243        0.602412 
        4.66532         9.44247        0.597088 
        4.68103         9.37175        0.591831 
        4.69673         9.30947        0.586641 
        4.71241         9.21874        0.581517 
        4.72811         9.13536        0.576446 
        4.74384         9.05314        0.571429 
        4.75955         9.00484        0.566478 
        4.77525         8.95622        0.561589 
        4.79096         8.85266         0.55675 
        4.80669         8.79014        0.551966 
         4.8224         8.72103        0.547243 
        4.83809         8.64523        0.542579 
        4.85379         8.58321        0.537967 
         4.8695         8.50624        0.533404 
        4.88521         8.43707        0.528895 
        4.90093         8.38085        0.524437 
        4.91663           8.305        0.520035 
        4.93234         8.25929        0.515677 
        4.94807          8.1769        0.511367 
        4.96377         8.12492        0.507113 
        4.97943         8.05565        0.502916 
        4.99514         7.99634        0.498755 
        5.01086         7.93956        0.494638 
        5.02654         7.86085        0.490577 
        5.04227         7.81016         0.48655 
          5.058         7.74265        0.482566 
        5.07371         7.69783        0.478633 
        5.08942         7.61854        0.474744 
        5.10513         7.56426        0.470897 
        5.12084         7.52909         0.46709 
        5.13656         7.45232        0.463326 
        5.15225         7.41113        0.459609 
        5.16796         7.34871        0.455926 
        5.18369         7.28936        0.452281 
         5.1994         7.23997        0.448681 
        5.21509         7.17778        0.445123 
        5.23079         7.11861          0.4416 
        5.24649         7.07378        0.438117 
        5.26217         7.03275        0.434674 
        5.27788         6.97668        0.431262 
        5.29359         6.92146        0.427886 
        5.30933         6.86791        0.424542 
        5.32504         6.81661        0.421238 
        5.34073         6.74583        0.417972 
        5.35646         6.71415        0.414735 
        5.37218         6.66763         0.41153 
        5.38789         6.60493        0.408365 
        5.40357         6.57745        0.405236 
        5.41929         6.51661        0.402133 
        5.43502         6.47573        0.399061 
         5.4507         6.42179        0.396029 
        5.46639         6.37109        0.393027 
        5.48212         6.34084         0.39005 
        5.49786         6.28134        0.387099 
        5.51353         6.24845        0.384193 
        5.52921         6.19075        0.381314 
        5.54495         6.14633        0.378455 
        5.56066         6.10288        0.375629 
        5.57637         6.06468        0.372832 
        5.59207         6.01792        0.370065 
        5.60778         5.97096        0.367326 
        5.62346         5.93541        0.364617 
        5.63916         5.89661        0.361933 
        5.65487         5.84561        0.359275 
         5.6706         5.80606        0.356639 
        5.68633         5.77139        0.354029 
        5.70203           5.739        0.351451 
        5.71773         5.69554        0.348898 
        5.73344         5.64035        0.346369 
        5.74916         5.61668        0.343862 
        5.76486         5.57392        0.341384 
        5.78054         5.53851        0.338933 
        5.79626         5.49718        0.336499 
          5.812         5.44702        0.334087 
         5.8277         5.42346        0.331705 
        5.84339         5.39167        0.329347 
        5.85911         5.34936        0.327006 
        5.87484         5.31967        0.324688 
        5.89053         5.26913        0.322397 
        5.90623         5.23337        0.320128 
        5.92195         5.21307        0.317875 
        5.93767         5.17416        0.315646 
        5.95336         5.13197        0.313441 
        5.96905         5.08737        0.311258 
        5.98476         5.08011        0.309093 
        6.00048         5.02749        0.306947 
        6.01617         4.99325        0.304824 
        6.03185         4.96589        0.302724 
        6.04756         4.93312        0.300639 
        6.06331         4.90292        0.298568 
        6.07903         4.87484        0.296521 
        6.09473         4.84463        0.294495 
        6.11044         4.80415        0.292486 
        6.12616         4.77615        0.290496 
        6.14186         4.74254        0.288526 
        6.15755         4.70716        0.286575 
        6.17326         4.67138         0.28464 
        6.18898         4.65177        0.282721 
        6.20467         4.62048        0.280824 
        6.22036         4.58929        0.278944 
         6.2361         4.55795        0.277076 
         6.2518         4.52491        0.275228 
        6.26748         4.50277          0.2734 
        6.28319         4.46736        0.271584 
        6.29893         4.44809        0.269783 
        6.31463         4.41702        0.268001 
        6.33033         4.38359        0.266236 
        6.34604         4.35949        0.264485 
        6.36177         4.33376        0.262748 
        6.37747         4.30876         0.26103 
