# k  (h/Mpc)    Pcb(k)  (Mpc/h)^3    Pcb_linear(k) (Mpc/h)^3   ShotnoiseSubtracted = true
      0.0200456         34211.5         34816.4 
      0.0350414         23454.9         22414.7 
      0.0492313         15120.3         15461.4 
      0.0637834         11964.4         12601.1 
      0.0800726         8948.43          9463.9 
       0.096163         7093.28         6534.35 
       0.111083         5742.46         5242.05 
       0.126058         4732.01         4642.96 
       0.142273         4075.84         3742.76 
       0.158546          3270.9         2872.13 
        0.17375         2971.95          2467.8 
       0.188953         2853.23         2231.79 
       0.204907         2419.08         1899.44 
       0.220756         2198.45         1575.28 
        0.23588         1956.38         1391.26 
         0.2514         1778.87         1265.45 
       0.267535         1696.27         1114.85 
       0.283568         1525.65         968.067 
       0.299022         1433.79         868.851 
       0.314451         1502.35          795.29 
       0.330372          1349.8         717.871 
       0.346141         1240.39         643.683 
       0.361624         1183.64          585.92 
       0.377134         1147.15         539.425 
       0.392932         1066.39         494.646 
       0.408854         1037.72         451.791 
       0.424564         1011.91         415.681 
       0.440253         950.585         385.068 
       0.455999         902.124         356.833 
       0.471626           911.1         330.698 
        0.48727          856.69         307.318 
       0.502856         845.066         286.791 
       0.518488         803.239         268.008 
       0.534347         784.769         250.347 
       0.550082         752.178         234.392 
       0.565732         729.934         220.044 
       0.581496         714.922         206.817 
       0.597222         702.754         194.608 
       0.612804         680.377         183.451 
       0.628434          656.02         173.183 
       0.644267         637.757         163.589 
       0.660051         628.924         154.737 
       0.675724         615.983         146.586 
       0.691403         590.346         139.011 
       0.707174         577.874         131.925 
       0.722871         580.711         125.358 
        0.73838         553.301         119.305 
       0.754018         547.659         113.603 
       0.769845         535.209          108.21 
        0.78569         524.904          103.16 
       0.801365         510.361         98.4793 
       0.817031         499.657          94.091 
       0.832809          493.96         89.9408 
       0.848511         479.725         86.0581 
       0.864097         472.082           82.43 
       0.879701         473.011         79.0063 
       0.895507         457.785         75.7358 
       0.911279         454.226         72.6562 
        0.92691         443.317         69.7722 
       0.942635          435.13          67.028 
       0.958396         425.675         64.4248 
       0.974128         415.597         61.9638 
       0.989692         410.915         59.6548 
        1.00528         399.683         57.4595 
        1.02113         393.439         55.3397 
        1.03692         388.042         53.3342 
        1.05264         382.055         51.4367 
        1.06832         374.641          49.634 
        1.08405         372.188         47.9125 
        1.09979         362.107         46.2712 
        1.11537         353.255         44.7226 
        1.13105         348.338         43.2352 
        1.14679         344.649         41.8095 
        1.16256         338.911         40.4449 
        1.17828         334.185         39.1454 
        1.19395         328.584          37.907 
         1.2097         321.433         36.7157 
        1.22537          316.12          35.581 
          1.241         310.937         34.4974 
        1.25666         304.963          33.456 
        1.27241         304.007         32.4524 
        1.28819         296.965         31.4881 
        1.30392         294.059         30.5656 
        1.31957         286.623         29.6838 
        1.33529         283.628         28.8335 
        1.35108         281.701         28.0129 
        1.36674         276.688         27.2298 
         1.3824         270.672         26.4773 
        1.39811         266.374         25.7505 
        1.41389         262.904          25.048 
        1.42964         257.753         24.3728 
        1.44531           255.4         23.7256 
        1.46101         248.375         23.1004 
        1.47667         245.695         22.4994 
        1.49229         244.286         21.9213 
        1.50793         237.923         21.3627 
        1.52367         236.776         20.8198 
        1.53953         231.775         20.2921 
        1.55526         227.335         19.7867 
        1.57092         225.214         19.3005 
        1.58662          221.51         18.8294 
        1.60235         218.141          18.373 
        1.61809         214.908         17.9314 
        1.63369         210.423         17.5081 
        1.64941         209.147         17.0954 
        1.66519         205.212         16.6944 
        1.68085         200.867          16.309 
        1.69652         199.815         15.9356 
        1.71228         196.371         15.5717 
        1.72806          193.86         15.2188 
        1.74368         190.055         14.8803 
        1.75933         188.785         14.5514 
        1.77505         185.614         14.2307 
        1.79081          182.39         13.9191 
         1.8065         181.156         13.6181 
        1.82218         176.826         13.3262 
        1.83797         175.216         13.0408 
        1.85367         172.602         12.7653 
        1.86928         169.931         12.4993 
        1.88497          168.48         12.2394 
        1.90073         165.707         11.9859 
        1.91647         163.775         11.7398 
        1.93218         161.201          11.501 
        1.94787         157.968         11.2692 
        1.96363         156.977         11.0428 
        1.97935         153.139          10.823 
        1.99499         152.342         10.6104 
        2.01064         149.916         10.4032 
         2.0264         147.943         10.2001 
        2.04216         146.288         10.0026 
        2.05781         143.496         9.81146 
        2.07353         142.134         9.62462 
        2.08928         140.006          9.4422 
        2.10499          138.51         9.26496 
        2.12065         136.156         9.09276 
        2.13633         134.699         8.92476 
        2.15211         132.551          8.7599 
        2.16785         131.415         8.59962 
        2.18349          129.53         8.44433 
        2.19916         128.841         8.29251 
        2.21489         126.432          8.1439 
        2.23063          124.39          7.9988 
         2.2463         122.784         7.85787 
        2.26194         121.269         7.72065 
        2.27765         119.596         7.58598 
        2.29341         118.163         7.45415 
        2.30914          117.41          7.3257 
        2.32486         115.842         7.20032 
        2.34061         113.736         7.07765 
        2.35635         111.479         6.95792 
        2.37203         111.371         6.84135 
        2.38768         109.158         6.72767 
        2.40339         108.301         6.61615 
        2.41914         106.944         6.50687 
        2.43483          105.05         6.40043 
         2.4505         104.345         6.29653 
        2.46622         102.901         6.19456 
        2.48195         101.099         6.09483 
        2.49759          100.07          5.9978 
        2.51328         98.6933         5.90262 
        2.52906         97.6524         5.80888 
        2.54479          96.837         5.71751 
        2.56049         95.0726         5.62827 
        2.57618         94.3722           5.541 
        2.59189         92.9583         5.45543 
        2.60758         91.9803         5.37179 
        2.62325         90.8045         5.28998 
        2.63898         89.3774         5.20959 
        2.65468         88.1871         5.13102 
        2.67044         87.3698         5.05372 
        2.68618         86.4965         4.97817 
        2.70184         85.5881         4.90446 
        2.71755         84.4157         4.83205 
        2.73329         83.5309         4.76098 
        2.74897         82.1082         4.69155 
        2.76462         81.5827         4.62366 
        2.78034         80.5062         4.55681 
        2.79607         79.5997         4.49121 
        2.81179         78.8628         4.42696 
        2.82749         77.6887         4.36403 
        2.84321         76.9307         4.30224 
        2.85893          75.879         4.24166 
        2.87462         74.8317         4.18234 
        2.89033         74.0921         4.12408 
        2.90605         73.4339         4.06688 
        2.92176          72.531         4.01079 
        2.93747         71.5562         3.95577 
        2.95318         70.9999         3.90176 
        2.96891         69.9957         3.84873 
        2.98456         69.6869         3.79691 
        3.00023         68.6542         3.74596 
        3.01596         67.8793         3.69578 
        3.03164         67.2067         3.64666 
        3.04738         66.3552         3.59827 
         3.0631         65.7097         3.55078 
        3.07883          65.138         3.50413 
        3.09456         64.1049         3.45832 
        3.11026          63.467         3.41339 
        3.12596         62.7905         3.36926 
        3.14163         62.3263           3.326 
        3.15734         61.4538          3.2834 
        3.17308         60.7628         3.24143 
        3.18879         60.2843         3.20031 
        3.20447         59.5352         3.15995 
         3.2202         58.8139         3.12016 
         3.2359         58.5588         3.08111 
        3.25157         57.6447         3.04283 
        3.26729         57.1193         3.00507 
        3.28304         56.6562         2.96787 
        3.29877         55.6115         2.93135 
        3.31446         55.1572         2.89551 
        3.33014         54.6719          2.8603 
        3.34585         54.0983         2.82562 
        3.36158         53.5857         2.79146 
        3.37727           52.96         2.75796 
        3.39294         52.1843         2.72504 
        3.40867         52.0135         2.69253 
        3.42439         51.3886         2.66057 
        3.44008         50.8442         2.62918 
        3.45578         50.2756         2.59827 
        3.47153         49.7587         2.56779 
        3.48724         49.2847         2.53784 
        3.50292         48.7677         2.50844 
        3.51859         48.2763         2.47951 
        3.53431         47.7965         2.45095 
        3.55007         47.3504         2.42276 
        3.56577         46.8715         2.39512 
        3.58146          46.104         2.36793 
        3.59719         45.9951         2.34108 
        3.61292         45.4737         2.31466 
        3.62859         44.9079         2.28875 
        3.64429         44.5558         2.26317 
        3.66003         44.0551         2.23791 
        3.67578         43.6921         2.21304 
        3.69146          43.205         2.18863 
        3.70712         42.8634         2.16464 
        3.72284         42.3234         2.14091 
        3.73853         41.8727         2.11758 
        3.75422         41.5978         2.09458 
        3.76993         41.0941          2.0719 
        3.78564         40.8268         2.04957 
        3.80137         40.4486         2.02752 
        3.81707         39.8714         2.00584 
        3.83279         39.5351         1.98446 
        3.84853         39.1782         1.96335 
        3.86424         38.8067         1.94259 
        3.87992         38.4078         1.92216 
        3.89561         38.0621         1.90201 
        3.91134         37.7632         1.88211 
        3.92704         37.4392         1.86252 
        3.94273         36.9156         1.84322 
        3.95845         36.7111         1.82416 
        3.97418         36.3077         1.80536 
        3.98988         35.9352         1.78685 
        4.00554         35.6905         1.76865 
        4.02125         35.2738         1.75065 
        4.03698         34.9786         1.73286 
        4.05268         34.7469         1.71537 
        4.06839         34.3087          1.6981 
         4.0841         34.0305         1.68107 
        4.09983         33.8388         1.66424 
        4.11555         33.4087         1.64766 
        4.13124          32.997         1.63134 
        4.14693         32.8051         1.61523 
        4.16266         32.5095         1.59929 
        4.17839         32.2091         1.58358 
        4.19408         31.9401         1.56811 
        4.20977          31.708         1.55284 
        4.22551         31.3479         1.53774 
        4.24123         31.1334         1.52285 
        4.25691         30.8578          1.5082 
        4.27259         30.5381         1.49373 
        4.28831         30.1434         1.47942 
        4.30404         29.8822         1.46529 
        4.31974         29.7225         1.45137 
        4.33543         29.4687         1.43763 
        4.35116          29.179         1.42404 
        4.36688         28.9935         1.41063 
        4.38255         28.6717         1.39744 
        4.39825          28.469         1.38439 
        4.41398         28.0929         1.37147 
         4.4297         27.9257         1.35874 
        4.44541         27.7142         1.34616 
        4.46111         27.4232         1.33376 
        4.47683         27.1614          1.3215 
        4.49251         26.9511         1.30941 
        4.50819         26.7131         1.29749 
         4.5239         26.5239         1.28569 
        4.53962         26.2742         1.27402 
        4.55535         26.0748         1.26249 
        4.57106         25.8291         1.25111 
        4.58678         25.5713         1.23988 
         4.6025         25.4349         1.22878 
        4.61821         25.1614         1.21781 
        4.63391         24.9805         1.20699 
         4.6496         24.7378         1.19631 
        4.66532         24.5483         1.18573 
        4.68103         24.3796         1.17529 
        4.69673         24.1611         1.16499 
        4.71241         23.9697         1.15481 
        4.72811         23.8446         1.14474 
        4.74384         23.5529         1.13478 
        4.75955         23.4222         1.12495 
        4.77525         23.1283         1.11524 
        4.79096         22.9959         1.10563 
        4.80669         22.8154         1.09613 
         4.8224         22.6347         1.08675 
        4.83809         22.4161         1.07749 
        4.85379          22.257         1.06833 
         4.8695         22.0527         1.05927 
        4.88521         21.8342         1.05031 
        4.90093         21.6524         1.04146 
        4.91663         21.5601         1.03272 
        4.93234         21.3085         1.02406 
        4.94807         21.1619          1.0155 
        4.96377         20.9803         1.00706 
        4.97943         20.9121        0.998721 
        4.99514         20.6794        0.990459 
        5.01086         20.4798        0.982283 
        5.02654         20.3357        0.974219 
        5.04227         20.1938        0.966221 
          5.058         20.0404        0.958309 
        5.07371         19.8566        0.950499 
        5.08942         19.6827        0.942775 
        5.10513         19.5465        0.935135 
        5.12084         19.3923        0.927576 
        5.13656         19.1927          0.9201 
        5.15225         19.0759        0.912719 
        5.16796         18.9544        0.905407 
        5.18369         18.8181        0.898167 
         5.1994         18.6151        0.891018 
        5.21509         18.4903        0.883954 
        5.23079          18.322        0.876956 
        5.24649         18.2022         0.87004 
        5.26217         18.0628        0.863202 
        5.27788         17.9181        0.856427 
        5.29359         17.7818        0.849723 
        5.30933          17.629        0.843081 
        5.32504         17.5018         0.83652 
        5.34073         17.3465        0.830035 
        5.35646         17.2669        0.823606 
        5.37218         17.1273        0.817243 
        5.38789         16.9976        0.810956 
        5.40357         16.9016        0.804743 
        5.41929         16.7547         0.79858 
        5.43502         16.6026         0.79248 
         5.4507          16.495        0.786459 
        5.46639          16.359        0.780498 
        5.48212         16.2095        0.774585 
        5.49786         16.1267        0.768725 
        5.51353         15.9775        0.762954 
        5.52921         15.8526        0.757237 
        5.54495          15.725         0.75156 
        5.56066         15.6063        0.745948 
        5.57637         15.5152        0.740393 
        5.59207         15.4111        0.734899 
        5.60778         15.2983        0.729458 
        5.62346         15.1577        0.724079 
        5.63916         15.0624        0.718749 
        5.65487         14.9424         0.71347 
         5.6706         14.8616        0.708236 
        5.68633         14.7302        0.703053 
        5.70203         14.6286        0.697932 
        5.71773         14.5018        0.692863 
        5.73344          14.391         0.68784 
        5.74916         14.3102        0.682863 
        5.76486         14.2194         0.67794 
        5.78054         14.0793        0.673074 
        5.79626          14.003        0.668241 
          5.812          13.901        0.663451 
         5.8277         13.8043        0.658721 
        5.84339         13.6784        0.654037 
        5.85911         13.5779        0.649389 
        5.87484         13.4757        0.644786 
        5.89053         13.4056        0.640237 
        5.90623         13.2938        0.635729 
        5.92195         13.2324        0.631256 
        5.93767         13.1004        0.626829 
        5.95336         13.0121        0.622451 
        5.96905         12.9363        0.618116 
        5.98476          12.828        0.613816 
        6.00048         12.7383        0.609555 
        6.01617         12.6571        0.605339 
        6.03185         12.5728        0.601169 
        6.04756         12.4621        0.597027 
        6.06331         12.3674        0.592915 
        6.07903         12.2921         0.58885 
        6.09473         12.2099        0.584827 
        6.11044         12.1232        0.580837 
        6.12616         12.0463        0.576885 
        6.14186         11.9712        0.572973 
        6.15755           11.87        0.569098 
        6.17326         11.7949        0.565255 
        6.18898         11.7028        0.561445 
        6.20467         11.6291        0.557677 
        6.22036         11.5616        0.553943 
         6.2361         11.4587        0.550234 
         6.2518         11.3982        0.546564 
        6.26748         11.3228        0.542935 
        6.28319         11.2397        0.539329 
        6.29893         11.1512        0.535752 
        6.31463         11.0715        0.532214 
        6.33033         11.0063        0.528708 
        6.34604         10.9341        0.525231 
        6.36177         10.8561        0.521782 
        6.37747         10.7889         0.51837 
