# k  (h/Mpc)    Pcb(k)  (Mpc/h)^3    Pcb_linear(k) (Mpc/h)^3   ShotnoiseSubtracted = true
      0.0200456         4448.18         4498.51 
      0.0350414         2969.23         2896.14 
      0.0492313         2001.59         1997.71 
      0.0637834         1596.77         1628.14 
      0.0800726          1198.6          1222.8 
       0.096163         873.694         844.282 
       0.111083          704.85         677.309 
       0.126058         597.492         599.901 
       0.142273         486.339          483.59 
       0.158546         384.738         371.098 
        0.17375         334.534         318.856 
       0.188953         302.529         288.362 
       0.204907         250.022         245.421 
       0.220756         217.573         203.536 
        0.23588         192.247          179.76 
         0.2514         172.778         163.504 
       0.267535         158.926         144.047 
       0.283568         137.234         125.081 
       0.299022         127.078         112.261 
       0.314451         120.735         102.757 
       0.330372         105.557         92.7537 
       0.346141         96.0219         83.1682 
       0.361624         88.7211         75.7048 
       0.377134         80.9241         69.6973 
       0.392932         77.7262         63.9115 
       0.408854         71.6353         58.3744 
       0.424564         67.8805         53.7088 
       0.440253         61.6897         49.7533 
       0.455999          56.213         46.1052 
       0.471626         53.5667         42.7285 
        0.48727         51.6525         39.7075 
       0.502856         47.7258         37.0553 
       0.518488           45.22         34.6285 
       0.534347         42.4388         32.3466 
       0.550082         40.8071          30.285 
       0.565732         39.2228         28.4312 
       0.581496         36.2977         26.7222 
       0.597222         34.6592         25.1447 
       0.612804         32.9889         23.7032 
       0.628434         32.3305         22.3764 
       0.644267         30.4595         21.1368 
       0.660051          29.036         19.9931 
       0.675724         27.7453         18.9398 
       0.691403         27.1202         17.9611 
       0.707174         25.9641         17.0456 
       0.722871         25.1215         16.1971 
        0.73838          23.849          15.415 
       0.754018         22.4638         14.6783 
       0.769845         22.0539         13.9814 
        0.78569         21.2585         13.3289 
       0.801365         20.4854         12.7242 
       0.817031         19.6062         12.1572 
       0.832809         19.1269          11.621 
       0.848511         18.4549         11.1193 
       0.864097          17.905         10.6505 
       0.879701         17.5539         10.2082 
       0.895507          16.833         9.78558 
       0.911279         16.1806         9.38766 
        0.92691         15.8829         9.01504 
       0.942635         15.4518         8.66047 
       0.958396         14.9842         8.32412 
       0.974128         14.5652         8.00614 
       0.989692         13.8802         7.70781 
        1.00528         13.7449         7.42415 
        1.02113         13.2934         7.15026 
        1.03692         13.0036         6.89113 
        1.05264         12.7084         6.64597 
        1.06832         12.4254         6.41305 
        1.08405         12.0417         6.19061 
        1.09979         11.7911         5.97854 
        1.11537         11.4039         5.77845 
        1.13105         11.2392         5.58628 
        1.14679         10.9332         5.40207 
        1.16256          10.728         5.22575 
        1.17828         10.4948         5.05785 
        1.19395         10.2913         4.89784 
         1.2097         10.0213         4.74391 
        1.22537         9.81477          4.5973 
          1.241         9.54786         4.45729 
        1.25666         9.43331         4.32274 
        1.27241          9.2663         4.19307 
        1.28819         8.87097         4.06848 
        1.30392         8.91287         3.94928 
        1.31957         8.62915         3.83535 
        1.33529         8.51037         3.72548 
        1.35108         8.35365         3.61945 
        1.36674         8.14927         3.51828 
         1.3824         7.98823         3.42104 
        1.39811         7.86243         3.32714 
        1.41389         7.72331         3.23637 
        1.42964          7.5908         3.14913 
        1.44531         7.44925         3.06551 
        1.46101         7.35836         2.98472 
        1.47667         7.20253         2.90707 
        1.49229         6.99983         2.83238 
        1.50793         6.93934          2.7602 
        1.52367          6.8347         2.69006 
        1.53953         6.71772         2.62187 
        1.55526         6.57275         2.55657 
        1.57092         6.51348         2.49376 
        1.58662         6.38924         2.43289 
        1.60235          6.3146         2.37392 
        1.61809         6.20105         2.31686 
        1.63369          6.0937         2.26217 
        1.64941         5.97961         2.20884 
        1.66519         5.92359         2.15703 
        1.68085         5.79211         2.10724 
        1.69652         5.75477         2.05899 
        1.71228         5.67381         2.01197 
        1.72806         5.57766         1.96637 
        1.74368         5.49947         1.92264 
        1.75933         5.41063         1.88013 
        1.77505         5.32201         1.83871 
        1.79081         5.25585         1.79845 
         1.8065         5.21225         1.75955 
        1.82218         5.14827         1.72184 
        1.83797         5.04405         1.68496 
        1.85367         4.98863         1.64936 
        1.86928         4.90708           1.615 
        1.88497         4.86476         1.58142 
        1.90073         4.77881         1.54866 
        1.91647         4.67096         1.51686 
        1.93218         4.65177         1.48601 
        1.94787         4.58519         1.45605 
        1.96363         4.53663          1.4268 
        1.97935         4.49372          1.3984 
        1.99499         4.42925         1.37093 
        2.01064         4.36637         1.34416 
         2.0264         4.32507         1.31793 
        2.04216         4.28578          1.2924 
        2.05781         4.22777         1.26771 
        2.07353         4.15987         1.24357 
        2.08928         4.11186            1.22 
        2.10499         4.06634         1.19709 
        2.12065         4.04085         1.17485 
        2.13633         3.98055         1.15314 
        2.15211         3.93775         1.13184 
        2.16785         3.87514         1.11113 
        2.18349         3.86343         1.09106 
        2.19916         3.81126         1.07145 
        2.21489         3.77541         1.05225 
        2.23063         3.72312          1.0335 
         2.2463         3.66997         1.01529 
        2.26194         3.62849         0.99756 
        2.27765         3.58566        0.980159 
        2.29341         3.54154        0.963126 
        2.30914         3.52282        0.946529 
        2.32486         3.47064         0.93033 
        2.34061         3.45656        0.914479 
        2.35635          3.4129         0.89901 
        2.37203         3.38201        0.883948 
        2.38768         3.34748        0.869261 
        2.40339         3.29847        0.854851 
        2.41914         3.27946        0.840732 
        2.43483         3.24902        0.826979 
         2.4505         3.19686        0.813554 
        2.46622         3.17209        0.800379 
        2.48195         3.15988        0.787492 
        2.49759         3.10686        0.774956 
        2.51328         3.08491        0.762658 
        2.52906         3.04459        0.750546 
        2.54479         3.02452        0.738741 
        2.56049         2.99219        0.727211 
        2.57618         2.96942        0.715934 
        2.59189         2.95953        0.704878 
        2.60758         2.91804        0.694071 
        2.62325         2.86732        0.683501 
        2.63898         2.86936        0.673114 
        2.65468         2.83289        0.662962 
        2.67044         2.81759        0.652974 
        2.68618         2.78209        0.643213 
        2.70184         2.76802         0.63369 
        2.71755         2.73267        0.624334 
        2.73329         2.70606         0.61515 
        2.74897          2.6846         0.60618 
        2.76462         2.66629        0.597407 
        2.78034         2.64105        0.588771 
        2.79607         2.61518        0.580294 
        2.81179         2.59489        0.571993 
        2.82749         2.56531        0.563862 
        2.84321         2.55309        0.555878 
        2.85893         2.51952        0.548051 
        2.87462         2.51255        0.540386 
        2.89033         2.49002        0.532859 
        2.90605         2.46372        0.525469 
        2.92176         2.43543        0.518221 
        2.93747         2.42674        0.511112 
        2.95318         2.40398        0.504134 
        2.96891         2.38207        0.497282 
        2.98456         2.36584        0.490586 
        3.00023         2.35214        0.484003 
        3.01596         2.32327         0.47752 
        3.03164         2.30811        0.471172 
        3.04738         2.29476        0.464921 
         3.0631         2.27764        0.458784 
        3.07883         2.25731        0.452757 
        3.09456         2.22956        0.446838 
        3.11026         2.22208        0.441033 
        3.12596         2.20974        0.435331 
        3.14163         2.18181        0.429742 
        3.15734          2.1665        0.424237 
        3.17308         2.15464        0.418815 
        3.18879         2.13934        0.413501 
        3.20447         2.12724        0.408287 
         3.2202         2.10304        0.403145 
         3.2359         2.09194        0.398101 
        3.25157          2.0776        0.393154 
        3.26729         2.05906        0.388275 
        3.28304         2.03791        0.383469 
        3.29877         2.02952         0.37875 
        3.31446         2.01491         0.37412 
        3.33014         1.99858        0.369571 
        3.34585         1.98945        0.365089 
        3.36158         1.97025        0.360675 
        3.37727         1.95664        0.356347 
        3.39294         1.94719        0.352093 
        3.40867         1.93339        0.347893 
        3.42439         1.91806        0.343763 
        3.44008         1.90352        0.339708 
        3.45578         1.88816        0.335714 
        3.47153         1.87758        0.331775 
        3.48724         1.86534        0.327906 
        3.50292         1.85441        0.324107 
        3.51859         1.83811         0.32037 
        3.53431         1.82385        0.316679 
        3.55007         1.81362        0.313037 
        3.56577         1.80178        0.309466 
        3.58146         1.79331        0.305952 
        3.59719         1.78748        0.302484 
        3.61292         1.76554         0.29907 
        3.62859         1.75625        0.295721 
        3.64429         1.74405        0.292417 
        3.66003         1.73367        0.289153 
        3.67578         1.72699        0.285939 
        3.69146         1.71027        0.282786 
        3.70712         1.70534        0.279686 
        3.72284          1.6887         0.27662 
        3.73853         1.67877        0.273605 
        3.75422         1.66605        0.270634 
        3.76993         1.65345        0.267704 
        3.78564         1.64327        0.264818 
        3.80137         1.63231        0.261969 
        3.81707          1.6252        0.259168 
        3.83279         1.61183        0.256405 
        3.84853         1.60051        0.253678 
        3.86424         1.58973        0.250996 
        3.87992         1.58437        0.248355 
        3.89561         1.57289        0.245753 
        3.91134         1.56104        0.243182 
        3.92704         1.55105         0.24065 
        3.94273         1.54069        0.238157 
        3.95845         1.53278        0.235694 
        3.97418         1.52224        0.233265 
        3.98988         1.51134        0.230874 
        4.00554         1.50194        0.228522 
        4.02125         1.49164        0.226195 
        4.03698         1.48198        0.223898 
        4.05268         1.47286        0.221637 
        4.06839          1.4634        0.219405 
         4.0841         1.45382        0.217205 
        4.09983         1.44237        0.215031 
        4.11555         1.43395        0.212888 
        4.13124          1.4277         0.21078 
        4.14693         1.41675        0.208698 
        4.16266         1.40809        0.206639 
        4.17839         1.39851        0.204609 
        4.19408         1.38537        0.202611 
        4.20977         1.38141        0.200638 
        4.22551         1.36983        0.198686 
        4.24123         1.36498        0.196763 
        4.25691         1.35552        0.194869 
        4.27259         1.34615           0.193 
        4.28831         1.33559        0.191151 
        4.30404         1.32897        0.189325 
        4.31974         1.32392        0.187526 
        4.33543         1.31295        0.185752 
        4.35116          1.3042        0.183996 
        4.36688         1.29814        0.182263 
        4.38255         1.29245        0.180558 
        4.39825         1.28292        0.178872 
        4.41398         1.27818        0.177203 
         4.4297         1.26909        0.175558 
        4.44541         1.25923        0.173933 
        4.46111         1.25618         0.17233 
        4.47683          1.2465        0.170746 
        4.49251         1.23901        0.169185 
        4.50819         1.23522        0.167644 
         4.5239          1.2288        0.166119 
        4.53962         1.22253        0.164612 
        4.55535         1.21389        0.163122 
        4.57106         1.20699        0.161652 
        4.58678         1.20115        0.160201 
         4.6025          1.1946        0.158766 
        4.61821          1.1901        0.157349 
        4.63391           1.186        0.155951 
         4.6496         1.17514        0.154571 
        4.66532         1.17255        0.153205 
        4.68103         1.16778        0.151856 
        4.69673         1.15976        0.150524 
        4.71241         1.15424         0.14921 
        4.72811          1.1528        0.147908 
        4.74384         1.14456        0.146621 
        4.75955         1.14128        0.145351 
        4.77525         1.13449        0.144096 
        4.79096          1.1292        0.142855 
        4.80669         1.12425        0.141627 
         4.8224          1.1154        0.140415 
        4.83809         1.11458        0.139219 
        4.85379         1.11164        0.138035 
         4.8695         1.10683        0.136864 
        4.88521         1.09961        0.135707 
        4.90093         1.09556        0.134564 
        4.91663         1.09178        0.133434 
        4.93234         1.08854        0.132316 
        4.94807         1.08339         0.13121 
        4.96377         1.07791        0.130118 
        4.97943         1.07544        0.129042 
        4.99514         1.07088        0.127974 
        5.01086         1.06548        0.126918 
        5.02654          1.0615        0.125876 
        5.04227         1.05592        0.124842 
          5.058         1.05267         0.12382 
        5.07371         1.05101        0.122811 
        5.08942         1.04869        0.121813 
        5.10513         1.04421        0.120826 
        5.12084          1.0374        0.119849 
        5.13656           1.035        0.118883 
        5.15225         1.03248        0.117929 
        5.16796         1.02933        0.116985 
        5.18369          1.0252        0.116049 
         5.1994         1.02275        0.115126 
        5.21509         1.01763        0.114213 
        5.23079         1.01455        0.113309 
        5.24649         1.01361        0.112415 
        5.26217         1.00822        0.111531 
        5.27788         1.00286        0.110656 
        5.29359         1.00247         0.10979 
        5.30933        0.997883        0.108932 
        5.32504        0.996439        0.108084 
        5.34073        0.991237        0.107246 
        5.35646        0.988788        0.106415 
        5.37218        0.987969        0.105593 
        5.38789        0.984015        0.104781 
        5.40357        0.979221        0.103978 
        5.41929        0.976429        0.103182 
        5.43502        0.975078        0.102394 
         5.4507        0.970423        0.101616 
        5.46639        0.967636        0.100846 
        5.48212        0.966565        0.100082 
        5.49786        0.962285       0.0993244 
        5.51353        0.960332       0.0985788 
        5.52921        0.959545         0.09784 
        5.54495        0.958259       0.0971066 
        5.56066        0.954699       0.0963814 
        5.57637        0.949136       0.0956637 
        5.59207        0.946689       0.0949538 
        5.60778        0.946311       0.0942508 
        5.62346        0.943905       0.0935559 
        5.63916        0.941251       0.0928672 
        5.65487        0.937817       0.0921851 
         5.6706         0.93652       0.0915089 
        5.68633        0.934058       0.0908392 
        5.70203        0.929686       0.0901775 
        5.71773        0.930211       0.0895225 
        5.73344         0.92804       0.0888736 
        5.74916        0.925757       0.0882304 
        5.76486        0.923472       0.0875945 
        5.78054        0.920958       0.0869657 
        5.79626         0.91938       0.0863413 
          5.812        0.915811       0.0857223 
         5.8277         0.91531       0.0851112 
        5.84339        0.912107       0.0845059 
        5.85911        0.910935       0.0839054 
        5.87484        0.907412       0.0833107 
        5.89053        0.906613       0.0827229 
        5.90623        0.905188       0.0821405 
        5.92195        0.902796       0.0815626 
        5.93767        0.898271       0.0809905 
        5.95336        0.899559       0.0804248 
        5.96905        0.895836       0.0798647 
        5.98476        0.894221       0.0793091 
        6.00048        0.891725       0.0787585 
        6.01617        0.890952       0.0782139 
        6.03185        0.889285        0.077675 
        6.04756        0.887287       0.0771399 
        6.06331        0.885045       0.0766086 
        6.07903        0.883431       0.0760834 
        6.09473        0.884048       0.0755636 
        6.11044        0.879616       0.0750481 
        6.12616        0.875646       0.0745374 
        6.14186        0.877154        0.074032 
        6.15755        0.873621       0.0735313 
        6.17326        0.873433       0.0730347 
        6.18898        0.872559       0.0725425 
        6.20467        0.869145       0.0720556 
        6.22036        0.868354       0.0715732 
         6.2361        0.863793       0.0710939 
         6.2518        0.864814       0.0706197 
        6.26748        0.860045       0.0701508 
        6.28319        0.861097       0.0696849 
        6.29893        0.860851       0.0692228 
        6.31463        0.856739       0.0687656 
        6.33033        0.855062       0.0683126 
        6.34604        0.852097       0.0678634 
        6.36177        0.851433       0.0674177 
        6.37747        0.849738       0.0669768 
