# k  (h/Mpc)    Pcb(k)  (Mpc/h)^3    Pcb_linear(k) (Mpc/h)^3   ShotnoiseSubtracted = true
      0.0200456         5128.34         5197.76 
      0.0350414         3306.08         3346.31 
      0.0492313         2312.61         2308.24 
      0.0637834         1913.71         1881.22 
      0.0800726         1442.86         1412.87 
       0.096163         972.009         975.516 
       0.111083         774.574         782.589 
       0.126058         703.295          693.15 
       0.142273         580.579         558.759 
       0.158546         456.991         428.782 
        0.17375          376.02         368.419 
       0.188953         352.805         333.185 
       0.204907         317.784         283.569 
       0.220756         261.187         235.174 
        0.23588          229.24         207.701 
         0.2514         202.953         188.919 
       0.267535         186.572         166.437 
       0.283568         165.935         144.523 
       0.299022         151.893         129.711 
       0.314451         136.867         118.729 
       0.330372         125.983         107.171 
       0.346141         112.362         96.0958 
       0.361624         105.595         87.4723 
       0.377134         98.8068          80.531 
       0.392932         88.1195         73.8459 
       0.408854          84.195         67.4481 
       0.424564          79.824         62.0572 
       0.440253         74.0141         57.4869 
       0.455999         69.0178         53.2718 
       0.471626          64.055         49.3701 
        0.48727         61.2553         45.8796 
       0.502856         57.9285         42.8151 
       0.518488          55.355         40.0111 
       0.534347         53.0535         37.3745 
       0.550082         48.3638         34.9925 
       0.565732         45.5917         32.8505 
       0.581496         44.1142         30.8758 
       0.597222         42.4923         29.0532 
       0.612804          39.828         27.3876 
       0.628434         38.5423         25.8546 
       0.644267         37.2909         24.4223 
       0.660051         35.6536         23.1008 
       0.675724         33.8198         21.8838 
       0.691403         32.7076          20.753 
       0.707174          31.535         19.6952 
       0.722871         30.3866         18.7148 
        0.73838         29.3096         17.8111 
       0.754018         27.9164         16.9599 
       0.769845         27.1104         16.1547 
        0.78569         26.2927         15.4007 
       0.801365         25.2138          14.702 
       0.817031         24.5652         14.0469 
       0.832809         24.0499         13.4273 
       0.848511         22.6128         12.8477 
       0.864097         22.1871          12.306 
       0.879701         21.5958         11.7949 
       0.895507         21.0913         11.3066 
       0.911279         20.3344         10.8469 
        0.92691         19.8807         10.4163 
       0.942635         19.0363         10.0067 
       0.958396         18.7483         9.61802 
       0.974128         18.1252         9.25061 
       0.989692         17.8558          8.9059 
        1.00528          17.419         8.57816 
        1.02113         16.7166          8.2617 
        1.03692         16.2989         7.96229 
        1.05264         16.0987         7.67901 
        1.06832         15.5266         7.40988 
        1.08405         15.1807         7.15288 
        1.09979         14.8372         6.90784 
        1.11537         14.5181         6.67665 
        1.13105         14.2923         6.45461 
        1.14679         14.0419         6.24176 
        1.16256         13.4868         6.03804 
        1.17828         13.3877         5.84403 
        1.19395         12.9789         5.65916 
         1.2097         12.8502          5.4813 
        1.22537         12.5253          5.3119 
          1.241          12.242         5.15013 
        1.25666         11.9283         4.99466 
        1.27241          11.681         4.84484 
        1.28819         11.4396         4.70088 
        1.30392         11.3171         4.56315 
        1.31957         11.1395         4.43151 
        1.33529         10.9287         4.30456 
        1.35108         10.6738         4.18205 
        1.36674         10.5272         4.06515 
         1.3824         10.2606         3.95281 
        1.39811         10.1135          3.8443 
        1.41389         9.97378         3.73943 
        1.42964         9.78568         3.63863 
        1.44531         9.69343         3.54201 
        1.46101         9.40232         3.44867 
        1.47667         9.29185         3.35895 
        1.49229           9.156         3.27264 
        1.50793         9.02107         3.18924 
        1.52367         8.85086          3.1082 
        1.53953          8.7312         3.02941 
        1.55526         8.58761         2.95397 
        1.57092         8.40543         2.88138 
        1.58662         8.35425         2.81105 
        1.60235         8.19568         2.74292 
        1.61809         8.08306         2.67699 
        1.63369         7.96461          2.6138 
        1.64941         7.80898         2.55218 
        1.66519         7.75417         2.49232 
        1.68085         7.61292         2.43479 
        1.69652         7.50081         2.37904 
        1.71228         7.39516         2.32471 
        1.72806         7.31357         2.27203 
        1.74368         7.17689         2.22149 
        1.75933         7.11169         2.17238 
        1.77505         7.02143         2.12451 
        1.79081         6.89299         2.07799 
         1.8065         6.84481         2.03306 
        1.82218         6.69986         1.98948 
        1.83797         6.63065         1.94687 
        1.85367         6.54364         1.90574 
        1.86928         6.51511         1.86603 
        1.88497         6.36739         1.82723 
        1.90073         6.34436         1.78939 
        1.91647         6.24397         1.75264 
        1.93218         6.19855         1.71699 
        1.94787         6.09576         1.68238 
        1.96363         6.03608         1.64858 
        1.97935         5.92012         1.61577 
        1.99499         5.83756         1.58403 
        2.01064          5.7983         1.55309 
         2.0264         5.74077         1.52278 
        2.04216         5.66146         1.49329 
        2.05781         5.57165         1.46476 
        2.07353         5.55153         1.43686 
        2.08928         5.46595         1.40963 
        2.10499         5.42527         1.38317 
        2.12065         5.33768         1.35746 
        2.13633         5.31773         1.33238 
        2.15211         5.23145         1.30777 
        2.16785          5.1827         1.28384 
        2.18349         5.13178         1.26066 
        2.19916         5.07264         1.23799 
        2.21489          5.0176         1.21581 
        2.23063           4.956         1.19415 
         2.2463         4.90224          1.1731 
        2.26194         4.84224         1.15262 
        2.27765         4.82072         1.13251 
        2.29341         4.76163         1.11283 
        2.30914         4.68601         1.09366 
        2.32486         4.64427         1.07494 
        2.34061         4.60831         1.05663 
        2.35635         4.57128         1.03875 
        2.37203         4.53005         1.02135 
        2.38768         4.44537         1.00438 
        2.40339         4.43579        0.987728 
        2.41914         4.36925        0.971414 
        2.43483         4.35111        0.955524 
         2.4505         4.30648        0.940012 
        2.46622         4.25927        0.924789 
        2.48195         4.21062          0.9099 
        2.49759         4.17666        0.895414 
        2.51328         4.14349        0.881205 
        2.52906         4.11373        0.867211 
        2.54479         4.06175         0.85357 
        2.56049         4.03617        0.840248 
        2.57618         3.99971        0.827218 
        2.59189         3.94573        0.814444 
        2.60758         3.93057        0.801957 
        2.62325         3.87477        0.789744 
        2.63898         3.83491        0.777742 
        2.65468         3.78796        0.766012 
        2.67044         3.77319        0.754472 
        2.68618         3.74577        0.743194 
        2.70184         3.70338         0.73219 
        2.71755         3.67231        0.721379 
        2.73329          3.6441        0.710769 
        2.74897         3.62424        0.700404 
        2.76462         3.59232        0.690268 
        2.78034         3.53657        0.680289 
        2.79607         3.51539        0.670494 
        2.81179          3.4896        0.660903 
        2.82749         3.45572        0.651508 
        2.84321         3.44129        0.642284 
        2.85893          3.4122        0.633239 
        2.87462         3.36716        0.624383 
        2.89033         3.34776        0.615687 
        2.90605         3.31344        0.607147 
        2.92176         3.28455        0.598772 
        2.93747         3.26307        0.590559 
        2.95318         3.23682        0.582496 
        2.96891         3.21173        0.574579 
        2.98456         3.17688        0.566843 
        3.00023         3.14927        0.559236 
        3.01596         3.12984        0.551745 
        3.03164         3.12165        0.544411 
        3.04738         3.08824        0.537188 
         3.0631         3.05562        0.530097 
        3.07883         3.03682        0.523133 
        3.09456          3.0129        0.516294 
        3.11026         2.99136        0.509587 
        3.12596         2.96907        0.502998 
        3.14163           2.937         0.49654 
        3.15734         2.92134         0.49018 
        3.17308         2.89457        0.483915 
        3.18879         2.87629        0.477775 
        3.20447         2.86199         0.47175 
         3.2202         2.82101         0.46581 
         3.2359         2.81282        0.459981 
        3.25157         2.79413        0.454265 
        3.26729          2.7778        0.448628 
        3.28304         2.75564        0.443075 
        3.29877         2.72939        0.437622 
        3.31446         2.71456        0.432273 
        3.33014         2.69445        0.427016 
        3.34585         2.67979        0.421838 
        3.36158         2.64721        0.416738 
        3.37727         2.63488        0.411737 
        3.39294         2.62446        0.406822 
        3.40867         2.59686        0.401969 
        3.42439         2.58638        0.397197 
        3.44008         2.55979        0.392512 
        3.45578         2.54128        0.387897 
        3.47153         2.52568        0.383346 
        3.48724         2.50498        0.378876 
        3.50292         2.49377        0.374486 
        3.51859         2.47505        0.370168 
        3.53431         2.45656        0.365903 
        3.55007            2.44        0.361695 
        3.56577         2.42216        0.357569 
        3.58146         2.41573        0.353509 
        3.59719         2.40323        0.349501 
        3.61292         2.37909        0.345557 
        3.62859         2.35771        0.341688 
        3.64429         2.34456         0.33787 
        3.66003         2.32644        0.334099 
        3.67578         2.31649        0.330385 
        3.69146         2.29248        0.326742 
        3.70712         2.28684         0.32316 
        3.72284         2.26906        0.319618 
        3.73853         2.24952        0.316134 
        3.75422         2.23719        0.312701 
        3.76993         2.22381        0.309315 
        3.78564         2.21087        0.305981 
        3.80137         2.19864        0.302689 
        3.81707         2.18012        0.299453 
        3.83279         2.16373        0.296261 
        3.84853         2.15016         0.29311 
        3.86424         2.13645         0.29001 
        3.87992         2.12374         0.28696 
        3.89561         2.11736        0.283952 
        3.91134         2.09713        0.280982 
        3.92704         2.08654        0.278057 
        3.94273         2.06999        0.275176 
        3.95845         2.05522         0.27233 
        3.97418         2.04472        0.269524 
        3.98988         2.03157         0.26676 
        4.00554         2.01155        0.264043 
        4.02125         2.00086        0.261355 
        4.03698         1.99115          0.2587 
        4.05268         1.97117        0.256088 
        4.06839         1.96465         0.25351 
         4.0841         1.95143        0.250967 
        4.09983          1.9347        0.248456 
        4.11555          1.9259        0.245979 
        4.13124         1.91309        0.243543 
        4.14693         1.89789        0.241138 
        4.16266         1.88404        0.238759 
        4.17839          1.8717        0.236413 
        4.19408         1.85948        0.234104 
        4.20977         1.84627        0.231825 
        4.22551         1.83459         0.22957 
        4.24123         1.82332        0.227347 
        4.25691         1.81198         0.22516 
        4.27259         1.80613           0.223 
        4.28831         1.79239        0.220864 
        4.30404         1.78061        0.218754 
        4.31974         1.76805        0.216675 
        4.33543         1.76106        0.214625 
        4.35116           1.744        0.212596 
        4.36688         1.74271        0.210593 
        4.38255         1.73056        0.208624 
        4.39825         1.71439        0.206676 
        4.41398         1.71152        0.204748 
         4.4297         1.69684        0.202846 
        4.44541         1.68575        0.200969 
        4.46111         1.67573        0.199117 
        4.47683         1.66229        0.197287 
        4.49251         1.66052        0.195483 
        4.50819         1.65009        0.193702 
         4.5239         1.63802        0.191941 
        4.53962         1.63214        0.190199 
        4.55535         1.62175        0.188477 
        4.57106         1.61824        0.186779 
        4.58678          1.6076        0.185102 
         4.6025         1.59844        0.183444 
        4.61821         1.58676        0.181807 
        4.63391         1.57859        0.180192 
         4.6496         1.57075        0.178597 
        4.66532         1.56009        0.177019 
        4.68103         1.55409         0.17546 
        4.69673         1.54772        0.173921 
        4.71241         1.53675        0.172403 
        4.72811         1.52917        0.170899 
        4.74384         1.52219        0.169412 
        4.75955         1.51628        0.167944 
        4.77525         1.50949        0.166494 
        4.79096         1.49872         0.16506 
        4.80669         1.49045        0.163641 
         4.8224         1.48723        0.162241 
        4.83809          1.4777        0.160859 
        4.85379         1.47086        0.159491 
         4.8695          1.4641        0.158138 
        4.88521         1.45422        0.156802 
        4.90093         1.44993         0.15548 
        4.91663         1.44509        0.154175 
        4.93234         1.43526        0.152883 
        4.94807         1.43103        0.151605 
        4.96377         1.42392        0.150344 
        4.97943          1.4159          0.1491 
        4.99514         1.41005        0.147866 
        5.01086         1.40255        0.146645 
        5.02654         1.39339        0.145442 
        5.04227         1.39305        0.144248 
          5.058         1.38387        0.143066 
        5.07371         1.37855        0.141901 
        5.08942         1.37282        0.140747 
        5.10513         1.36665        0.139607 
        5.12084         1.36162        0.138478 
        5.13656         1.35473        0.137362 
        5.15225         1.34719         0.13626 
        5.16796         1.34333        0.135169 
        5.18369         1.33729        0.134088 
         5.1994         1.33385        0.133021 
        5.21509         1.32617        0.131966 
        5.23079          1.3225        0.130921 
        5.24649         1.31631        0.129889 
        5.26217         1.30974        0.128868 
        5.27788         1.30364        0.127856 
        5.29359         1.30154        0.126856 
        5.30933         1.29913        0.125864 
        5.32504         1.28908        0.124884 
        5.34073          1.2863        0.123916 
        5.35646         1.28008        0.122957 
        5.37218         1.27294        0.122007 
        5.38789         1.27144        0.121068 
        5.40357         1.26626         0.12014 
        5.41929         1.26052         0.11922 
        5.43502         1.25553         0.11831 
         5.4507         1.25271        0.117411 
        5.46639         1.24862        0.116521 
        5.48212         1.24134        0.115638 
        5.49786          1.2408        0.114763 
        5.51353         1.23315        0.113902 
        5.52921         1.22779        0.113048 
        5.54495         1.22428        0.112201 
        5.56066         1.21964        0.111363 
        5.57637          1.2148        0.110534 
        5.59207         1.21081        0.109713 
        5.60778         1.20622        0.108901 
        5.62346         1.20356        0.108098 
        5.63916         1.19685        0.107302 
        5.65487         1.19385        0.106514 
         5.6706         1.18904        0.105733 
        5.68633         1.18746        0.104959 
        5.70203         1.18016        0.104195 
        5.71773         1.17605        0.103438 
        5.73344          1.1726        0.102688 
        5.74916         1.16696        0.101945 
        5.76486         1.16437         0.10121 
        5.78054         1.15887        0.100484 
        5.79626          1.1574       0.0997621 
          5.812         1.15409       0.0990469 
         5.8277          1.1473       0.0983408 
        5.84339         1.14598       0.0976415 
        5.85911         1.13835       0.0969475 
        5.87484         1.13935       0.0962604 
        5.89053         1.13602       0.0955813 
        5.90623         1.13178       0.0949083 
        5.92195         1.12591       0.0942406 
        5.93767         1.12618       0.0935796 
        5.95336         1.12206        0.092926 
        5.96905         1.11531       0.0922788 
        5.98476         1.11118       0.0916368 
        6.00048         1.10903       0.0910007 
        6.01617         1.10401       0.0903714 
        6.03185         1.10229       0.0897488 
        6.04756         1.09768       0.0891304 
        6.06331         1.09812       0.0885166 
        6.07903         1.09336       0.0879098 
        6.09473         1.09085       0.0873091 
        6.11044         1.08809       0.0867135 
        6.12616         1.08338       0.0861235 
        6.14186         1.07879       0.0855395 
        6.15755         1.07733       0.0849609 
        6.17326         1.07357       0.0843872 
        6.18898         1.06871       0.0838184 
        6.20467         1.06702       0.0832559 
        6.22036         1.06282       0.0826985 
         6.2361         1.06011       0.0821447 
         6.2518         1.05884       0.0815968 
        6.26748         1.05329        0.081055 
        6.28319         1.05044       0.0805167 
        6.29893         1.04999       0.0799827 
        6.31463         1.04635       0.0794544 
        6.33033         1.04102       0.0789311 
        6.34604         1.03958        0.078412 
        6.36177         1.03767        0.077897 
        6.37747         1.03535       0.0773876 
