# k  (h/Mpc)    Pcb(k)  (Mpc/h)^3    Pcb_linear(k) (Mpc/h)^3   ShotnoiseSubtracted = true
      0.0200456           11567         11739.7 
      0.0350414         8759.46          8534.4 
      0.0492313         6142.89         6200.93 
      0.0637834         4971.15         5154.78 
      0.0800726         3916.34         4091.22 
       0.096163          3070.4         2968.54 
       0.111083         2494.64         2367.78 
       0.126058         2080.08         2098.34 
       0.142273         1793.45         1777.75 
       0.158546         1472.31         1404.05 
        0.17375          1287.7         1182.91 
       0.188953          1192.4          1071.1 
       0.204907         1018.32         947.705 
       0.220756         912.597         801.816 
        0.23588         810.717          697.51 
         0.2514         726.015         633.681 
       0.267535         703.529         573.373 
       0.283568         614.697         505.638 
       0.299022         585.572         450.497 
       0.314451         590.552         411.724 
       0.330372          507.58          377.71 
       0.346141         470.327          342.83 
       0.361624         448.976         311.585 
       0.377134         419.431         286.708 
       0.392932         406.997         265.285 
       0.408854         386.846         244.541 
       0.424564         373.544         225.397 
       0.440253         337.778         208.969 
       0.455999         323.075         194.685 
       0.471626          323.48         181.557 
        0.48727         307.164         169.277 
       0.502856         281.687         158.245 
       0.518488         282.726         148.402 
       0.534347         262.637         139.252 
       0.550082         255.365         130.814 
       0.565732         253.698         123.095 
       0.581496         239.653         116.025 
       0.597222         233.462         109.542 
       0.612804         226.954          103.58 
       0.628434         218.885         98.0227 
       0.644267         209.079         92.8274 
       0.660051         205.199         88.0391 
       0.675724          202.93         83.6176 
       0.691403         197.486         79.4961 
       0.707174         190.683         75.6292 
       0.722871          187.72         72.0348 
        0.73838         185.921         68.7125 
       0.754018         175.599         65.5747 
       0.769845         175.484         62.5987 
        0.78569         170.906         59.8049 
       0.801365         166.038         57.2094 
       0.817031         161.999         54.7704 
       0.832809         159.314         52.4587 
       0.848511         155.478         50.2915 
       0.864097         152.351         48.2622 
       0.879701         150.915         46.3434 
       0.895507         146.953         44.5069 
       0.911279          142.98         42.7741 
        0.92691         140.578         41.1484 
       0.942635         138.304         39.5985 
       0.958396         136.177         38.1256 
       0.974128         133.338         36.7306 
       0.989692         129.939         35.4194 
        1.00528         128.691         34.1707 
        1.02113         125.416         32.9627 
        1.03692         124.464         31.8179 
        1.05264          122.88          30.733 
        1.06832         119.883         29.7005 
        1.08405         118.257         28.7129 
        1.09979         117.461         27.7698 
        1.11537         114.468         26.8786 
        1.13105         113.349         26.0213 
        1.14679         111.331         25.1983 
        1.16256         109.257         24.4094 
        1.17828         108.197         23.6569 
        1.19395         105.476         22.9389 
         1.2097         104.955         22.2471 
        1.22537         102.709         21.5873 
          1.241         102.094         20.9563 
        1.25666         99.0506         20.3491 
        1.27241         97.7474         19.7631 
        1.28819         97.2947         19.1993 
        1.30392         95.4665         18.6593 
        1.31957         94.1648         18.1424 
        1.33529         92.9947         17.6433 
        1.35108         92.4119         17.1611 
        1.36674         90.5985         16.7004 
         1.3824         90.2196         16.2571 
        1.39811         87.8667         15.8284 
        1.41389         86.9169         15.4137 
        1.42964         85.4455         15.0145 
        1.44531         84.8236         14.6314 
        1.46101         83.8433         14.2609 
        1.47667         82.9051         13.9044 
        1.49229         82.0222         13.5611 
        1.50793         80.6466          13.229 
        1.52367         80.0387         12.9059 
        1.53953         78.9027         12.5915 
        1.55526         77.5218         12.2901 
        1.57092         77.3458         11.9998 
        1.58662         76.2507         11.7182 
        1.60235          75.081         11.4451 
        1.61809         74.1058         11.1807 
        1.63369         73.0908         10.9269 
        1.64941         73.0564         10.6792 
        1.66519         71.2713         10.4384 
        1.68085         70.6492         10.2066 
        1.69652         69.3641          9.9819 
        1.71228         68.7376         9.76266 
        1.72806         68.3744         9.54986 
        1.74368         67.2384         9.34554 
        1.75933         66.6425          9.1468 
        1.77505         66.0192         8.95293 
        1.79081          64.912         8.76434 
         1.8065         64.7189           8.582 
        1.82218         63.0184         8.40502 
        1.83797         62.7246         8.23183 
        1.85367         61.9545         8.06448 
        1.86928         61.3946          7.9028 
        1.88497          60.599         7.74467 
        1.90073         59.7692          7.5903 
        1.91647         59.2863         7.44028 
        1.93218         58.7201         7.29464 
        1.94787         57.8753         7.15311 
        1.96363          57.121         7.01479 
        1.97935         56.5222         6.88041 
        1.99499         55.9837         6.75032 
        2.01064         55.3728         6.62341 
         2.0264         54.8783         6.49897 
        2.04216         54.0798         6.37779 
        2.05781         53.4316         6.26047 
        2.07353         52.7054         6.14569 
        2.08928         52.3043         6.03354 
        2.10499         51.8053         5.92449 
        2.12065          51.255         5.81846 
        2.13633          50.836         5.71495 
        2.15211         50.0881         5.61328 
        2.16785         49.3334         5.51438 
        2.18349         48.8294         5.41848 
        2.19916         48.3223         5.32466 
        2.21489         48.0863         5.23276 
        2.23063         47.2827         5.14296 
         2.2463         46.8937         5.05568 
        2.26194         46.5555         4.97065 
        2.27765         45.8514         4.88713 
        2.29341         45.1856         4.80532 
        2.30914         44.7845         4.72555 
        2.32486         44.2069         4.64764 
        2.34061         43.9067         4.57136 
        2.35635         43.2677         4.49686 
        2.37203         42.8825         4.42427 
        2.38768         42.6125         4.35345 
        2.40339         42.1528         4.28391 
        2.41914         41.7436         4.21574 
        2.43483         40.9465         4.14929 
         2.4505         40.8258         4.08438 
        2.46622         40.3717         4.02065 
        2.48195         39.9189         3.95827 
        2.49759         39.4489         3.89754 
        2.51328         39.0875         3.83793 
        2.52906         38.6942          3.7792 
        2.54479         38.3254         3.72191 
        2.56049         37.8195         3.66592 
        2.57618         37.5359         3.61113 
        2.59189         37.0685         3.55738 
        2.60758         36.6048         3.50481 
        2.62325         36.5551         3.45337 
        2.63898         36.0028         3.40278 
        2.65468         35.6107          3.3533 
        2.67044         35.3583         3.30461 
        2.68618         35.0311         3.25699 
        2.70184         34.5299          3.2105 
        2.71755         34.2788          3.1648 
        2.73329         33.7703         3.11992 
        2.74897          33.494         3.07606 
        2.76462         33.1044         3.03314 
        2.78034         32.8931         2.99086 
        2.79607         32.4657         2.94935 
        2.81179         32.2238         2.90867 
        2.82749         31.8856          2.8688 
        2.84321         31.5215         2.82963 
        2.85893          31.227         2.79121 
        2.87462         30.9835         2.75357 
        2.89033         30.6596         2.71659 
        2.90605         30.4276         2.68025 
        2.92176          30.209          2.6446 
        2.93747         29.8227         2.60961 
        2.95318         29.5353         2.57526 
        2.96891         29.3009          2.5415 
        2.98456         28.9602          2.5085 
        3.00023         28.6065         2.47603 
        3.01596          28.384         2.44404 
        3.03164         28.0658         2.41271 
        3.04738         27.8831         2.38183 
         3.0631         27.6393         2.35151 
        3.07883         27.2478         2.32171 
        3.09456         26.9699         2.29243 
        3.11026         26.7074         2.26371 
        3.12596         26.4242         2.23547 
        3.14163         26.2006         2.20779 
        3.15734         26.0088         2.18051 
        3.17308         25.6727         2.15362 
        3.18879         25.4987         2.12726 
        3.20447         25.2387         2.10138 
         3.2202         24.9374         2.07585 
         3.2359         24.7428         2.05079 
        3.25157         24.5584         2.02621 
        3.26729         24.3615         2.00195 
        3.28304         24.0185         1.97804 
        3.29877         23.8072         1.95456 
        3.31446         23.6291          1.9315 
        3.33014         23.3908         1.90884 
        3.34585         23.2269         1.88651 
        3.36158         22.9553          1.8645 
        3.37727         22.7407         1.84291 
        3.39294         22.5733         1.82168 
        3.40867         22.3658         1.80071 
        3.42439         22.1379         1.78008 
        3.44008         21.8897         1.75982 
        3.45578         21.7708         1.73985 
        3.47153         21.5064         1.72016 
        3.48724         21.3987          1.7008 
        3.50292         21.1456         1.68178 
        3.51859         20.9833         1.66306 
        3.53431         20.8109         1.64457 
        3.55007         20.5812         1.62632 
        3.56577          20.431         1.60842 
        3.58146         20.1996         1.59079 
        3.59719         20.0147         1.57338 
        3.61292         19.8606         1.55625 
        3.62859          19.628         1.53943 
        3.64429          19.421         1.52282 
        3.66003         19.3828         1.50642 
        3.67578         19.1872         1.49026 
        3.69146         18.9418         1.47439 
        3.70712         18.7951         1.45879 
        3.72284         18.6382         1.44336 
        3.73853         18.4876         1.42817 
        3.75422         18.3258          1.4132 
        3.76993         18.1515         1.39843 
        3.78564         18.0114         1.38388 
        3.80137         17.8429         1.36951 
        3.81707         17.6863         1.35537 
        3.83279         17.4904         1.34142 
        3.84853         17.3502         1.32765 
        3.86424         17.1862         1.31409 
        3.87992          17.042         1.30075 
        3.89561         16.9182         1.28759 
        3.91134         16.7644         1.27458 
        3.92704         16.6432         1.26177 
        3.94273         16.5115         1.24915 
        3.95845         16.3145         1.23668 
        3.97418         16.1702         1.22437 
        3.98988         16.0469         1.21225 
        4.00554          15.964         1.20033 
        4.02125          15.737         1.18853 
        4.03698         15.5953         1.17687 
        4.05268         15.5325          1.1654 
        4.06839          15.372         1.15407 
         4.0841         15.2586         1.14289 
        4.09983         15.0538         1.13185 
        4.11555         15.0119         1.12096 
        4.13124         14.8863         1.11024 
        4.14693         14.7436         1.09965 
        4.16266          14.641         1.08917 
        4.17839         14.4793         1.07884 
        4.19408         14.3453         1.06866 
        4.20977         14.2681         1.05861 
        4.22551         14.1291         1.04867 
        4.24123          13.995         1.03886 
        4.25691         13.8772         1.02921 
        4.27259           13.76         1.01968 
        4.28831         13.7024         1.01024 
        4.30404         13.5936         1.00092 
        4.31974         13.4544        0.991737 
        4.33543         13.3147        0.982673 
        4.35116         13.2241        0.973701 
        4.36688         13.0945        0.964843 
        4.38255         13.0189        0.956129 
        4.39825         12.9037        0.947504 
        4.41398         12.7968        0.938967 
         4.4297          12.678        0.930545 
        4.44541         12.5878        0.922228 
        4.46111          12.494        0.914019 
        4.47683         12.3719        0.905903 
        4.49251         12.2721        0.897903 
        4.50819          12.173        0.890001 
         4.5239         12.0951        0.882183 
        4.53962         12.0022        0.874449 
        4.55535         11.8893        0.866804 
        4.57106         11.8197        0.859261 
        4.58678         11.7097        0.851807 
         4.6025         11.6171        0.844439 
        4.61821         11.5197        0.837159 
        4.63391          11.443        0.829975 
         4.6496         11.3495        0.822877 
        4.66532         11.2706        0.815852 
        4.68103         11.1579        0.808912 
        4.69673           11.06        0.802059 
        4.71241         10.9963        0.795292 
        4.72811         10.9169        0.788592 
        4.74384          10.797        0.781961 
        4.75955         10.7417        0.775416 
        4.77525         10.6542         0.76895 
        4.79096         10.5932        0.762549 
        4.80669          10.483        0.756218 
         4.8224         10.4076        0.749966 
        4.83809         10.3187        0.743791 
        4.85379         10.2495        0.737682 
         4.8695         10.1587        0.731637 
        4.88521         10.0744        0.725662 
        4.90093         10.0114        0.719752 
        4.91663         9.90877        0.713914 
        4.93234         9.86006        0.708134 
        4.94807         9.76429        0.702415 
        4.96377          9.7134        0.696769 
        4.97943          9.6229        0.691197 
        4.99514         9.53795        0.685672 
        5.01086         9.51121        0.680202 
        5.02654         9.42398        0.674807 
        5.04227         9.32755        0.669454 
          5.058         9.26211        0.664156 
        5.07371         9.18983        0.658926 
        5.08942         9.13678        0.653752 
        5.10513         9.04966        0.648633 
        5.12084         9.01861        0.643566 
        5.13656         8.92801        0.638554 
        5.15225          8.8457        0.633604 
        5.16796         8.79541        0.628698 
        5.18369         8.72007         0.62384 
         5.1994         8.67056        0.619042 
        5.21509          8.6143        0.614298 
        5.23079         8.53619        0.609599 
        5.24649         8.46018        0.604953 
        5.26217         8.41204        0.600358 
        5.27788         8.36483        0.595804 
        5.29359         8.29119        0.591297 
        5.30933         8.23135         0.58683 
        5.32504         8.18643        0.582416 
        5.34073         8.12691        0.578053 
        5.35646         8.04674        0.573725 
        5.37218         7.99598        0.569441 
        5.38789         7.91673        0.565208 
        5.40357         7.88259        0.561022 
        5.41929          7.8315         0.55687 
        5.43502          7.7725        0.552759 
         5.4507         7.71999        0.548699 
        5.46639         7.66285         0.54468 
        5.48212         7.60529        0.540691 
        5.49786         7.56555        0.536738 
        5.51353         7.51058        0.532844 
        5.52921         7.45071        0.528984 
        5.54495         7.38873        0.525151 
        5.56066         7.33277         0.52136 
        5.57637         7.30281        0.517608 
        5.59207         7.25018        0.513895 
        5.60778          7.1865        0.510218 
        5.62346         7.13777        0.506581 
        5.63916         7.10309        0.502977 
        5.65487         7.06003        0.499405 
         5.6706         7.00047        0.495864 
        5.68633         6.96116        0.492357 
        5.70203         6.90411         0.48889 
        5.71773         6.86702        0.485457 
        5.73344         6.81468        0.482055 
        5.74916         6.75453        0.478683 
        5.76486         6.72222        0.475348 
        5.78054         6.66251        0.472049 
        5.79626         6.61843        0.468773 
          5.812         6.58331        0.465524 
         5.8277         6.52937        0.462316 
        5.84339         6.49443        0.459138 
        5.85911         6.43787        0.455983 
        5.87484         6.41071        0.452859 
        5.89053         6.35856         0.44977 
        5.90623         6.32832        0.446709 
        5.92195          6.2764         0.44367 
        5.93767         6.23858        0.440662 
        5.95336         6.18529        0.437686 
        5.96905         6.15403        0.434739 
        5.98476         6.11498        0.431815 
        6.00048           6.073        0.428917 
        6.01617         6.03064         0.42605 
        6.03185         5.99619        0.423212 
        6.04756         5.95418        0.420393 
        6.06331          5.9183        0.417594 
        6.07903         5.86735        0.414826 
        6.09473         5.83904        0.412085 
        6.11044         5.79556        0.409367 
        6.12616         5.75249        0.406674 
        6.14186         5.72223        0.404008 
        6.15755         5.69686        0.401366 
        6.17326         5.64819        0.398745 
        6.18898         5.61385        0.396147 
        6.20467         5.57528        0.393576 
        6.22036         5.54547        0.391029 
         6.2361         5.50793        0.388497 
         6.2518         5.46604        0.385991 
        6.26748         5.43791        0.383513 
        6.28319         5.40473         0.38105 
        6.29893         5.36655        0.378607 
        6.31463          5.3511        0.376189 
        6.33033         5.29538        0.373793 
        6.34604         5.26839        0.371416 
        6.36177         5.23217        0.369057 
        6.37747         5.20274        0.366724 
