# k  (h/Mpc)    Pcb(k)  (Mpc/h)^3    Pcb_linear(k) (Mpc/h)^3   ShotnoiseSubtracted = true
      0.0200456         12168.8         12407.8 
      0.0350414         8735.23         9020.09 
      0.0492313         6488.25         6553.82 
      0.0637834         5555.31         5448.13 
      0.0800726         4394.61         4324.05 
       0.096163         3067.92         3137.47 
       0.111083         2442.63         2502.53 
       0.126058         2251.16         2217.75 
       0.142273         1945.32         1878.92 
       0.158546          1635.3         1483.96 
        0.17375         1310.92         1250.23 
       0.188953         1267.24         1132.06 
       0.204907         1190.44         1001.64 
       0.220756         1014.28         847.447 
        0.23588         894.243         737.205 
         0.2514         780.109         669.744 
       0.267535         762.785         606.003 
       0.283568         691.628         534.413 
       0.299022         645.964         476.135 
       0.314451         608.547         435.155 
       0.330372         561.046         399.206 
       0.346141         511.473          362.34 
       0.361624         491.865         329.317 
       0.377134         457.109         303.024 
       0.392932         435.214         280.382 
       0.408854         418.124         258.458 
       0.424564         396.346         238.225 
       0.440253         384.441         220.862 
       0.455999         361.944         205.764 
       0.471626         338.876          191.89 
        0.48727         328.613         178.911 
       0.502856         318.076         167.251 
       0.518488         314.706         156.848 
       0.534347         295.501         147.176 
       0.550082         278.959         138.259 
       0.565732          275.59           130.1 
       0.581496         260.934         122.628 
       0.597222         255.385         115.776 
       0.612804         246.794         109.474 
       0.628434         237.698         103.601 
       0.644267         230.287         98.1101 
       0.660051         227.102         93.0493 
       0.675724         222.543         88.3763 
       0.691403         216.214         84.0202 
       0.707174         207.454         79.9332 
       0.722871         205.506         76.1343 
        0.73838         201.238         72.6229 
       0.754018         195.814         69.3065 
       0.769845         189.553         66.1612 
        0.78569         188.094         63.2084 
       0.801365         182.123         60.4652 
       0.817031         176.426         57.8873 
       0.832809         174.182         55.4441 
       0.848511         169.769         53.1535 
       0.864097         167.387         51.0087 
       0.879701         163.635         48.9808 
       0.895507         159.473         47.0397 
       0.911279         155.724         45.2083 
        0.92691         155.026         43.4901 
       0.942635         151.182         41.8521 
       0.958396         150.823         40.2953 
       0.974128         146.704         38.8209 
       0.989692         143.207         37.4351 
        1.00528         140.811         36.1153 
        1.02113         140.026         34.8386 
        1.03692         134.928         33.6287 
        1.05264         133.359          32.482 
        1.06832         130.734         31.3907 
        1.08405         128.997         30.3469 
        1.09979         128.427         29.3502 
        1.11537         124.229         28.4082 
        1.13105         123.619         27.5022 
        1.14679         122.668         26.6323 
        1.16256         120.787         25.7985 
        1.17828         118.027         25.0032 
        1.19395         116.441         24.2443 
         1.2097         114.497         23.5132 
        1.22537         113.878         22.8158 
          1.241         111.406         22.1489 
        1.25666         109.457         21.5071 
        1.27241         107.916         20.8878 
        1.28819         106.477          20.292 
        1.30392         105.106         19.7211 
        1.31957          103.77         19.1749 
        1.33529         101.592         18.6474 
        1.35108         100.463         18.1377 
        1.36674         99.5442         17.6508 
         1.3824         97.5661         17.1823 
        1.39811         96.6713         16.7292 
        1.41389          95.263         16.2908 
        1.42964         93.7666         15.8689 
        1.44531         91.7624         15.4641 
        1.46101         90.9683         15.0725 
        1.47667          90.389         14.6957 
        1.49229         88.6977         14.3329 
        1.50793         88.0114         13.9819 
        1.52367         86.7365         13.6404 
        1.53953         85.3473         13.3081 
        1.55526         84.5967         12.9895 
        1.57092         83.9926         12.6827 
        1.58662         82.1796         12.3851 
        1.60235          81.783         12.0965 
        1.61809         80.4468         11.8169 
        1.63369         79.5931         11.5487 
        1.64941         78.8549          11.287 
        1.66519         77.0174         11.0324 
        1.68085         76.5745         10.7875 
        1.69652         75.0137           10.55 
        1.71228         74.8895         10.3183 
        1.72806         73.7577         10.0933 
        1.74368         72.9158         9.87739 
        1.75933         71.8199         9.66734 
        1.77505         71.3076         9.46243 
        1.79081         70.1316         9.26312 
         1.8065         69.4408          9.0704 
        1.82218         68.4208         8.88335 
        1.83797         67.7922          8.7003 
        1.85367         67.0451         8.52343 
        1.86928         66.7467         8.35254 
        1.88497          65.441         8.18542 
        1.90073         64.5069         8.02226 
        1.91647         64.2198          7.8637 
        1.93218         63.2667         7.70977 
        1.94787         62.5003         7.56019 
        1.96363          61.684           7.414 
        1.97935          61.391         7.27197 
        1.99499         60.3033         7.13448 
        2.01064          60.037         7.00035 
         2.0264         58.6802         6.86882 
        2.04216         58.2929         6.74075 
        2.05781         57.6134         6.61675 
        2.07353         56.8538         6.49544 
        2.08928         56.1855          6.3769 
        2.10499         55.8172         6.26165 
        2.12065         55.1563         6.14959 
        2.13633          54.705         6.04018 
        2.15211         54.3575         5.93273 
        2.16785         53.5443          5.8282 
        2.18349         53.1413         5.72684 
        2.19916         52.4147         5.62769 
        2.21489         51.9919         5.53055 
        2.23063         51.3734         5.43565 
         2.2463          50.881          5.3434 
        2.26194         49.9851         5.25352 
        2.27765         49.6188         5.16525 
        2.29341          49.052         5.07879 
        2.30914         48.3595         4.99448 
        2.32486         47.6422         4.91213 
        2.34061         47.3775         4.83151 
        2.35635         46.8142         4.75277 
        2.37203          46.225         4.67606 
        2.38768          45.851          4.6012 
        2.40339         45.3669         4.52771 
        2.41914         45.0509         4.45565 
        2.43483          44.497         4.38542 
         2.4505         44.1025         4.31683 
        2.46622         43.6347         4.24946 
        2.48195         43.1128         4.18353 
        2.49759         42.5574         4.11935 
        2.51328         42.0564         4.05635 
        2.52906         41.7362         3.99427 
        2.54479         41.2151         3.93372 
        2.56049         40.6589         3.87455 
        2.57618         40.4011         3.81664 
        2.59189         39.8514         3.75983 
        2.60758         39.6072         3.70427 
        2.62325         39.0971          3.6499 
        2.63898          38.697         3.59643 
        2.65468         38.2019         3.54414 
        2.67044         37.7195         3.49267 
        2.68618         37.5042         3.44234 
        2.70184         37.1092         3.39321 
        2.71755         36.8551         3.34491 
        2.73329         36.3135         3.29748 
        2.74897         35.9703         3.25112 
        2.76462         35.4637         3.20576 
        2.78034         35.3446         3.16107 
        2.79607          34.902         3.11719 
        2.81179         34.5835          3.0742 
        2.82749         34.1255         3.03206 
        2.84321         33.8517         2.99067 
        2.85893         33.4818         2.95006 
        2.87462         33.0728         2.91027 
        2.89033         32.7541         2.87119 
        2.90605         32.5609         2.83278 
        2.92176         32.2459          2.7951 
        2.93747         31.9383         2.75813 
        2.95318         31.5057         2.72181 
        2.96891         31.1711         2.68613 
        2.98456         30.9329         2.65125 
        3.00023         30.5367         2.61694 
        3.01596         30.2253         2.58313 
        3.03164         30.0997         2.55002 
        3.04738         29.7693         2.51738 
         3.0631         29.4643         2.48533 
        3.07883         29.1459         2.45384 
        3.09456          28.879         2.42289 
        3.11026         28.6103         2.39253 
        3.12596         28.3765         2.36269 
        3.14163          28.026         2.33343 
        3.15734         27.8072          2.3046 
        3.17308         27.4417         2.27618 
        3.18879         27.2755         2.24832 
        3.20447         26.9637         2.22097 
         3.2202         26.7032         2.19399 
         3.2359         26.4264          2.1675 
        3.25157         26.3375         2.14152 
        3.26729         26.0472         2.11588 
        3.28304         25.7284         2.09061 
        3.29877         25.4202         2.06579 
        3.31446         25.2308         2.04142 
        3.33014         25.0058         2.01747 
        3.34585         24.8645         1.99387 
        3.36158         24.4898         1.97061 
        3.37727         24.2385         1.94779 
        3.39294         24.1255         1.92535 
        3.40867          23.845         1.90319 
        3.42439          23.595         1.88139 
        3.44008         23.4237         1.85997 
        3.45578         23.2706         1.83887 
        3.47153         22.9487         1.81805 
        3.48724         22.7664         1.79759 
        3.50292         22.6463         1.77749 
        3.51859         22.3296         1.75771 
        3.53431          22.158         1.73817 
        3.55007         21.9012         1.71887 
        3.56577         21.6928         1.69995 
        3.58146         21.6107         1.68132 
        3.59719         21.3049         1.66292 
        3.61292         21.1591         1.64481 
        3.62859         20.9172         1.62703 
        3.64429         20.7423         1.60949 
        3.66003         20.5903         1.59215 
        3.67578         20.3354         1.57507 
        3.69146         20.2435          1.5583 
        3.70712         20.0128         1.54181 
        3.72284         19.8793          1.5255 
        3.73853         19.6449         1.50945 
        3.75422         19.4779         1.49362 
        3.76993         19.3098         1.47801 
        3.78564          19.116         1.46263 
        3.80137         18.9805         1.44744 
        3.81707         18.7954          1.4325 
        3.83279         18.6308         1.41776 
        3.84853         18.4501          1.4032 
        3.86424         18.2968         1.38888 
        3.87992         18.1378         1.37477 
        3.89561         17.9522         1.36086 
        3.91134         17.8463         1.34712 
        3.92704         17.6764         1.33358 
        3.94273         17.5185         1.32024 
        3.95845         17.3155         1.30706 
        3.97418         17.2354         1.29405 
        3.98988         17.0377         1.28124 
        4.00554         16.9076         1.26864 
        4.02125         16.7712         1.25617 
        4.03698         16.6135         1.24385 
        4.05268         16.4828         1.23172 
        4.06839         16.3015         1.21975 
         4.0841         16.2309         1.20794 
        4.09983         16.0067         1.19626 
        4.11555         15.9338         1.18475 
        4.13124         15.7943         1.17342 
        4.14693          15.643         1.16223 
        4.16266         15.5031         1.15116 
        4.17839         15.3842         1.14023 
        4.19408         15.2252         1.12948 
        4.20977         15.1337         1.11886 
        4.22551         14.9926         1.10835 
        4.24123         14.8913         1.09799 
        4.25691          14.791         1.08778 
        4.27259         14.6219         1.07771 
        4.28831         14.4543         1.06774 
        4.30404         14.4011         1.05788 
        4.31974         14.2657         1.04818 
        4.33543         14.1582          1.0386 
        4.35116           14.02         1.02911 
        4.36688         13.9271         1.01975 
        4.38255         13.7841         1.01054 
        4.39825         13.7002         1.00143 
        4.41398         13.5833        0.992404 
         4.4297         13.4393        0.983502 
        4.44541         13.3602        0.974712 
        4.46111         13.2608        0.966035 
        4.47683         13.1374        0.957458 
        4.49251         13.0307        0.949002 
        4.50819         12.9326        0.940651 
         4.5239         12.8428        0.932388 
        4.53962         12.7219        0.924213 
        4.55535         12.6187        0.916133 
        4.57106         12.4975        0.908162 
        4.58678         12.3969        0.900283 
         4.6025         12.3032        0.892495 
        4.61821         12.2103        0.884801 
        4.63391         12.1393        0.877208 
         4.6496         12.0092        0.869707 
        4.66532         11.8997        0.862282 
        4.68103         11.7931        0.854947 
        4.69673         11.7529        0.847704 
        4.71241         11.6287        0.840552 
        4.72811         11.5333        0.833471 
        4.74384         11.4508        0.826462 
        4.75955         11.3552        0.819545 
        4.77525         11.2774         0.81271 
        4.79096         11.1817        0.805945 
        4.80669         11.1117        0.799254 
         4.8224         11.0314        0.792646 
        4.83809         10.9456         0.78612 
        4.85379          10.842        0.779663 
         4.8695         10.8033        0.773274 
        4.88521         10.6725        0.766959 
        4.90093         10.6174        0.760713 
        4.91663         10.5084        0.754543 
        4.93234         10.4383        0.748434 
        4.94807         10.3599        0.742389 
        4.96377         10.2835        0.736422 
        4.97943         10.2091        0.730533 
        4.99514          10.138        0.724693 
        5.01086         10.0551        0.718912 
        5.02654         9.98599         0.71321 
        5.04227         9.91376        0.707552 
          5.058         9.81078        0.701953 
        5.07371         9.76761        0.696426 
        5.08942         9.69085        0.690957 
        5.10513         9.61336        0.685546 
        5.12084         9.54287        0.680191 
        5.13656          9.4788        0.674894 
        5.15225         9.40933        0.669662 
        5.16796         9.33486        0.664477 
        5.18369         9.27719        0.659342 
         5.1994          9.1792        0.654271 
        5.21509         9.14134        0.649258 
        5.23079         9.06524        0.644291 
        5.24649         8.98674         0.63938 
        5.26217          8.9302        0.634524 
        5.27788         8.86062        0.629711 
        5.29359         8.80345        0.624947 
        5.30933         8.71638        0.620226 
        5.32504         8.66558        0.615561 
        5.34073         8.61629        0.610949 
        5.35646         8.53597        0.606376 
        5.37218         8.47713        0.601848 
        5.38789         8.42982        0.597374 
        5.40357         8.38138         0.59295 
        5.41929         8.30461        0.588561 
        5.43502         8.23564        0.584216 
         5.4507         8.18795        0.579926 
        5.46639         8.12758        0.575677 
        5.48212         8.07374        0.571462 
        5.49786         8.02629        0.567283 
        5.51353         7.95501        0.563167 
        5.52921         7.91126        0.559088 
        5.54495         7.85951        0.555037 
        5.56066         7.78973        0.551031 
        5.57637         7.73149        0.547064 
        5.59207         7.69172        0.543141 
        5.60778         7.62453        0.539254 
        5.62346         7.57379         0.53541 
        5.63916         7.52185        0.531601 
        5.65487         7.47358        0.527826 
         5.6706         7.40566        0.524084 
        5.68633         7.36596        0.520376 
        5.70203           7.313        0.516712 
        5.71773          7.2546        0.513084 
        5.73344         7.21507        0.509489 
        5.74916         7.17829        0.505925 
        5.76486         7.13923          0.5024 
        5.78054         7.06812        0.498913 
        5.79626         7.01615         0.49545 
          5.812         6.96856        0.492017 
         5.8277         6.92999        0.488626 
        5.84339         6.87883        0.485267 
        5.85911         6.83748        0.481933 
        5.87484         6.79554        0.478631 
        5.89053         6.74871        0.475366 
        5.90623         6.69263        0.472131 
        5.92195         6.64641        0.468919 
        5.93767         6.61256         0.46574 
        5.95336         6.56734        0.462595 
        5.96905         6.51468         0.45948 
        5.98476         6.47913         0.45639 
        6.00048         6.44657        0.453327 
        6.01617         6.39503        0.450296 
        6.03185         6.34417        0.447297 
        6.04756          6.3135        0.444317 
        6.06331         6.27314        0.441359 
        6.07903         6.23097        0.438433 
        6.09473         6.18134        0.435537 
        6.11044         6.13358        0.432664 
        6.12616         6.10512        0.429818 
        6.14186         6.07672           0.427 
        6.15755         6.03344        0.424207 
        6.17326         5.97473        0.421438 
        6.18898         5.94138        0.418691 
        6.20467         5.91005        0.415974 
        6.22036         5.87443        0.413282 
         6.2361         5.82438        0.410606 
         6.2518          5.7908        0.407958 
        6.26748         5.75915        0.405339 
        6.28319         5.71766        0.402736 
        6.29893         5.68363        0.400153 
        6.31463         5.65555        0.397597 
        6.33033         5.61234        0.395065 
        6.34604         5.57197        0.392553 
        6.36177          5.5409         0.39006 
        6.37747         5.51504        0.387594 
