# k  (h/Mpc)    Pcb(k)  (Mpc/h)^3    Pcb_linear(k) (Mpc/h)^3   ShotnoiseSubtracted = true
      0.0200456         3821.86         3872.14 
      0.0350414         2866.85         2814.91 
      0.0492313         2045.51         2045.26 
      0.0637834         1667.67         1700.21 
      0.0800726          1318.4         1349.41 
       0.096163            1003         979.116 
       0.111083         809.284         780.969 
       0.126058         687.789         692.097 
       0.142273         584.167         586.359 
       0.158546          474.19           463.1 
        0.17375         407.881         390.162 
       0.188953         369.198         353.283 
       0.204907         314.726         312.583 
       0.220756         278.398         264.464 
        0.23588         244.231         230.061 
         0.2514         220.228         209.008 
       0.267535         206.535         189.116 
       0.283568         180.705         166.775 
       0.299022         167.075         148.588 
       0.314451         159.357         135.799 
       0.330372         140.696         124.581 
       0.346141         129.251         113.076 
       0.361624         119.982         102.771 
       0.377134           109.6         94.5652 
       0.392932          106.42         87.4993 
       0.408854         98.5711         80.6574 
       0.424564         93.9394         74.3431 
       0.440253         85.5117         68.9247 
       0.455999         78.7063         64.2131 
       0.471626         75.1714         59.8833 
        0.48727         73.0192          55.833 
       0.502856         67.5622         52.1943 
       0.518488         64.4008         48.9477 
       0.534347         60.7614         45.9295 
       0.550082         58.6174         43.1466 
       0.565732         56.6442         40.6006 
       0.581496         52.7234         38.2688 
       0.597222         50.4519         36.1303 
       0.612804         48.4966         34.1639 
       0.628434         47.5206          32.331 
       0.644267         44.9253         30.6174 
       0.660051         42.9886          29.038 
       0.675724         41.2953         27.5797 
       0.691403         40.5946         26.2203 
       0.707174         39.1103         24.9449 
       0.722871         37.8402         23.7594 
        0.73838         36.0684         22.6636 
       0.754018         34.2252         21.6286 
       0.769845         33.6499          20.647 
        0.78569         32.4567         19.7255 
       0.801365         31.4905         18.8695 
       0.817031         30.2697          18.065 
       0.832809         29.6724         17.3025 
       0.848511          28.696         16.5877 
       0.864097         27.9394         15.9184 
       0.879701         27.4641         15.2855 
       0.895507         26.4257         14.6798 
       0.911279         25.5225         14.1082 
        0.92691          25.091          13.572 
       0.942635         24.5382         13.0608 
       0.958396          23.895          12.575 
       0.974128          23.251         12.1149 
       0.989692         22.3191         11.6824 
        1.00528         22.1541         11.2706 
        1.02113         21.4912         10.8721 
        1.03692         21.0654         10.4946 
        1.05264         20.6399         10.1367 
        1.06832         20.2491         9.79616 
        1.08405         19.6593         9.47042 
        1.09979         19.3253         9.15936 
        1.11537         18.7617          8.8654 
        1.13105         18.4917         8.58265 
        1.14679         18.0242         8.31118 
        1.16256         17.7322         8.05097 
        1.17828         17.4199          7.8028 
        1.19395         17.1385         7.56596 
         1.2097         16.6971         7.33779 
        1.22537         16.4163         7.12016 
          1.241         16.0682         6.91204 
        1.25666         15.8907         6.71176 
        1.27241          15.599          6.5185 
        1.28819         14.9976         6.33254 
        1.30392         15.1352         6.15441 
        1.31957         14.7101         5.98394 
        1.33529          14.484         5.81933 
        1.35108         14.2943         5.66027 
        1.36674         13.9807         5.50832 
         1.3824         13.7542          5.3621 
        1.39811         13.5191         5.22072 
        1.41389          13.322         5.08391 
        1.42964         13.1388         4.95224 
        1.44531         12.9362          4.8259 
        1.46101         12.7606         4.70371 
        1.47667         12.5471         4.58612 
        1.49229         12.2626         4.47288 
        1.50793         12.1622         4.36334 
        1.52367         12.0113         4.25678 
        1.53953         11.7985         4.15307 
        1.55526         11.5998         4.05365 
        1.57092         11.5488         3.95791 
        1.58662         11.3453         3.86503 
        1.60235         11.1938         3.77497 
        1.61809         11.0524         3.68773 
        1.63369         10.8481         3.60404 
        1.64941         10.7257         3.52235 
        1.66519         10.5839          3.4429 
        1.68085         10.3926         3.36647 
        1.69652         10.3733         3.29234 
        1.71228         10.2057         3.22003 
        1.72806         10.0348         3.14984 
        1.74368         9.93652         3.08245 
        1.75933         9.84054          3.0169 
        1.77505         9.67562         2.95296 
        1.79081          9.5807         2.89076 
         1.8065         9.52351         2.83061 
        1.82218         9.40192         2.77224 
        1.83797          9.2634         2.71512 
        1.85367          9.1658         2.65992 
        1.86928         9.04605         2.60659 
        1.88497         8.96604         2.55444 
        1.90073         8.83172         2.50352 
        1.91647         8.63462         2.45404 
        1.93218         8.63196           2.406 
        1.94787         8.48611         2.35932 
        1.96363         8.42787          2.3137 
        1.97935         8.37905         2.26938 
        1.99499         8.25844         2.22647 
        2.01064         8.16126         2.18461 
         2.0264         8.06473         2.14356 
        2.04216         8.06298          2.1036 
        2.05781         7.95442          2.0649 
        2.07353         7.84363         2.02704 
        2.08928          7.7256         1.99005 
        2.10499         7.66448         1.95408 
        2.12065         7.64249         1.91911 
        2.13633         7.53126         1.88497 
        2.15211          7.4617         1.85144 
        2.16785         7.34003         1.81881 
        2.18349          7.3355         1.78718 
        2.19916         7.23802         1.75624 
        2.21489         7.18236         1.72593 
        2.23063         7.12471         1.69631 
         2.2463         7.01438         1.66752 
        2.26194         6.94497         1.63948 
        2.27765         6.88408         1.61193 
        2.29341         6.78023         1.58495 
        2.30914          6.7936         1.55864 
        2.32486         6.69167         1.53294 
        2.34061         6.65275         1.50778 
        2.35635         6.57234          1.4832 
        2.37203         6.52265         1.45926 
        2.38768         6.46372          1.4359 
        2.40339         6.40744         1.41297 
        2.41914         6.36266         1.39048 
        2.43483         6.31636         1.36857 
         2.4505         6.23794         1.34716 
        2.46622         6.16634         1.32614 
        2.48195         6.17049         1.30556 
        2.49759         6.04797         1.28553 
        2.51328         6.03385         1.26587 
        2.52906         5.96097          1.2465 
        2.54479         5.91504          1.2276 
        2.56049         5.87165         1.20914 
        2.57618         5.83491         1.19106 
        2.59189         5.82822         1.17334 
        2.60758         5.73741           1.156 
        2.62325         5.66333         1.13903 
        2.63898         5.67604         1.12234 
        2.65468         5.59656         1.10603 
        2.67044         5.55561         1.08996 
        2.68618          5.4992         1.07426 
        2.70184         5.49034         1.05892 
        2.71755         5.41481         1.04385 
        2.73329         5.36575         1.02905 
        2.74897         5.34281         1.01458 
        2.76462          5.3004         1.00043 
        2.78034         5.26085        0.986481 
        2.79607         5.21349        0.972787 
        2.81179         5.17465         0.95937 
        2.82749         5.11771         0.94622 
        2.84321         5.09711        0.933302 
        2.85893         5.05708        0.920629 
        2.87462         5.02914        0.908214 
        2.89033         4.98865        0.896016 
        2.90605         4.94979        0.884031 
        2.92176          4.8905        0.872272 
        2.93747          4.8688        0.860733 
        2.95318         4.82251          0.8494 
        2.96891         4.79822        0.838266 
        2.98456         4.76005        0.827381 
        3.00023         4.74271        0.816673 
        3.01596         4.67714        0.806122 
        3.03164         4.65112        0.795787 
        3.04738           4.633        0.785603 
         3.0631          4.6067        0.775601 
        3.07883         4.55982        0.765773 
        3.09456          4.5086        0.756116 
        3.11026         4.49964        0.746641 
        3.12596         4.46546        0.737329 
        3.14163         4.43384        0.728198 
        3.15734         4.39955          0.7192 
        3.17308         4.37743        0.710332 
        3.18879         4.34964        0.701638 
        3.20447         4.31971        0.693102 
         3.2202          4.2754        0.684682 
         3.2359         4.24583        0.676416 
        3.25157         4.23254        0.668307 
        3.26729         4.20232        0.660306 
        3.28304         4.16216        0.652421 
        3.29877         4.14524        0.644674 
        3.31446         4.12554         0.63707 
        3.33014         4.07709        0.629595 
        3.34585         4.06778        0.622229 
        3.36158         4.03214         0.61497 
        3.37727         4.00806        0.607849 
        3.39294         3.98332        0.600848 
        3.40867         3.96196        0.593931 
        3.42439         3.90983        0.587128 
        3.44008         3.90158        0.580444 
        3.45578         3.87412        0.573859 
        3.47153         3.84652        0.567362 
        3.48724         3.83023        0.560976 
        3.50292         3.80367        0.554704 
        3.51859         3.77315        0.548531 
        3.53431         3.75285        0.542432 
        3.55007         3.73515        0.536412 
        3.56577         3.69384        0.530506 
        3.58146         3.68401        0.524692 
        3.59719         3.66337        0.518951 
        3.61292         3.63774        0.513299 
        3.62859          3.6218        0.507751 
        3.64429         3.58608        0.502275 
        3.66003         3.57766        0.496864 
        3.67578         3.55182        0.491533 
        3.69146         3.52215        0.486301 
        3.70712         3.51223        0.481155 
        3.72284         3.48479        0.476064 
        3.73853         3.46132        0.471056 
        3.75422         3.43317        0.466117 
        3.76993         3.41947        0.461246 
        3.78564         3.39828        0.456446 
        3.80137         3.37399        0.451706 
        3.81707         3.36095        0.447043 
        3.83279         3.33246        0.442443 
        3.84853         3.30988          0.4379 
        3.86424          3.2922        0.433429 
        3.87992         3.27456        0.429028 
        3.89561         3.25213        0.424687 
        3.91134          3.2306        0.420398 
        3.92704         3.20747        0.416172 
        3.94273         3.19177        0.412009 
        3.95845         3.17024        0.407895 
        3.97418         3.16015        0.403837 
        3.98988         3.13723        0.399839 
        4.00554         3.11404        0.395906 
        4.02125         3.08809        0.392015 
        4.03698         3.07324         0.38817 
        4.05268         3.05407        0.384386 
        4.06839         3.03572        0.380648 
         4.0841         3.01721        0.376962 
        4.09983         2.99781         0.37332 
        4.11555         2.97817        0.369727 
        4.13124         2.96162        0.366191 
        4.14693         2.94451        0.362698 
        4.16266         2.92574        0.359243 
        4.17839         2.90385        0.355835 
        4.19408         2.89067        0.352479 
        4.20977         2.87564        0.349164 
        4.22551         2.84973        0.345884 
        4.24123         2.83489         0.34265 
        4.25691         2.82085        0.339466 
        4.27259         2.80022        0.336321 
        4.28831          2.7747         0.33321 
        4.30404         2.77399        0.330135 
        4.31974         2.75554        0.327106 
        4.33543         2.72904        0.324117 
        4.35116         2.71842        0.321157 
        4.36688         2.70425        0.318236 
        4.38255         2.68275        0.315361 
        4.39825         2.67047        0.312517 
        4.41398         2.66062        0.309701 
         4.4297         2.63798        0.306923 
        4.44541         2.62024         0.30418 
        4.46111         2.60441        0.301472 
        4.47683         2.59126        0.298795 
        4.49251         2.58044        0.296157 
        4.50819         2.55953         0.29355 
         4.5239         2.55249        0.290972 
        4.53962         2.53424        0.288421 
        4.55535         2.51875        0.285899 
        4.57106         2.50486        0.283411 
        4.58678         2.48749        0.280953 
         4.6025          2.4781        0.278522 
        4.61821         2.46749        0.276121 
        4.63391         2.44829        0.273752 
         4.6496         2.43859        0.271411 
        4.66532         2.42535        0.269094 
        4.68103         2.40629        0.266805 
        4.69673         2.39566        0.264544 
        4.71241         2.38424        0.262312 
        4.72811         2.36981        0.260103 
        4.74384          2.3622        0.257915 
        4.75955         2.34491        0.255757 
        4.77525         2.33011        0.253624 
        4.79096         2.32079        0.251513 
        4.80669         2.31135        0.249424 
         4.8224         2.29426        0.247362 
        4.83809         2.28458        0.245326 
        4.85379         2.27207        0.243311 
         4.8695         2.26293        0.241317 
        4.88521         2.24786        0.239346 
        4.90093         2.24213        0.237397 
        4.91663         2.22526        0.235471 
        4.93234         2.21827        0.233565 
        4.94807         2.20854        0.231678 
        4.96377         2.18896        0.229816 
        4.97943         2.18307        0.227978 
        4.99514         2.16835        0.226156 
        5.01086         2.15825        0.224352 
        5.02654         2.14844        0.222572 
        5.04227         2.13801        0.220807 
          5.058         2.12967         0.21906 
        5.07371         2.11973        0.217335 
        5.08942         2.10968        0.215628 
        5.10513         2.09777        0.213939 
        5.12084         2.08062        0.212268 
        5.13656         2.07416        0.210615 
        5.15225            2.06        0.208982 
        5.16796         2.05258        0.207364 
        5.18369         2.04372        0.205762 
         5.1994         2.03281        0.204179 
        5.21509         2.02633        0.202615 
        5.23079         2.01705        0.201065 
        5.24649         2.00851        0.199532 
        5.26217         1.99708        0.198017 
        5.27788         1.98477        0.196515 
        5.29359         1.97886        0.195028 
        5.30933         1.96937        0.193555 
        5.32504         1.96203        0.192099 
        5.34073         1.94864         0.19066 
        5.35646         1.93815        0.189233 
        5.37218         1.93488         0.18782 
        5.38789         1.91864        0.186423 
        5.40357         1.91355        0.185043 
        5.41929         1.90579        0.183673 
        5.43502         1.90004        0.182317 
         5.4507         1.88503        0.180978 
        5.46639         1.87852        0.179653 
        5.48212         1.87109        0.178337 
        5.49786         1.86102        0.177033 
        5.51353         1.85364        0.175749 
        5.52921         1.84246        0.174476 
        5.54495         1.83922        0.173211 
        5.56066         1.82746        0.171961 
        5.57637         1.81492        0.170723 
        5.59207         1.81203        0.169499 
        5.60778         1.80689        0.168286 
        5.62346         1.79148        0.167086 
        5.63916         1.78579        0.165897 
        5.65487         1.77841         0.16472 
         5.6706         1.77318        0.163552 
        5.68633         1.76248        0.162395 
        5.70203          1.7571        0.161251 
        5.71773         1.74726        0.160119 
        5.73344         1.74063        0.158997 
        5.74916         1.73562        0.157885 
        5.76486         1.72383        0.156785 
        5.78054         1.71672        0.155697 
        5.79626         1.71279        0.154616 
          5.812         1.70021        0.153545 
         5.8277         1.69745        0.152486 
        5.84339          1.6879        0.151438 
        5.85911          1.6817        0.150398 
        5.87484         1.67148        0.149367 
        5.89053         1.66929        0.148348 
        5.90623         1.66378        0.147339 
        5.92195         1.65192        0.146336 
        5.93767         1.64564        0.145344 
        5.95336          1.6428        0.144363 
        5.96905         1.63298        0.143391 
        5.98476         1.62737        0.142426 
        6.00048         1.61907         0.14147 
        6.01617         1.61319        0.140525 
        6.03185         1.60564        0.139589 
        6.04756         1.60146        0.138659 
        6.06331         1.59382        0.137736 
        6.07903         1.58706        0.136823 
        6.09473         1.58104        0.135919 
        6.11044         1.57433        0.135022 
        6.12616         1.56537        0.134134 
        6.14186         1.56012        0.133255 
        6.15755         1.55316        0.132383 
        6.17326         1.54969        0.131519 
        6.18898          1.5441        0.130662 
        6.20467         1.54011        0.129814 
        6.22036         1.53336        0.128974 
         6.2361         1.52745        0.128138 
         6.2518         1.52065        0.127312 
        6.26748         1.51615        0.126495 
        6.28319         1.50657        0.125682 
        6.29893         1.50009        0.124876 
        6.31463          1.4958        0.124079 
        6.33033          1.4891        0.123289 
        6.34604          1.4848        0.122505 
        6.36177         1.47819        0.121727 
        6.37747         1.47389        0.120957 
