# k  (h/Mpc)    Pcb(k)  (Mpc/h)^3    Pcb_linear(k) (Mpc/h)^3   ShotnoiseSubtracted = true
      0.0200456         22051.2         22441.3 
      0.0350414         16828.2         16314.1 
      0.0492313         11594.3         11853.5 
      0.0637834         9346.36         9853.69 
      0.0800726         7334.14         7820.63 
       0.096163         5897.64         5674.55 
       0.111083         4803.63         4526.17 
       0.126058         3969.94          4011.1 
       0.142273         3479.19         3398.29 
       0.158546          2855.4         2683.93 
        0.17375         2553.66         2261.21 
       0.188953         2422.12         2047.48 
       0.204907         2083.88          1811.6 
       0.220756         1884.95         1532.72 
        0.23588         1683.02         1333.34 
         0.2514         1524.84         1211.32 
       0.267535         1471.46         1096.04 
       0.283568         1311.85         966.559 
       0.299022         1251.07         861.154 
       0.314451         1303.37         787.036 
       0.330372         1152.47         722.018 
       0.346141         1058.67         655.341 
       0.361624         1016.22         595.615 
       0.377134          974.82          548.06 
       0.392932          929.78         507.109 
       0.408854         891.748         467.457 
       0.424564         872.846         430.862 
       0.440253         809.562         399.459 
       0.455999         774.328         372.152 
       0.471626         788.316         347.058 
        0.48727         744.178         323.584 
       0.502856         714.148         302.496 
       0.518488         693.499          283.68 
       0.534347          665.85         266.188 
       0.550082          635.14          250.06 
       0.565732         626.389         235.304 
       0.581496         613.336          221.79 
       0.597222          600.33         209.396 
       0.612804         586.138         197.999 
       0.628434         562.076         187.377 
       0.644267         546.539         177.445 
       0.660051         540.588         168.292 
       0.675724         529.545          159.84 
       0.691403         514.721         151.962 
       0.707174         499.061          144.57 
       0.722871          493.58         137.699 
        0.73838         483.177         131.348 
       0.754018         470.995          125.35 
       0.769845         465.544         119.661 
        0.78569         455.796         114.321 
       0.801365         440.373          109.36 
       0.817031         437.062         104.697 
       0.832809          430.35         100.278 
       0.848511         423.108         96.1354 
       0.864097         413.264         92.2562 
       0.879701         412.194         88.5885 
       0.895507         396.275         85.0777 
       0.911279         390.735         81.7654 
        0.92691         386.645         78.6577 
       0.942635         382.273         75.6951 
       0.958396         369.661         72.8795 
       0.974128         365.276         70.2129 
       0.989692          354.39         67.7066 
        1.00528         351.798         65.3194 
        1.02113         345.871         63.0104 
        1.03692          340.52          60.822 
        1.05264         335.456          58.748 
        1.06832         328.974         56.7744 
        1.08405         326.824         54.8866 
        1.09979         320.234         53.0838 
        1.11537         311.883         51.3802 
        1.13105         308.419         49.7414 
        1.14679          303.55         48.1681 
        1.16256         301.818           46.66 
        1.17828         296.781         45.2217 
        1.19395         289.308         43.8491 
         1.2097         288.301         42.5267 
        1.22537         283.328         41.2655 
          1.241         276.967         40.0593 
        1.25666         274.555         38.8985 
        1.27241         270.702         37.7785 
        1.28819         264.662         36.7008 
        1.30392         264.623         35.6684 
        1.31957         256.866         34.6804 
        1.33529         253.782         33.7264 
        1.35108         252.502         32.8046 
        1.36674         245.544         31.9239 
         1.3824         243.774         31.0765 
        1.39811         241.275         30.2571 
        1.41389         234.977         29.4642 
        1.42964         232.311         28.7011 
        1.44531         230.139         27.9689 
        1.46101          226.11         27.2607 
        1.47667         223.457         26.5792 
        1.49229         220.329         25.9229 
        1.50793         217.286         25.2881 
        1.52367         213.993         24.6705 
        1.53953         210.075         24.0695 
        1.55526         208.404         23.4933 
        1.57092         206.645         22.9384 
        1.58662         201.873         22.4001 
        1.60235         199.785         21.8781 
        1.61809         197.543         21.3726 
        1.63369           193.8         20.8875 
        1.64941         191.225          20.414 
        1.66519         188.902         19.9536 
        1.68085         185.645         19.5106 
        1.69652         183.986          19.081 
        1.71228         181.002          18.662 
        1.72806         179.114         18.2552 
        1.74368         176.879         17.8646 
        1.75933         175.685         17.4847 
        1.77505         172.961         17.1141 
        1.79081          169.37         16.7536 
         1.8065         168.203         16.4051 
        1.82218         164.364         16.0667 
        1.83797         163.391         15.7357 
        1.85367         160.962         15.4158 
        1.86928         158.651         15.1067 
        1.88497         157.425         14.8044 
        1.90073         155.722         14.5094 
        1.91647         152.634         14.2226 
        1.93218         150.665         13.9442 
        1.94787         148.733         13.6736 
        1.96363         148.169         13.4092 
        1.97935         146.291         13.1524 
        1.99499         143.977         12.9037 
        2.01064         140.994         12.6611 
         2.0264         140.537         12.4232 
        2.04216         138.281         12.1916 
        2.05781         135.832         11.9673 
        2.07353         134.968         11.7479 
        2.08928         133.238         11.5335 
        2.10499         131.952          11.325 
        2.12065         130.436         11.1224 
        2.13633         128.551         10.9245 
        2.15211          126.47         10.7302 
        2.16785         125.205         10.5411 
        2.18349         123.771         10.3578 
        2.19916         122.165         10.1784 
        2.21489         120.729         10.0028 
        2.23063         119.048         9.83111 
         2.2463         117.474         9.66426 
        2.26194         116.535         9.50171 
        2.27765          114.73         9.34207 
        2.29341         113.719         9.18568 
        2.30914         112.532          9.0332 
        2.32486         110.504         8.88426 
        2.34061         109.396         8.73844 
        2.35635         108.537         8.59603 
        2.37203         106.612         8.45729 
        2.38768         105.928         8.32189 
        2.40339         104.119         8.18898 
        2.41914         103.078         8.05866 
        2.43483         102.378         7.93164 
         2.4505         100.838         7.80757 
        2.46622         99.4805         7.68573 
        2.48195         98.6937         7.56648 
        2.49759         97.2084          7.4504 
        2.51328         96.3928         7.33646 
        2.52906           95.24         7.22418 
        2.54479         93.9574         7.11467 
        2.56049         92.7313         7.00764 
        2.57618         91.8232         6.90291 
        2.59189         91.0504         6.80016 
        2.60758         89.5077         6.69967 
        2.62325         89.1703         6.60133 
        2.63898         88.0189         6.50463 
        2.65468         87.0437         6.41006 
        2.67044         85.8159         6.31697 
        2.68618         84.7394         6.22594 
        2.70184         83.7789         6.13708 
        2.71755         83.2049         6.04972 
        2.73329         81.7987         5.96394 
        2.74897         81.0845         5.88009 
        2.76462         80.5495         5.79805 
        2.78034         79.0438         5.71723 
        2.79607         78.1994         5.63787 
        2.81179         77.6209          5.5601 
        2.82749         76.8303         5.48389 
        2.84321         75.7159         5.40903 
        2.85893         74.7286         5.33558 
        2.87462         74.1642         5.26363 
        2.89033         73.3462         5.19293 
        2.90605         72.6525         5.12347 
        2.92176         71.8847         5.05532 
        2.93747         71.2065         4.98845 
        2.95318          70.008         4.92277 
        2.96891         69.6094         4.85824 
        2.98456         68.6827         4.79515 
        3.00023           68.02          4.7331 
        3.01596         67.5138         4.67195 
        3.03164          66.651         4.61205 
        3.04738         66.3608         4.55303 
         3.0631         65.1896         4.49506 
        3.07883         64.7179          4.4381 
        3.09456         63.8708         4.38213 
        3.11026          63.374         4.32722 
        3.12596         62.6373         4.27325 
        3.14163         61.9513         4.22033 
        3.15734         61.1576         4.16818 
        3.17308         60.7274         4.11679 
        3.18879         60.1408          4.0664 
        3.20447         59.6767         4.01693 
         3.2202         58.7924         3.96813 
         3.2359          58.157         3.92023 
        3.25157         57.8454         3.87323 
        3.26729         57.1583         3.82686 
        3.28304         56.3825         3.78116 
        3.29877          56.004         3.73626 
        3.31446         55.4049         3.69219 
        3.33014         54.9039         3.64887 
        3.34585         54.3324         3.60618 
        3.36158         53.9773         3.56411 
        3.37727         53.2566         3.52284 
        3.39294         52.7758         3.48226 
        3.40867         52.3163         3.44218 
        3.42439          51.701         3.40275 
        3.44008         51.1245         3.36401 
        3.45578         50.7323         3.32584 
        3.47153         50.2239         3.28819 
        3.48724         49.7247         3.25118 
        3.50292         49.2618         3.21483 
        3.51859         48.8018         3.17905 
        3.53431         48.1964         3.14371 
        3.55007         47.7351         3.10882 
        3.56577         47.2822         3.07459 
        3.58146         46.7682         3.04089 
        3.59719         46.3766         3.00762 
        3.61292         45.8328         2.97486 
        3.62859         45.5627         2.94271 
        3.64429         45.1994         2.91098 
        3.66003         44.8047         2.87961 
        3.67578         44.3143         2.84872 
        3.69146          43.896          2.8184 
        3.70712         43.5255         2.78857 
        3.72284         43.1181         2.75907 
        3.73853         42.6777         2.73004 
        3.75422         42.2534         2.70142 
        3.76993          41.903         2.67319 
        3.78564         41.5134         2.64537 
        3.80137         41.2321          2.6179 
        3.81707         40.6628         2.59088 
        3.83279         40.4278         2.56421 
        3.84853         39.9802         2.53788 
        3.86424         39.5428         2.51197 
        3.87992          39.241         2.48646 
        3.89561         38.9477         2.46131 
        3.91134         38.6041         2.43645 
        3.92704         38.2423         2.41196 
        3.94273         37.8836         2.38783 
        3.95845         37.5308         2.36399 
        3.97418         37.2183         2.34047 
        3.98988         36.8254          2.3173 
        4.00554         36.5353         2.29451 
        4.02125         36.2874         2.27196 
        4.03698         35.8678         2.24967 
        4.05268          35.691         2.22774 
        4.06839         35.2685         2.20608 
         4.0841         35.0627         2.18472 
        4.09983          34.663          2.1636 
        4.11555         34.3987         2.14278 
        4.13124         34.0015         2.12229 
        4.14693         33.7382         2.10205 
        4.16266          33.473         2.08202 
        4.17839         33.1659         2.06227 
        4.19408          32.926         2.04282 
        4.20977         32.6636         2.02361 
        4.22551         32.2942          2.0046 
        4.24123           32.07         1.98586 
        4.25691          31.773          1.9674 
        4.27259         31.5409         1.94918 
        4.28831         31.2128         1.93115 
        4.30404         30.9905         1.91333 
        4.31974         30.7099         1.89577 
        4.33543         30.4764         1.87844 
        4.35116         30.1969         1.86129 
        4.36688         29.9063         1.84436 
        4.38255         29.7348          1.8277 
        4.39825         29.4001         1.81121 
        4.41398         29.1879          1.7949 
         4.4297         28.9603          1.7788 
        4.44541         28.8096          1.7629 
        4.46111         28.4363         1.74721 
        4.47683         28.2327         1.73169 
        4.49251         28.0418          1.7164 
        4.50819         27.8276         1.70129 
         4.5239         27.5097         1.68635 
        4.53962         27.3641         1.67157 
        4.55535         27.0948         1.65695 
        4.57106         26.8661         1.64253 
        4.58678         26.6882         1.62828 
         4.6025         26.4623          1.6142 
        4.61821         26.2996         1.60028 
        4.63391           25.95         1.58655 
         4.6496         25.7908         1.57298 
        4.66532         25.6246         1.55955 
        4.68103         25.3845         1.54629 
        4.69673         25.1895         1.53319 
        4.71241         25.0301         1.52025 
        4.72811         24.7922         1.50745 
        4.74384         24.5934         1.49477 
        4.75955         24.4307         1.48226 
        4.77525          24.209          1.4699 
        4.79096         23.9772         1.45766 
        4.80669         23.8625         1.44556 
         4.8224         23.6362         1.43361 
        4.83809         23.3947          1.4218 
        4.85379         23.2279         1.41013 
         4.8695         23.0903         1.39857 
        4.88521         22.8409         1.38715 
        4.90093         22.7375         1.37585 
        4.91663         22.5067         1.36469 
        4.93234         22.3385         1.35364 
        4.94807         22.1682         1.34271 
        4.96377         22.0236         1.33192 
        4.97943         21.8193         1.32127 
        4.99514         21.6842         1.31071 
        5.01086         21.5192         1.30025 
        5.02654         21.3535         1.28994 
        5.04227         21.2073          1.2797 
          5.058         20.9958         1.26958 
        5.07371          20.803         1.25958 
        5.08942         20.6579         1.24969 
        5.10513         20.5674          1.2399 
        5.12084         20.4013         1.23022 
        5.13656         20.2054         1.22064 
        5.15225         20.0998         1.21117 
        5.16796         19.9138          1.2018 
        5.18369         19.7507         1.19251 
         5.1994         19.6042         1.18334 
        5.21509         19.4456         1.17427 
        5.23079         19.3322         1.16529 
        5.24649          19.176         1.15641 
        5.26217         19.0624         1.14762 
        5.27788         18.9074         1.13892 
        5.29359         18.7499          1.1303 
        5.30933         18.5874         1.12176 
        5.32504         18.4755         1.11333 
        5.34073         18.3307         1.10499 
        5.35646         18.2142         1.09671 
        5.37218         18.0384         1.08852 
        5.38789          17.919         1.08043 
        5.40357         17.7866         1.07243 
        5.41929         17.6767         1.06449 
        5.43502         17.5264         1.05663 
         5.4507         17.3855         1.04887 
        5.46639         17.2519         1.04119 
        5.48212         17.1564         1.03357 
        5.49786         17.0465         1.02601 
        5.51353         16.9516         1.01856 
        5.52921         16.8004         1.01119 
        5.54495         16.6798         1.00386 
        5.56066         16.5402        0.996614 
        5.57637         16.4381        0.989441 
        5.59207         16.3093        0.982344 
        5.60778         16.2156        0.975314 
        5.62346         16.0825        0.968362 
        5.63916         15.9767        0.961472 
        5.65487          15.854        0.954645 
         5.6706         15.7297        0.947877 
        5.68633         15.6347        0.941171 
        5.70203         15.5168        0.934544 
        5.71773         15.4122        0.927983 
        5.73344         15.3137         0.92148 
        5.74916          15.196        0.915034 
        5.76486         15.0932        0.908658 
        5.78054         14.9777        0.902353 
        5.79626         14.8541         0.89609 
          5.812         14.7946         0.88988 
         5.8277         14.6589        0.883746 
        5.84339         14.5658        0.877671 
        5.85911         14.4702        0.871641 
        5.87484         14.3513        0.865669 
        5.89053         14.2262        0.859765 
        5.90623          14.184        0.853912 
        5.92195         14.0496        0.848105 
        5.93767          13.966        0.842354 
        5.95336         13.8724        0.836666 
        5.96905         13.7846        0.831033 
        5.98476         13.7038        0.825443 
        6.00048         13.5922        0.819903 
        6.01617         13.5216        0.814422 
        6.03185         13.3908        0.808997 
        6.04756         13.3044        0.803608 
        6.06331         13.2359        0.798257 
        6.07903         13.1257        0.792966 
        6.09473         13.0317        0.787728 
        6.11044         12.9442        0.782532 
        6.12616          12.857        0.777384 
        6.14186         12.7823        0.772288 
        6.15755         12.6883        0.767237 
        6.17326          12.595        0.762227 
        6.18898          12.509         0.75726 
        6.20467         12.4062        0.752346 
        6.22036         12.3218        0.747476 
         6.2361         12.2468        0.742636 
         6.2518         12.1758        0.737847 
        6.26748         12.1017         0.73311 
        6.28319         12.0325        0.728402 
        6.29893         11.9485        0.723731 
        6.31463         11.8624        0.719109 
        6.33033         11.7905        0.714529 
        6.34604         11.6842        0.709985 
        6.36177         11.6183        0.705477 
        6.37747         11.5574        0.701016 
