# k  (h/Mpc)    Pcb(k)  (Mpc/h)^3    Pcb_linear(k) (Mpc/h)^3   ShotnoiseSubtracted = true
      0.0200456         23845.9         24433.9 
      0.0350414           16894         17762.6 
      0.0492313         12599.4           12906 
      0.0637834         10933.5         10728.6 
      0.0800726         8621.79         8515.05 
       0.096163         5970.85         6178.41 
       0.111083         4814.25         4928.06 
       0.126058         4428.27         4367.27 
       0.142273         3836.67         3700.03 
       0.158546         3386.47         2922.25 
        0.17375         2713.96            2462 
       0.188953         2657.97         2229.28 
       0.204907         2497.19         1972.46 
       0.220756          2170.8         1668.82 
        0.23588         1947.82         1451.73 
         0.2514         1699.35         1318.88 
       0.267535         1703.51         1193.36 
       0.283568         1545.47         1052.38 
       0.299022         1465.92         937.619 
       0.314451         1397.44          856.92 
       0.330372         1280.44         786.128 
       0.346141         1239.39         713.531 
       0.361624         1191.53         648.502 
       0.377134         1112.14         596.724 
       0.392932         1065.51         552.137 
       0.408854         1049.84         508.964 
       0.424564         968.425         469.119 
       0.440253         950.697         434.928 
       0.455999         924.795         405.197 
       0.471626         891.983         377.875 
        0.48727         855.848         352.317 
       0.502856         830.074         329.356 
       0.518488         824.769          308.87 
       0.534347         774.437         289.824 
       0.550082         758.814         272.263 
       0.565732         752.549         256.198 
       0.581496         713.805         241.484 
       0.597222         698.528         227.989 
       0.612804         688.335          215.58 
       0.628434         669.741         204.015 
       0.644267         652.766         193.202 
       0.660051         636.043         183.236 
       0.675724         628.799         174.033 
       0.691403         609.011         165.455 
       0.707174         589.536         157.407 
       0.722871         581.351         149.926 
        0.73838         570.508         143.011 
       0.754018         560.143         136.481 
       0.769845         550.883         130.287 
        0.78569         540.572         124.472 
       0.801365         526.923          119.07 
       0.817031         514.842         113.994 
       0.832809         509.711         109.182 
       0.848511         498.873         104.672 
       0.864097         483.345         100.448 
       0.879701         477.027         96.4546 
       0.895507         475.429         92.6321 
       0.911279         463.053         89.0257 
        0.92691         456.586         85.6421 
       0.942635          444.63         82.4164 
       0.958396         433.882         79.3508 
       0.974128         428.612         76.4474 
       0.989692         426.345         73.7185 
        1.00528         413.237         71.1194 
        1.02113         411.347         68.6053 
        1.03692         400.412         66.2226 
        1.05264         396.901         63.9645 
        1.06832         386.369         61.8156 
        1.08405         381.863         59.7602 
        1.09979         376.166         57.7973 
        1.11537         369.151         55.9424 
        1.13105          363.66         54.1582 
        1.14679         353.694         52.4451 
        1.16256         346.884         50.8032 
        1.17828         346.797         49.2372 
        1.19395         338.644         47.7427 
         1.2097         331.713         46.3029 
        1.22537          325.82         44.9296 
          1.241         321.723         43.6163 
        1.25666         317.623         42.3525 
        1.27241         312.454          41.133 
        1.28819         307.041         39.9596 
        1.30392          300.97         38.8355 
        1.31957         298.886         37.7598 
        1.33529         294.539         36.7211 
        1.35108         288.175         35.7174 
        1.36674         283.166         34.7586 
         1.3824         281.185         33.8359 
        1.39811         276.213         32.9437 
        1.41389         273.226         32.0804 
        1.42964         269.782         31.2496 
        1.44531         266.055         30.4524 
        1.46101         260.559         29.6813 
        1.47667         257.663         28.9393 
        1.49229         254.724         28.2247 
        1.50793         248.428         27.5335 
        1.52367         247.258         26.8611 
        1.53953         242.965         26.2067 
        1.55526         239.191         25.5793 
        1.57092         236.895         24.9752 
        1.58662         234.268         24.3891 
        1.60235         230.055         23.8208 
        1.61809          227.25         23.2703 
        1.63369         224.659         22.7422 
        1.64941         220.318         22.2267 
        1.66519          218.44         21.7253 
        1.68085         215.543         21.2431 
        1.69652         212.364         20.7753 
        1.71228         207.127          20.319 
        1.72806         205.141         19.8761 
        1.74368         202.202         19.4509 
        1.75933         199.397         19.0372 
        1.77505         197.824         18.6337 
        1.79081         195.429         18.2412 
         1.8065         191.397         17.8617 
        1.82218         189.571         17.4934 
        1.83797         188.364         17.1329 
        1.85367         185.071         16.7846 
        1.86928         181.901         16.4481 
        1.88497         179.837          16.119 
        1.90073         177.505         15.7977 
        1.91647         176.385         15.4855 
        1.93218         173.501         15.1823 
        1.94787          169.65         14.8878 
        1.96363         167.757         14.5999 
        1.97935         166.427         14.3202 
        1.99499         164.271         14.0494 
        2.01064         162.074         13.7853 
         2.0264         160.754         13.5263 
        2.04216         158.424         13.2741 
        2.05781         156.165         13.0299 
        2.07353          154.69          12.791 
        2.08928          151.95         12.5576 
        2.10499         150.723         12.3306 
        2.12065         148.322           12.11 
        2.13633         146.282         11.8945 
        2.15211          144.29         11.6829 
        2.16785         143.063         11.4771 
        2.18349          141.56         11.2775 
        2.19916         139.509         11.0822 
        2.21489         138.271         10.8909 
        2.23063          135.98          10.704 
         2.2463         134.312         10.5224 
        2.26194         132.272         10.3454 
        2.27765         131.106         10.1716 
        2.29341         129.708         10.0013 
        2.30914         128.289         9.83529 
        2.32486         126.314         9.67313 
        2.34061         124.887         9.51436 
        2.35635         123.322         9.35931 
        2.37203         122.207         9.20824 
        2.38768         120.258         9.06083 
        2.40339         119.103         8.91611 
        2.41914         117.583         8.77422 
        2.43483         116.236         8.63592 
         2.4505         115.033         8.50083 
        2.46622         113.679         8.36817 
        2.48195         111.886         8.23834 
        2.49759         110.748         8.11195 
        2.51328         109.918         7.98789 
        2.52906         108.377         7.86564 
        2.54479         107.314         7.74641 
        2.56049          105.71         7.62988 
        2.57618          104.91         7.51585 
        2.59189         103.922         7.40398 
        2.60758         102.643         7.29456 
        2.62325         101.015         7.18749 
        2.63898          99.874          7.0822 
        2.65468         98.7926         6.97923 
        2.67044         98.0535         6.87788 
        2.68618         97.0084         6.77877 
        2.70184          96.114         6.68201 
        2.71755         94.5088          6.5869 
        2.73329         93.7414          6.4935 
        2.74897         92.8025         6.40221 
        2.76462         91.6865         6.31288 
        2.78034         90.6648         6.22488 
        2.79607         89.3761         6.13848 
        2.81179         88.6335         6.05381 
        2.82749         87.7151         5.97083 
        2.84321         86.6321         5.88932 
        2.85893         85.8048         5.80935 
        2.87462         84.8817           5.731 
        2.89033         83.8196         5.65403 
        2.90605         82.9449         5.57841 
        2.92176         81.9112          5.5042 
        2.93747         81.2319         5.43139 
        2.95318         80.2426         5.35988 
        2.96891         79.6412         5.28962 
        2.98456         78.6888         5.22093 
        3.00023         77.8476         5.15337 
        3.01596         76.7821         5.08679 
        3.03164         76.1887         5.02157 
        3.04738         75.1135         4.95731 
         3.0631         74.3866         4.89419 
        3.07883         73.8244         4.83217 
        3.09456         73.3384         4.77124 
        3.11026         72.3174         4.71145 
        3.12596         71.4137         4.65269 
        3.14163         71.0288         4.59507 
        3.15734         69.9178         4.53829 
        3.17308         69.2365         4.48233 
        3.18879         68.7007         4.42747 
        3.20447         67.8477         4.37361 
         3.2202         67.3065         4.32047 
         3.2359         66.4502         4.26832 
        3.25157         65.9401         4.21715 
        3.26729         65.2767         4.16666 
        3.28304         64.7436          4.1169 
        3.29877         63.9928         4.06802 
        3.31446         63.0711         4.02003 
        3.33014         62.6375         3.97287 
        3.34585         61.8696         3.92639 
        3.36158          61.427         3.88058 
        3.37727         60.9501         3.83565 
        3.39294         59.9977         3.79147 
        3.40867          59.608         3.74782 
        3.42439         59.0896         3.70489 
        3.44008         58.3871         3.66271 
        3.45578         57.7834         3.62116 
        3.47153          57.237         3.58016 
        3.48724         56.8371         3.53987 
        3.50292         56.3677         3.50029 
        3.51859         55.6667         3.46133 
        3.53431         55.3063         3.42285 
        3.55007         54.7463         3.38486 
        3.56577         54.3361         3.34759 
        3.58146         53.7224         3.31091 
        3.59719         53.0676         3.27468 
        3.61292         52.6087         3.23901 
        3.62859         52.0138         3.20401 
        3.64429         51.6064         3.16945 
        3.66003         51.2393          3.1353 
        3.67578         50.7001         3.10167 
        3.69146          50.137         3.06866 
        3.70712         49.6341         3.03618 
        3.72284         49.2705         3.00406 
        3.73853           48.76         2.97245 
        3.75422          48.246         2.94129 
        3.76993         47.7183         2.91055 
        3.78564         47.4006         2.88026 
        3.80137         46.9626         2.85035 
        3.81707         46.4153         2.82093 
        3.83279          46.063          2.7919 
        3.84853          45.785         2.76323 
        3.86424         45.2801         2.73502 
        3.87992         44.7677         2.70725 
        3.89561         44.4835         2.67986 
        3.91134         44.0656         2.65279 
        3.92704         43.5398         2.62613 
        3.94273         43.1387         2.59986 
        3.95845          42.874          2.5739 
        3.97418          42.489         2.54829 
        3.98988         42.1008         2.52306 
        4.00554          41.755         2.49825 
        4.02125         41.3273         2.47369 
        4.03698         40.9033         2.44943 
        4.05268          40.597         2.42555 
        4.06839         40.1727         2.40197 
         4.0841         39.8657          2.3787 
        4.09983         39.5935         2.35572 
        4.11555         39.1835         2.33305 
        4.13124         38.8635         2.31073 
        4.14693         38.5885         2.28869 
        4.16266         38.2489         2.26689 
        4.17839         37.8229         2.24539 
        4.19408         37.4468         2.22421 
        4.20977         37.2115         2.20329 
        4.22551         36.8872          2.1826 
        4.24123         36.5948         2.16219 
        4.25691         36.2582          2.1421 
        4.27259         35.9114         2.12225 
        4.28831         35.6504         2.10262 
        4.30404         35.3503         2.08322 
        4.31974         35.0513          2.0641 
        4.33543         34.6672         2.04524 
        4.35116         34.5008         2.02656 
        4.36688         34.1177         2.00813 
        4.38255         33.8177         1.98999 
        4.39825         33.6019         1.97204 
        4.41398         33.3285         1.95427 
         4.4297         33.0006         1.93674 
        4.44541         32.7817         1.91943 
        4.46111         32.4452         1.90235 
        4.47683          32.166         1.88546 
        4.49251         31.9276         1.86881 
        4.50819         31.6944         1.85236 
         4.5239         31.4719         1.83609 
        4.53962         31.1643         1.81999 
        4.55535         30.8949         1.80408 
        4.57106         30.6348         1.78838 
        4.58678         30.4409         1.77287 
         4.6025         30.1063         1.75753 
        4.61821          29.954         1.74238 
        4.63391         29.6642         1.72743 
         4.6496         29.4409         1.71265 
        4.66532         29.2031         1.69803 
        4.68103         28.9849         1.68359 
        4.69673         28.7265         1.66933 
        4.71241          28.552         1.65524 
        4.72811         28.3111          1.6413 
        4.74384         28.1241          1.6275 
        4.75955         27.7916         1.61387 
        4.77525         27.6634         1.60041 
        4.79096         27.4216         1.58709 
        4.80669         27.1675         1.57392 
         4.8224         26.9432          1.5609 
        4.83809         26.8001         1.54805 
        4.85379         26.6084         1.53534 
         4.8695         26.3217         1.52276 
        4.88521         26.1258         1.51032 
        4.90093         25.9073         1.49802 
        4.91663          25.681         1.48587 
        4.93234         25.4425         1.47384 
        4.94807         25.3726         1.46194 
        4.96377         25.1653         1.45019 
        4.97943         24.8998         1.43859 
        4.99514         24.7249         1.42709 
        5.01086         24.5762         1.41571 
        5.02654         24.3386         1.40448 
        5.04227         24.1645         1.39333 
          5.058         24.0293         1.38231 
        5.07371         23.7991         1.37142 
        5.08942         23.5756         1.36065 
        5.10513          23.444            1.35 
        5.12084          23.312         1.33945 
        5.13656         23.1466         1.32902 
        5.15225         22.9188         1.31872 
        5.16796         22.7257         1.30851 
        5.18369         22.5596          1.2984 
         5.1994          22.372         1.28841 
        5.21509         22.2459         1.27854 
        5.23079         22.0511         1.26876 
        5.24649         21.9531         1.25909 
        5.26217         21.7537         1.24952 
        5.27788         21.6087         1.24005 
        5.29359         21.4375         1.23067 
        5.30933         21.2162         1.22137 
        5.32504          21.085         1.21218 
        5.34073         20.9941          1.2031 
        5.35646         20.8158         1.19409 
        5.37218         20.6423         1.18518 
        5.38789         20.5016         1.17637 
        5.40357         20.3813         1.16766 
        5.41929          20.143         1.15901 
        5.43502         20.1007         1.15046 
         5.4507         19.8905         1.14201 
        5.46639         19.7694         1.13364 
        5.48212         19.6355         1.12534 
        5.49786         19.4715         1.11711 
        5.51353         19.3144         1.10901 
        5.52921           19.17         1.10097 
        5.54495          19.059           1.093 
        5.56066         18.9185         1.08511 
        5.57637         18.7714          1.0773 
        5.59207         18.6328         1.06957 
        5.60778         18.4667         1.06192 
        5.62346         18.3651         1.05435 
        5.63916         18.2443         1.04685 
        5.65487         18.1488         1.03941 
         5.6706         17.9956         1.03204 
        5.68633         17.8582         1.02474 
        5.70203         17.7028         1.01753 
        5.71773         17.6443         1.01038 
        5.73344         17.5085          1.0033 
        5.74916         17.3486        0.996283 
        5.76486         17.2601        0.989341 
        5.78054          17.139        0.982476 
        5.79626         16.9841        0.975657 
          5.812          16.911        0.968895 
         5.8277         16.7347        0.962218 
        5.84339         16.6564        0.955603 
        5.85911          16.558        0.949038 
        5.87484         16.4069        0.942535 
        5.89053         16.2738        0.936106 
        5.90623         16.1783        0.929735 
        5.92195         16.0792        0.923411 
        5.93767          15.963         0.91715 
        5.95336         15.8692        0.910957 
        5.96905          15.733        0.904823 
        5.98476         15.6344        0.898737 
        6.00048         15.5326        0.892706 
        6.01617         15.4341        0.886737 
        6.03185         15.3163        0.880831 
        6.04756         15.1967        0.874964 
        6.06331         15.1008        0.869138 
        6.07903         15.0127        0.863377 
        6.09473         14.9152        0.857673 
        6.11044         14.7744        0.852016 
        6.12616         14.6828        0.846411 
        6.14186         14.5758        0.840862 
        6.15755         14.4893        0.835363 
        6.17326         14.3986        0.829909 
        6.18898         14.3156          0.8245 
        6.20467         14.2168         0.81915 
        6.22036         14.1084        0.813848 
         6.2361         13.9986        0.808578 
         6.2518         13.9222        0.803363 
        6.26748         13.8234        0.798206 
        6.28319         13.7247         0.79308 
        6.29893         13.6434        0.787994 
        6.31463         13.5299        0.782961 
        6.33033         13.4984        0.777975 
        6.34604         13.3791        0.773027 
        6.36177         13.2887        0.768119 
        6.37747          13.209        0.763262 
