# k  (h/Mpc)    Pcb(k)  (Mpc/h)^3    Pcb_linear(k) (Mpc/h)^3   ShotnoiseSubtracted = true
      0.0200456         7465.63          7596.1 
      0.0350414          5396.3         5522.11 
      0.0492313         3995.48         4012.26 
      0.0637834          3395.5         3335.35 
      0.0800726         2689.59         2647.19 
       0.096163         1890.55         1920.77 
       0.111083         1500.69         1532.05 
       0.126058         1376.96         1357.71 
       0.142273         1186.67         1150.28 
       0.158546         974.128         908.479 
        0.17375         786.847         765.393 
       0.188953         750.386         693.046 
       0.204907         702.144         613.204 
       0.220756         591.031         518.808 
        0.23588         517.788         451.318 
         0.2514         455.489         410.018 
       0.267535         435.363         370.996 
       0.283568         394.099         327.168 
       0.299022         364.077          291.49 
       0.314451         335.793         266.402 
       0.330372          310.81         244.394 
       0.346141         279.912         221.825 
       0.361624         267.187         201.608 
       0.377134         250.291         185.512 
       0.392932          231.13          171.65 
       0.408854         221.611         158.228 
       0.424564         212.268         145.841 
       0.440253         200.825         135.212 
       0.455999         188.984         125.969 
       0.471626         174.814         117.475 
        0.48727         169.809         109.529 
       0.502856         162.929         102.391 
       0.518488         159.109         96.0224 
       0.534347         151.455         90.1015 
       0.550082         140.572         84.6421 
       0.565732         136.083         79.6476 
       0.581496         130.282         75.0732 
       0.597222          126.22          70.878 
       0.612804          120.46         67.0204 
       0.628434         117.715         63.4247 
       0.644267         113.674         60.0631 
       0.660051         111.301         56.9649 
       0.675724         107.746          54.104 
       0.691403          104.47         51.4372 
       0.707174         100.436         48.9352 
       0.722871         98.7963         46.6095 
        0.73838         96.7576         44.4598 
       0.754018         92.2216         42.4295 
       0.769845         90.4537         40.5039 
        0.78569         88.2573         38.6962 
       0.801365         85.5415         37.0169 
       0.817031         82.6623         35.4387 
       0.832809         81.7312         33.9429 
       0.848511         78.6379         32.5407 
       0.864097         76.6196         31.2276 
       0.879701         75.6582         29.9861 
       0.895507         74.1632         28.7978 
       0.911279         72.8404         27.6766 
        0.92691         71.0142         26.6247 
       0.942635          68.861         25.6219 
       0.958396         68.5956         24.6688 
       0.974128         66.8136         23.7662 
       0.989692         65.3503         22.9178 
        1.00528         64.0565         22.1098 
        1.02113         62.7153         21.3282 
        1.03692         61.0479         20.5875 
        1.05264         60.7651         19.8855 
        1.06832         59.1409         19.2174 
        1.08405         58.4472         18.5784 
        1.09979         57.8029         17.9682 
        1.11537         55.6058         17.3916 
        1.13105         56.0324         16.8369 
        1.14679         54.8023         16.3043 
        1.16256         53.8645         15.7939 
        1.17828         52.5058          15.307 
        1.19395         52.0537         14.8424 
         1.2097         50.9969         14.3948 
        1.22537         50.8684         13.9678 
          1.241         49.5282         13.5596 
        1.25666         48.5764         13.1667 
        1.27241         48.2042         12.7875 
        1.28819         47.0506         12.4228 
        1.30392         46.4113         12.0733 
        1.31957         46.0761         11.7389 
        1.33529         45.4435          11.416 
        1.35108         44.9971         11.1039 
        1.36674         44.2494         10.8059 
         1.3824         43.1623          10.519 
        1.39811         43.0511         10.2417 
        1.41389         42.3721         9.97327 
        1.42964         41.6853         9.71498 
        1.44531         41.2079         9.46713 
        1.46101         40.3298         9.22742 
        1.47667         40.2794         8.99674 
        1.49229         39.8445         8.77459 
        1.50793         39.1043         8.55972 
        1.52367         38.6452         8.35067 
        1.53953         38.4029         8.14721 
        1.55526         37.6783         7.95218 
        1.57092         37.3238         7.76436 
        1.58662         36.8396         7.58216 
        1.60235          36.469         7.40548 
        1.61809         35.8706         7.23435 
        1.63369         35.4193         7.07016 
        1.64941         34.9086          6.9099 
        1.66519         34.5656         6.75404 
        1.68085         34.2613         6.60411 
        1.69652         33.8337          6.4587 
        1.71228         33.6068         6.31685 
        1.72806         33.0594         6.17915 
        1.74368         32.6073         6.04695 
        1.75933          32.258         5.91836 
        1.77505          32.104         5.79291 
        1.79081         31.5479         5.67089 
         1.8065         31.2231         5.55291 
        1.82218         30.9795          5.4384 
        1.83797         30.5477         5.32633 
        1.85367         30.1459         5.21805 
        1.86928         29.9393         5.11344 
        1.88497         29.4891         5.01112 
        1.90073          29.402         4.91124 
        1.91647         28.9561         4.81417 
        1.93218         28.7196         4.71993 
        1.94787         28.3704         4.62836 
        1.96363         28.1907         4.53886 
        1.97935         27.8393         4.45191 
        1.99499          27.512         4.36774 
        2.01064         27.3461         4.28562 
         2.0264         26.8541          4.2051 
        2.04216          26.599         4.12669 
        2.05781         26.3469         4.05078 
        2.07353         26.1089         3.97651 
        2.08928         26.0765         3.90395 
        2.10499         25.7673         3.83339 
        2.12065         25.3026         3.76479 
        2.13633         25.2217         3.69781 
        2.15211         24.7262         3.63202 
        2.16785         24.6013         3.56803 
        2.18349         24.4071         3.50598 
        2.19916         24.1933         3.44528 
        2.21489         23.8599         3.38581 
        2.23063         23.7005         3.32771 
         2.2463         23.5402         3.27123 
        2.26194         23.3404         3.21621 
        2.27765         23.0122         3.16217 
        2.29341         22.7489         3.10924 
        2.30914         22.6607         3.05763 
        2.32486         22.3995         3.00721 
        2.34061          22.198         2.95786 
        2.35635         21.8995         2.90965 
        2.37203         21.7624         2.86269 
        2.38768         21.5389         2.81686 
        2.40339         21.4084         2.77187 
        2.41914          21.162         2.72776 
        2.43483         20.9308         2.68476 
         2.4505         20.7275         2.64277 
        2.46622         20.5256         2.60152 
        2.48195         20.3466         2.56116 
        2.49759         20.1087         2.52187 
        2.51328          19.945          2.4833 
        2.52906         19.8261          2.4453 
        2.54479         19.5793         2.40823 
        2.56049         19.3691           2.372 
        2.57618         19.2179         2.33655 
        2.59189         19.1168         2.30177 
        2.60758         18.9355         2.26776 
        2.62325         18.7591         2.23447 
        2.63898           18.64         2.20174 
        2.65468         18.4399         2.16973 
        2.67044         18.2504         2.13822 
        2.68618          18.093         2.10741 
        2.70184         17.9703         2.07733 
        2.71755         17.7694         2.04776 
        2.73329         17.6213         2.01872 
        2.74897         17.3974         1.99034 
        2.76462         17.4649         1.96257 
        2.78034         17.1731         1.93521 
        2.79607         17.0269         1.90835 
        2.81179          16.908         1.88203 
        2.82749          16.746         1.85623 
        2.84321         16.6247         1.83089 
        2.85893         16.4597         1.80603 
        2.87462         16.2958         1.78167 
        2.89033         16.1448         1.75774 
        2.90605         16.0834         1.73423 
        2.92176         15.8321         1.71116 
        2.93747         15.7796         1.68853 
        2.95318         15.5897          1.6663 
        2.96891         15.4609         1.64445 
        2.98456         15.3556          1.6231 
        3.00023         15.2089          1.6021 
        3.01596         15.1191          1.5814 
        3.03164         14.9814         1.56112 
        3.04738         14.7934         1.54114 
         3.0631         14.6881         1.52152 
        3.07883         14.5498         1.50224 
        3.09456         14.4612          1.4833 
        3.11026         14.3191         1.46471 
        3.12596         14.1839         1.44644 
        3.14163         14.1129         1.42853 
        3.15734         13.9493         1.41088 
        3.17308         13.8347         1.39348 
        3.18879         13.7485         1.37643 
        3.20447          13.614         1.35968 
         3.2202         13.4887         1.34316 
         3.2359         13.4173         1.32695 
        3.25157         13.3052         1.31104 
        3.26729         13.1602         1.29534 
        3.28304         13.0655         1.27987 
        3.29877         12.9378         1.26468 
        3.31446         12.8341         1.24976 
        3.33014         12.7181          1.2351 
        3.34585         12.6266         1.22065 
        3.36158         12.5649         1.20641 
        3.37727         12.3981         1.19244 
        3.39294          12.325          1.1787 
        3.40867         12.2175         1.16513 
        3.42439         12.1147         1.15179 
        3.44008         12.0496         1.13868 
        3.45578         11.9422         1.12576 
        3.47153         11.8624         1.11301 
        3.48724          11.752         1.10049 
        3.50292         11.6252         1.08818 
        3.51859          11.575         1.07607 
        3.53431         11.4748         1.06411 
        3.55007         11.3927          1.0523 
        3.56577         11.3012         1.04071 
        3.58146         11.2363          1.0293 
        3.59719         11.0958         1.01804 
        3.61292         11.0126         1.00695 
        3.62859         10.9045        0.996072 
        3.64429         10.8579         0.98533 
        3.66003         10.7317        0.974714 
        3.67578         10.6637        0.964257 
        3.69146         10.5867        0.953993 
        3.70712         10.4994        0.943898 
        3.72284         10.4235        0.933911 
        3.73853         10.3244        0.924086 
        3.75422         10.2934        0.914398 
        3.76993         10.1953        0.904841 
        3.78564          10.087        0.895424 
        3.80137         10.0285        0.886126 
        3.81707         9.92622         0.87698 
        3.83279         9.86295        0.867955 
        3.84853         9.77097        0.859042 
        3.86424         9.69885        0.850272 
        3.87992         9.60826        0.841638 
        3.89561         9.55983        0.833122 
        3.91134          9.4974        0.824708 
        3.92704         9.39759        0.816419 
        3.94273         9.35334        0.808252 
        3.95845          9.2805        0.800182 
        3.97418          9.1814         0.79222 
        3.98988         9.11413        0.784378 
        4.00554         9.06278        0.776662 
        4.02125         8.98712        0.769029 
        4.03698          8.9233        0.761486 
        4.05268         8.86288        0.754062 
        4.06839         8.75864        0.746731 
         4.0841          8.7276        0.739499 
        4.09983         8.64915        0.732354 
        4.11555         8.57859        0.725305 
        4.13124         8.51992        0.718369 
        4.14693         8.43661        0.711517 
        4.16266         8.38305        0.704739 
        4.17839         8.32294        0.698053 
        4.19408          8.2657        0.691469 
        4.20977          8.2034        0.684967 
        4.22551           8.133        0.678533 
        4.24123         8.07398        0.672188 
        4.25691         7.99381        0.665942 
        4.27259         7.94124        0.659773 
        4.28831         7.87625         0.65367 
        4.30404         7.84019        0.647638 
        4.31974         7.76624        0.641695 
        4.33543         7.70259         0.63583 
        4.35116         7.64518        0.630024 
        4.36688         7.58905        0.624293 
        4.38255          7.5316        0.618655 
        4.39825          7.4531        0.613074 
        4.41398         7.43557        0.607551 
         4.4297         7.37219        0.602101 
        4.44541         7.31157         0.59672 
        4.46111         7.25636        0.591408 
        4.47683         7.20424        0.586157 
        4.49251         7.16182         0.58098 
        4.50819         7.09815        0.575867 
         4.5239          7.0525        0.570809 
        4.53962         7.00481        0.565805 
        4.55535         6.94369        0.560858 
        4.57106         6.89857        0.555978 
        4.58678         6.84497        0.551154 
         4.6025         6.79111        0.546387 
        4.61821         6.73283        0.541676 
        4.63391         6.70624        0.537028 
         4.6496         6.64199        0.532436 
        4.66532         6.62251         0.52789 
        4.68103         6.52636        0.523399 
        4.69673         6.50262        0.518965 
        4.71241         6.46233        0.514587 
        4.72811         6.39401        0.510252 
        4.74384          6.3547        0.505961 
        4.75955         6.29558        0.501726 
        4.77525         6.28458        0.497542 
        4.79096         6.21352          0.4934 
        4.80669         6.19547        0.489304 
         4.8224           6.143        0.485259 
        4.83809         6.09529        0.481264 
        4.85379         6.03448        0.477311 
         4.8695         6.00821        0.473399 
        4.88521         5.96665        0.469533 
        4.90093         5.90866        0.465709 
        4.91663         5.88967        0.461932 
        4.93234         5.84493        0.458192 
        4.94807          5.8068        0.454491 
        4.96377         5.76123        0.450838 
        4.97943         5.70942        0.447233 
        4.99514         5.66938        0.443658 
        5.01086         5.64509        0.440119 
        5.02654         5.60053        0.436628 
        5.04227         5.55586        0.433164 
          5.058         5.52821        0.429736 
        5.07371         5.48678        0.426353 
        5.08942         5.44294        0.423004 
        5.10513         5.41305        0.419692 
        5.12084         5.38075        0.416413 
        5.13656         5.34716        0.413171 
        5.15225         5.31948        0.409968 
        5.16796         5.27399        0.406793 
        5.18369         5.23125         0.40365 
         5.1994         5.20132        0.400545 
        5.21509         5.16581        0.397476 
        5.23079         5.13264        0.394436 
        5.24649         5.09587        0.391429 
        5.26217         5.06626        0.388456 
        5.27788         5.02179         0.38551 
        5.29359         4.99151        0.382593 
        5.30933          4.9681        0.379703 
        5.32504         4.92144        0.376847 
        5.34073           4.895        0.374024 
        5.35646         4.85174        0.371224 
        5.37218         4.82531        0.368452 
        5.38789         4.79474        0.365713 
        5.40357         4.75504        0.363005 
        5.41929         4.73109        0.360318 
        5.43502         4.70279        0.357658 
         5.4507         4.67033        0.355031 
        5.46639         4.63049         0.35243 
        5.48212         4.60313         0.34985 
        5.49786         4.57522        0.347292 
        5.51353         4.54636        0.344772 
        5.52921         4.51438        0.342274 
        5.54495         4.49486        0.339794 
        5.56066         4.46038        0.337342 
        5.57637         4.42839        0.334913 
        5.59207         4.39893        0.332511 
        5.60778         4.37935        0.330132 
        5.62346         4.34714        0.327779 
        5.63916         4.32012        0.325447 
        5.65487         4.28084        0.323136 
         5.6706         4.25868        0.320845 
        5.68633         4.23301        0.318575 
        5.70203         4.20677        0.316332 
        5.71773         4.18483        0.314111 
        5.73344         4.16041         0.31191 
        5.74916         4.13098        0.309728 
        5.76486         4.10657         0.30757 
        5.78054         4.08075        0.305435 
        5.79626         4.04955        0.303315 
          5.812         4.03317        0.301213 
         5.8277         4.00436        0.299137 
        5.84339         3.97522        0.297081 
        5.85911         3.95673         0.29504 
        5.87484         3.93354        0.293018 
        5.89053         3.91197         0.29102 
        5.90623         3.88056        0.289039 
        5.92195         3.85361        0.287073 
        5.93767          3.8447        0.285126 
        5.95336         3.81664        0.283201 
        5.96905         3.77815        0.281294 
        5.98476          3.7642        0.279402 
        6.00048         3.73468        0.277527 
        6.01617         3.72204        0.275672 
        6.03185         3.69636        0.273835 
        6.04756         3.68437        0.272011 
        6.06331         3.64703          0.2702 
        6.07903          3.6248        0.268409 
        6.09473         3.61025        0.266636 
        6.11044         3.58316        0.264878 
        6.12616         3.57418        0.263135 
        6.14186         3.54893         0.26141 
        6.15755         3.52622          0.2597 
        6.17326         3.50329        0.258005 
        6.18898         3.48437        0.256323 
        6.20467         3.46202         0.25466 
        6.22036         3.44337        0.253012 
         6.2361         3.41536        0.251373 
         6.2518         3.40679        0.249752 
        6.26748         3.38019        0.248149 
        6.28319         3.35948        0.246555 
        6.29893          3.3434        0.244974 
        6.31463         3.31478         0.24341 
        6.33033         3.31216        0.241859 
        6.34604         3.28042        0.240321 
        6.36177         3.26496        0.238795 
        6.37747         3.24128        0.237285 
