# k  (h/Mpc)    Pcb(k)  (Mpc/h)^3    Pcb_linear(k) (Mpc/h)^3   ShotnoiseSubtracted = true
      0.0200456         8058.35         8201.42 
      0.0350414         5819.14         5962.16 
      0.0492313         4310.71         4331.99 
      0.0637834         3667.28         3601.14 
      0.0800726         2904.43         2858.14 
       0.096163         2039.38         2073.83 
       0.111083         1619.28         1654.14 
       0.126058         1487.07          1465.9 
       0.142273         1282.19         1241.94 
       0.158546         1055.81         980.875 
        0.17375         851.717         826.386 
       0.188953         814.044         748.274 
       0.204907         762.312          662.07 
       0.220756          642.68         560.151 
        0.23588         563.438         487.283 
         0.2514         494.992         442.692 
       0.267535         474.722          400.56 
       0.283568           429.9          353.24 
       0.299022         397.808         314.719 
       0.314451         368.143         287.632 
       0.330372         340.503          263.87 
       0.346141         306.838         239.502 
       0.361624         293.444         217.674 
       0.377134         274.551         200.295 
       0.392932         254.744         185.329 
       0.408854         244.203         170.837 
       0.424564         233.744         157.463 
       0.440253         221.943         145.987 
       0.455999         208.845         136.007 
       0.471626         193.334         126.836 
        0.48727         187.825         118.258 
       0.502856         180.508         110.551 
       0.518488         176.744         103.674 
       0.534347         167.879         97.2816 
       0.550082         156.114         91.3872 
       0.565732         151.622         85.9946 
       0.581496         144.896         81.0557 
       0.597222         140.511         76.5262 
       0.612804         134.341         72.3611 
       0.628434         131.105          68.479 
       0.644267         126.597         64.8495 
       0.660051         124.302         61.5044 
       0.675724         120.593         58.4155 
       0.691403         116.908         55.5362 
       0.707174         112.215         52.8348 
       0.722871         110.705         50.3238 
        0.73838         108.435         48.0028 
       0.754018         103.604         45.8107 
       0.769845         101.557         43.7317 
        0.78569         99.1727         41.7799 
       0.801365         96.2529         39.9667 
       0.817031            92.9         38.2628 
       0.832809         91.8158         36.6478 
       0.848511         88.6765         35.1338 
       0.864097         86.3694         33.7161 
       0.879701         85.2607         32.3757 
       0.895507         83.4348         31.0926 
       0.911279         82.0909         29.8821 
        0.92691         80.1486         28.7464 
       0.942635          77.853         27.6637 
       0.958396         77.5389         26.6347 
       0.974128         75.5021         25.6601 
       0.989692         73.7547         24.7441 
        1.00528         72.2894         23.8717 
        1.02113         71.0465         23.0279 
        1.03692         68.9394         22.2281 
        1.05264         68.7397         21.4701 
        1.06832         66.8699         20.7489 
        1.08405         66.0744         20.0589 
        1.09979         65.4828         19.4001 
        1.11537          63.024         18.7775 
        1.13105         63.4517         18.1786 
        1.14679         62.0816         17.6036 
        1.16256         61.1067         17.0525 
        1.17828         59.5107         16.5268 
        1.19395         59.0651         16.0252 
         1.2097         57.6889         15.5419 
        1.22537         57.6937         15.0809 
          1.241         56.1733         14.6401 
        1.25666         55.1191         14.2159 
        1.27241         54.6561         13.8066 
        1.28819         53.4778         13.4127 
        1.30392         52.7305         13.0354 
        1.31957          52.291         12.6744 
        1.33529         51.4582         12.3257 
        1.35108         51.1216         11.9888 
        1.36674         50.3236          11.667 
         1.3824         49.0913         11.3573 
        1.39811          48.907         11.0578 
        1.41389          48.119          10.768 
        1.42964         47.4228         10.4892 
        1.44531         46.7655         10.2216 
        1.46101         45.8809         9.96274 
        1.47667         45.8239         9.71368 
        1.49229         45.2628         9.47383 
        1.50793         44.4915         9.24183 
        1.52367         43.8699         9.01612 
        1.53953         43.5837         8.79646 
        1.55526         42.8622         8.58588 
        1.57092         42.4864         8.38309 
        1.58662         41.9384         8.18638 
        1.60235         41.4836         7.99562 
        1.61809         40.8005         7.81085 
        1.63369         40.2362         7.63357 
        1.64941         39.7076         7.46054 
        1.66519         39.2305         7.29227 
        1.68085         38.9396         7.13039 
        1.69652         38.4028         6.97338 
        1.71228         38.1838         6.82023 
        1.72806         37.6308         6.67156 
        1.74368         37.0777         6.52882 
        1.75933         36.6909         6.38999 
        1.77505         36.4595         6.25454 
        1.79081         35.8603          6.1228 
         1.8065         35.4822         5.99541 
        1.82218         35.1746         5.87178 
        1.83797         34.6783         5.75078 
        1.85367         34.2009         5.63387 
        1.86928         34.0052         5.52092 
        1.88497         33.5704         5.41045 
        1.90073         33.3267         5.30261 
        1.91647         32.9008          5.1978 
        1.93218         32.6001         5.09606 
        1.94787          32.184         4.99719 
        1.96363         31.9515         4.90055 
        1.97935         31.5454         4.80668 
        1.99499         31.1857          4.7158 
        2.01064          30.978         4.62714 
         2.0264         30.4727          4.5402 
        2.04216         30.1274         4.45555 
        2.05781         29.8183         4.37359 
        2.07353         29.5684          4.2934 
        2.08928         29.5255         4.21505 
        2.10499         29.1507         4.13887 
        2.12065         28.6751          4.0648 
        2.13633         28.5684         3.99248 
        2.15211         28.0195         3.92146 
        2.16785         27.7783         3.85236 
        2.18349         27.6217         3.78537 
        2.19916         27.3835         3.71983 
        2.21489         26.9673         3.65562 
        2.23063         26.7887         3.59289 
         2.2463          26.589         3.53192 
        2.26194         26.3432         3.47251 
        2.27765         26.0409         3.41417 
        2.29341         25.7577         3.35701 
        2.30914         25.6234         3.30129 
        2.32486         25.2562         3.24686 
        2.34061         25.0932         3.19356 
        2.35635         24.7914         3.14152 
        2.37203         24.6108         3.09081 
        2.38768         24.3139         3.04133 
        2.40339         24.2257         2.99276 
        2.41914         23.9197         2.94513 
        2.43483         23.6447         2.89871 
         2.4505         23.4356         2.85336 
        2.46622         23.2038         2.80884 
        2.48195         22.9991         2.76526 
        2.49759         22.7541         2.72283 
        2.51328         22.5267         2.68119 
        2.52906          22.394         2.64016 
        2.54479         22.0976         2.60014 
        2.56049         21.8498         2.56102 
        2.57618         21.6526         2.52275 
        2.59189         21.5515          2.4852 
        2.60758         21.3559         2.44847 
        2.62325         21.1036         2.41253 
        2.63898          21.034         2.37719 
        2.65468         20.7427         2.34263 
        2.67044         20.5701         2.30861 
        2.68618          20.335         2.27534 
        2.70184         20.2222         2.24287 
        2.71755         20.0384         2.21094 
        2.73329         19.8255         2.17959 
        2.74897           19.57         2.14895 
        2.76462         19.5967         2.11896 
        2.78034         19.3279         2.08943 
        2.79607         19.1543         2.06042 
        2.81179         19.0142           2.032 
        2.82749         18.8222         2.00415 
        2.84321         18.7132         1.97679 
        2.85893         18.4854         1.94995 
        2.87462         18.2955         1.92365 
        2.89033         18.1783         1.89782 
        2.90605         18.0844         1.87243 
        2.92176         17.7859         1.84753 
        2.93747         17.7425         1.82309 
        2.95318         17.5119         1.79908 
        2.96891         17.3884          1.7755 
        2.98456         17.2384         1.75244 
        3.00023         17.0657         1.72976 
        3.01596         16.9891         1.70742 
        3.03164          16.832         1.68553 
        3.04738         16.6107         1.66396 
         3.0631         16.4619         1.64277 
        3.07883         16.3364         1.62195 
        3.09456         16.2271          1.6015 
        3.11026         16.0941         1.58143 
        3.12596         15.9074         1.56171 
        3.14163         15.8397         1.54237 
        3.15734         15.6336         1.52331 
        3.17308         15.5192         1.50453 
        3.18879         15.3846         1.48611 
        3.20447         15.2565         1.46803 
         3.2202         15.1061          1.4502 
         3.2359         15.0107         1.43269 
        3.25157         14.8936         1.41552 
        3.26729         14.7719         1.39857 
        3.28304         14.6257         1.38187 
        3.29877         14.4739         1.36546 
        3.31446         14.3443         1.34935 
        3.33014         14.2326         1.33352 
        3.34585         14.0929         1.31792 
        3.36158         14.0149         1.30254 
        3.37727         13.8406         1.28746 
        3.39294         13.7458         1.27263 
        3.40867         13.6454         1.25798 
        3.42439          13.518         1.24357 
        3.44008         13.4521         1.22942 
        3.45578         13.3187         1.21547 
        3.47153         13.2299         1.20171 
        3.48724         13.1188         1.18818 
        3.50292         12.9667          1.1749 
        3.51859         12.8999         1.16182 
        3.53431         12.8006          1.1489 
        3.55007          12.693         1.13615 
        3.56577         12.5843         1.12364 
        3.58146         12.5174         1.11133 
        3.59719         12.3552         1.09917 
        3.61292         12.2728          1.0872 
        3.62859          12.153         1.07545 
        3.64429         12.0641         1.06385 
        3.66003          11.965         1.05239 
        3.67578         11.8998          1.0411 
        3.69146         11.7776         1.03002 
        3.70712         11.6765         1.01912 
        3.72284         11.5889         1.00833 
        3.73853         11.4581        0.997725 
        3.75422         11.4215        0.987265 
        3.76993         11.3342        0.976947 
        3.78564         11.2006         0.96678 
        3.80137         11.1299        0.956741 
        3.81707         11.0283        0.946865 
        3.83279         10.9391        0.937121 
        3.84853         10.8547        0.927498 
        3.86424         10.7444         0.91803 
        3.87992         10.6775        0.908707 
        3.89561         10.5994        0.899513 
        3.91134         10.5323        0.890428 
        3.92704         10.4111        0.881478 
        3.94273         10.3491        0.872661 
        3.95845         10.2801        0.863947 
        3.97418         10.1908        0.855351 
        3.98988         10.0884        0.846884 
        4.00554         10.0503        0.838554 
        4.02125         9.92992        0.830312 
        4.03698         9.87942        0.822168 
        4.05268         9.79556        0.814152 
        4.06839         9.69956        0.806237 
         4.0841         9.65023        0.798429 
        4.09983         9.56187        0.790714 
        4.11555         9.48331        0.783104 
        4.13124         9.41485        0.775615 
        4.14693         9.33152        0.768217 
        4.16266         9.27493        0.760899 
        4.17839         9.18405         0.75368 
        4.19408         9.13479        0.746571 
        4.20977         9.05676        0.739551 
        4.22551         8.99372        0.732605 
        4.24123         8.92617        0.725754 
        4.25691          8.8476         0.71901 
        4.27259         8.76715        0.712349 
        4.28831         8.70592         0.70576 
        4.30404          8.6526        0.699247 
        4.31974         8.59305        0.692831 
        4.33543         8.50368        0.686499 
        4.35116         8.43841         0.68023 
        4.36688         8.37998        0.674043 
        4.38255         8.31385        0.667955 
        4.39825         8.23927        0.661929 
        4.41398         8.19976        0.655966 
         4.4297         8.12934        0.650082 
        4.44541         8.07816        0.644272 
        4.46111          8.0031        0.638536 
        4.47683         7.94846        0.632867 
        4.49251         7.88407        0.627278 
        4.50819         7.82558        0.621758 
         4.5239         7.78989        0.616296 
        4.53962         7.71424        0.610893 
        4.55535         7.64803        0.605552 
        4.57106         7.59878        0.600283 
        4.58678         7.53735        0.595075 
         4.6025          7.4746        0.589928 
        4.61821         7.43469        0.584842 
        4.63391          7.3971        0.579823 
         4.6496         7.31677        0.574865 
        4.66532         7.27991        0.569957 
        4.68103         7.18849        0.565109 
        4.69673         7.15416        0.560321 
        4.71241         7.11606        0.555594 
        4.72811         7.03745        0.550913 
        4.74384         6.99478        0.546281 
        4.75955         6.94435        0.541708 
        4.77525         6.90049        0.537191 
        4.79096         6.84256        0.532719 
        4.80669         6.80617        0.528296 
         4.8224         6.75336        0.523929 
        4.83809           6.687        0.519615 
        4.85379         6.62901        0.515347 
         4.8695         6.59487        0.511124 
        4.88521         6.55534         0.50695 
        4.90093         6.49058        0.502821 
        4.91663          6.4562        0.498743 
        4.93234         6.41074        0.494705 
        4.94807           6.363        0.490709 
        4.96377         6.32881        0.486765 
        4.97943         6.26968        0.482872 
        4.99514         6.22115        0.479012 
        5.01086           6.189        0.475192 
        5.02654         6.13413        0.471422 
        5.04227         6.09562        0.467683 
          5.058         6.06671        0.463982 
        5.07371         6.02078        0.460328 
        5.08942         5.97038        0.456713 
        5.10513         5.92762        0.453137 
        5.12084         5.88864        0.449597 
        5.13656         5.85498        0.446096 
        5.15225         5.82212        0.442637 
        5.16796         5.76718         0.43921 
        5.18369         5.72448        0.435816 
         5.1994         5.69692        0.432465 
        5.21509         5.65321        0.429151 
        5.23079         5.61583        0.425868 
        5.24649         5.57568        0.422622 
        5.26217         5.54623        0.419412 
        5.27788         5.49679        0.416231 
        5.29359         5.46553        0.413082 
        5.30933         5.43485        0.409961 
        5.32504         5.38707        0.406878 
        5.34073         5.35528         0.40383 
        5.35646          5.3136        0.400806 
        5.37218         5.27392        0.397814 
        5.38789         5.25603        0.394856 
        5.40357         5.20559        0.391932 
        5.41929         5.17663        0.389031 
        5.43502         5.13791        0.386159 
         5.4507         5.10435        0.383323 
        5.46639         5.05958        0.380515 
        5.48212         5.02416        0.377729 
        5.49786         5.00765        0.374967 
        5.51353         4.96652        0.372246 
        5.52921         4.93528         0.36955 
        5.54495         4.90598        0.366872 
        5.56066         4.87327        0.364224 
        5.57637         4.83588        0.361602 
        5.59207         4.80043        0.359009 
        5.60778         4.78535         0.35644 
        5.62346         4.74968        0.353899 
        5.63916         4.72007        0.351381 
        5.65487         4.67554        0.348886 
         5.6706         4.65275        0.346412 
        5.68633         4.61815        0.343962 
        5.70203         4.59372         0.34154 
        5.71773         4.56483        0.339142 
        5.73344         4.53907        0.336765 
        5.74916         4.51228         0.33441 
        5.76486         4.48085        0.332079 
        5.78054         4.44452        0.329775 
        5.79626         4.41235        0.327486 
          5.812         4.39791        0.325217 
         5.8277         4.36205        0.322975 
        5.84339         4.34713        0.320755 
        5.85911         4.31732        0.318551 
        5.87484         4.28396        0.316369 
        5.89053         4.26024        0.314211 
        5.90623         4.23785        0.312072 
        5.92195         4.19545         0.30995 
        5.93767         4.18419        0.307848 
        5.95336         4.15566        0.305769 
        5.96905         4.11743         0.30371 
        5.98476         4.09834        0.301668 
        6.00048         4.06841        0.299643 
        6.01617         4.04963         0.29764 
        6.03185         4.02919        0.295657 
        6.04756         4.00107        0.293688 
        6.06331         3.97691        0.291732 
        6.07903         3.94437        0.289799 
        6.09473          3.9275        0.287884 
        6.11044         3.89796        0.285985 
        6.12616         3.88979        0.284104 
        6.14186         3.85312        0.282241 
        6.15755         3.83684        0.280396 
        6.17326         3.81639        0.278565 
        6.18898         3.78941        0.276749 
        6.20467         3.76544        0.274954 
        6.22036         3.74593        0.273174 
         6.2361         3.71694        0.271405 
         6.2518         3.70748        0.269655 
        6.26748         3.67822        0.267924 
        6.28319         3.65435        0.266203 
        6.29893         3.63379        0.264496 
        6.31463         3.60652        0.262807 
        6.33033         3.58974        0.261133 
        6.34604         3.56132        0.259472 
        6.36177          3.5447        0.257825 
        6.37747          3.5246        0.256194 
