# k  (h/Mpc)    Pcb(k)  (Mpc/h)^3    Pcb_linear(k) (Mpc/h)^3   ShotnoiseSubtracted = true
      0.0200456         13874.8         14090.4 
      0.0350414           10528         10243.2 
      0.0492313          7351.8         7442.55 
      0.0637834         5942.03         6186.93 
      0.0800726         4676.84         4910.41 
       0.096163         3690.25         3562.93 
       0.111083         3001.19         2841.88 
       0.126058          2494.9         2518.49 
       0.142273          2159.8         2133.71 
       0.158546         1774.12         1685.19 
        0.17375         1559.16         1419.77 
       0.188953         1452.29         1285.57 
       0.204907         1242.65         1137.47 
       0.220756          1115.9         962.364 
        0.23588         993.152         837.174 
         0.2514          890.36         760.564 
       0.267535         864.004          688.18 
       0.283568         757.665         606.882 
       0.299022          723.31           540.7 
       0.314451         737.411         494.164 
       0.330372         635.111          453.34 
       0.346141         587.513         411.475 
       0.361624         562.268         373.974 
       0.377134         529.755         344.115 
       0.392932         512.051         318.403 
       0.408854         487.593         293.506 
       0.424564         472.595         270.529 
       0.440253         429.436         250.812 
       0.455999         411.418         233.667 
       0.471626         415.569         217.911 
        0.48727         393.278         203.172 
       0.502856         363.499         189.931 
       0.518488         363.744         178.117 
       0.534347         339.152         167.134 
       0.550082         327.665         157.007 
       0.565732         325.881         147.743 
       0.581496         312.588         139.257 
       0.597222         303.698         131.475 
       0.612804         295.962          124.32 
       0.628434         284.594          117.65 
       0.644267         272.803         111.414 
       0.660051         268.749         105.667 
       0.675724         265.246          100.36 
       0.691403         258.333         95.4137 
       0.707174          248.92         90.7725 
       0.722871         245.193         86.4585 
        0.73838          242.78         82.4709 
       0.754018         231.461         78.7048 
       0.769845         231.037         75.1329 
        0.78569         225.296         71.7797 
       0.801365         219.154         68.6645 
       0.817031         214.878         65.7371 
       0.832809         211.349         62.9626 
       0.848511         205.996         60.3614 
       0.864097         201.271         57.9258 
       0.879701          200.26         55.6228 
       0.895507         195.473         53.4185 
       0.911279         189.776         51.3388 
        0.92691         187.422         49.3875 
       0.942635         185.627         47.5274 
       0.958396         181.437         45.7595 
       0.974128          178.12         44.0852 
       0.989692          172.72         42.5115 
        1.00528         171.917         41.0127 
        1.02113          168.43         39.5629 
        1.03692          165.55         38.1889 
        1.05264         163.158         36.8867 
        1.06832         161.738         35.6475 
        1.08405         157.753         34.4621 
        1.09979          156.83         33.3302 
        1.11537         153.549         32.2605 
        1.13105         151.482         31.2316 
        1.14679         149.421         30.2437 
        1.16256         146.989         29.2969 
        1.17828         145.323         28.3938 
        1.19395         141.746          27.532 
         1.2097         140.923         26.7016 
        1.22537         139.107         25.9097 
          1.241         136.615         25.1524 
        1.25666         134.055         24.4236 
        1.27241         131.079         23.7203 
        1.28819         130.303         23.0436 
        1.30392         128.181         22.3954 
        1.31957         125.779         21.7751 
        1.33529         124.511         21.1761 
        1.35108         123.006         20.5973 
        1.36674         120.795         20.0444 
         1.3824         120.437         19.5123 
        1.39811         117.356         18.9978 
        1.41389         116.387         18.4999 
        1.42964         114.073         18.0208 
        1.44531          113.13         17.5611 
        1.46101         110.999         17.1164 
        1.47667         110.787         16.6885 
        1.49229         109.374         16.2765 
        1.50793         107.226         15.8779 
        1.52367         105.964         15.4901 
        1.53953         104.666         15.1127 
        1.55526         103.484         14.7509 
        1.57092         102.547         14.4025 
        1.58662         100.999         14.0646 
        1.60235         99.3037         13.7368 
        1.61809         98.7166         13.4194 
        1.63369         96.8211         13.1148 
        1.64941         96.7334         12.8175 
        1.66519         94.8644         12.5284 
        1.68085         93.4798         12.2503 
        1.69652         92.1368         11.9806 
        1.71228         91.2682         11.7175 
        1.72806          90.351          11.462 
        1.74368         88.7435         11.2168 
        1.75933         88.1417         10.9783 
        1.77505         87.0922         10.7456 
        1.79081         85.6779         10.5192 
         1.8065         84.9488         10.3004 
        1.82218         83.6876          10.088 
        1.83797         83.2932          9.8801 
        1.85367         81.5363         9.67924 
        1.86928         81.0149         9.48518 
        1.88497         80.1637          9.2954 
        1.90073         79.2737         9.11012 
        1.91647         77.8652         8.93005 
        1.93218         77.0184         8.75525 
        1.94787         76.1013         8.58539 
        1.96363         75.2241         8.41937 
        1.97935         74.5994         8.25809 
        1.99499         73.7135         8.10195 
        2.01064         72.5979         7.94962 
         2.0264         71.6437         7.80027 
        2.04216         70.7961         7.65482 
        2.05781          70.118         7.51401 
        2.07353         69.2788         7.37625 
        2.08928         68.3914         7.24164 
        2.10499         67.5728         7.11075 
        2.12065         67.0885          6.9835 
        2.13633         66.4086         6.85926 
        2.15211          65.353         6.73724 
        2.16785         64.2725         6.61853 
        2.18349         63.7919         6.50343 
        2.19916         63.0367         6.39082 
        2.21489         62.2178         6.28052 
        2.23063          61.499         6.17275 
         2.2463         60.9649         6.06799 
        2.26194         60.4235         5.96592 
        2.27765         59.5615         5.86569 
        2.29341         58.8653         5.76749 
        2.30914         58.1248         5.67175 
        2.32486         57.3024         5.57824 
        2.34061         56.9752         5.48668 
        2.35635         56.1352         5.39727 
        2.37203         55.6007         5.31015 
        2.38768          55.062         5.22514 
        2.40339         54.4358         5.14169 
        2.41914         53.7082         5.05986 
        2.43483         53.1904         4.98011 
         2.4505         52.7239         4.90221 
        2.46622         52.1344         4.82571 
        2.48195         51.4686         4.75083 
        2.49759         50.8897         4.67795 
        2.51328         50.5292         4.60641 
        2.52906          49.774         4.53591 
        2.54479         49.3246         4.46715 
        2.56049         48.5032         4.39995 
        2.57618         48.1439         4.33419 
        2.59189         47.7786         4.26968 
        2.60758         46.9641         4.20658 
        2.62325         46.6048         4.14484 
        2.63898         46.1754         4.08412 
        2.65468          45.715         4.02474 
        2.67044         45.1968         3.96629 
        2.68618         44.8423         3.90914 
        2.70184         44.0457         3.85334 
        2.71755         43.7823         3.79849 
        2.73329         43.2473         3.74463 
        2.74897         43.0117         3.69199 
        2.76462         42.3905         3.64047 
        2.78034         41.9714         3.58973 
        2.79607         41.4715          3.5399 
        2.81179         41.1388         3.49107 
        2.82749         40.6364         3.44322 
        2.84321         40.3067         3.39621 
        2.85893         39.7459          3.3501 
        2.87462         39.2435         3.30492 
        2.89033         38.9973         3.26053 
        2.90605         38.4559         3.21692 
        2.92176         38.2458         3.17413 
        2.93747            37.9         3.13214 
        2.95318         37.5224          3.0909 
        2.96891         36.9858         3.05039 
        2.98456         36.7742         3.01078 
        3.00023         36.3391         2.97181 
        3.01596         35.9923         2.93342 
        3.03164          35.609         2.89581 
        3.04738         35.2041         2.85875 
         3.0631          35.042         2.82235 
        3.07883         34.5773         2.78659 
        3.09456         34.0978         2.75145 
        3.11026         33.7706         2.71697 
        3.12596         33.4914         2.68308 
        3.14163          33.162         2.64986 
        3.15734         32.8736         2.61711 
        3.17308         32.5627         2.58484 
        3.18879         32.1387         2.55321 
        3.20447         31.8215         2.52215 
         3.2202         31.5964          2.4915 
         3.2359         31.3022         2.46143 
        3.25157         31.0449         2.43192 
        3.26729          30.644          2.4028 
        3.28304         30.3848         2.37411 
        3.29877         29.9355         2.34592 
        3.31446          29.746         2.31825 
        3.33014         29.4345         2.29105 
        3.34585          29.169         2.26424 
        3.36158         28.9182         2.23783 
        3.37727         28.6393         2.21192 
        3.39294         28.3427         2.18644 
        3.40867         28.0769         2.16127 
        3.42439         27.8791         2.13651 
        3.44008          27.586         2.11219 
        3.45578         27.3815         2.08823 
        3.47153         27.0461         2.06459 
        3.48724          26.806         2.04135 
        3.50292          26.587         2.01853 
        3.51859         26.2381         1.99606 
        3.53431         26.0204         1.97387 
        3.55007         25.7754         1.95196 
        3.56577         25.4856         1.93047 
        3.58146         25.3148         1.90931 
        3.59719         25.0993         1.88842 
        3.61292         24.8817         1.86785 
        3.62859         24.6637         1.84767 
        3.64429         24.3649         1.82774 
        3.66003         24.2414         1.80805 
        3.67578         23.9618         1.78865 
        3.69146         23.8112         1.76961 
        3.70712         23.5736         1.75089 
        3.72284         23.4033         1.73236 
        3.73853         23.1935         1.71414 
        3.75422         22.8551         1.69617 
        3.76993         22.6771         1.67844 
        3.78564         22.4829         1.66097 
        3.80137          22.247         1.64372 
        3.81707         22.1044         1.62676 
        3.83279         21.9209         1.61002 
        3.84853         21.7068         1.59348 
        3.86424         21.4992         1.57722 
        3.87992         21.2961          1.5612 
        3.89561          21.188          1.5454 
        3.91134         20.8842         1.52979 
        3.92704         20.8036         1.51442 
        3.94273         20.5258         1.49927 
        3.95845         20.4147          1.4843 
        3.97418         20.1665         1.46953 
        3.98988         20.0228         1.45498 
        4.00554         19.9076         1.44067 
        4.02125         19.6673         1.42651 
        4.03698         19.4942         1.41252 
        4.05268         19.3367         1.39875 
        4.06839         19.1995         1.38515 
         4.0841         18.9961         1.37174 
        4.09983         18.7757         1.35848 
        4.11555         18.6175         1.34541 
        4.13124         18.5467         1.33254 
        4.14693         18.3244         1.31983 
        4.16266         18.2425         1.30726 
        4.17839          18.046         1.29486 
        4.19408         17.8501         1.28264 
        4.20977         17.7608         1.27058 
        4.22551         17.5744         1.25865 
        4.24123         17.4309         1.24688 
        4.25691         17.2417         1.23529 
        4.27259         17.1454         1.22385 
        4.28831         17.0062         1.21253 
        4.30404         16.8607         1.20134 
        4.31974         16.7604         1.19031 
        4.33543         16.5969         1.17943 
        4.35116         16.4128         1.16867 
        4.36688         16.3155         1.15803 
        4.38255         16.1663         1.14758 
        4.39825         15.9993         1.13722 
        4.41398         15.9271         1.12698 
         4.4297         15.7903         1.11687 
        4.44541         15.5973         1.10689 
        4.46111         15.5134         1.09703 
        4.47683         15.3509         1.08729 
        4.49251         15.2743         1.07769 
        4.50819         15.1261         1.06821 
         4.5239         14.9761         1.05882 
        4.53962         14.8853         1.04954 
        4.55535         14.7319         1.04037 
        4.57106         14.6741         1.03131 
        4.58678         14.5038         1.02236 
         4.6025         14.3954         1.01352 
        4.61821         14.3059         1.00478 
        4.63391         14.1578        0.996162 
         4.6496         14.0265        0.987643 
        4.66532         13.9191        0.979211 
        4.68103         13.8272        0.970881 
        4.69673         13.7167        0.962656 
        4.71241          13.602        0.954534 
        4.72811         13.4717        0.946493 
        4.74384         13.3964        0.938534 
        4.75955         13.2828        0.930679 
        4.77525         13.1632        0.922917 
        4.79096         13.0526        0.915235 
        4.80669         12.9755        0.907636 
         4.8224         12.8554        0.900132 
        4.83809         12.7848        0.892721 
        4.85379         12.6665        0.885389 
         4.8695         12.5704        0.878133 
        4.88521         12.4796        0.870962 
        4.90093         12.4038        0.863869 
        4.91663         12.3193        0.856862 
        4.93234         12.2256        0.849925 
        4.94807         12.1267         0.84306 
        4.96377         12.0276        0.836284 
        4.97943         11.9394        0.829596 
        4.99514         11.8285        0.822964 
        5.01086         11.7348          0.8164 
        5.02654         11.6493        0.809924 
        5.04227         11.5215        0.803499 
          5.058         11.4715        0.797141 
        5.07371         11.3771        0.790864 
        5.08942         11.3088        0.784654 
        5.10513         11.2145        0.778509 
        5.12084         11.1284        0.772428 
        5.13656         11.0656        0.766412 
        5.15225         10.9726        0.760471 
        5.16796         10.8969        0.754583 
        5.18369            10.8        0.748752 
         5.1994         10.7126        0.742993 
        5.21509         10.6662          0.7373 
        5.23079         10.5403         0.73166 
        5.24649         10.4774        0.726083 
        5.26217         10.3918        0.720568 
        5.27788         10.3341        0.715103 
        5.29359         10.2444        0.709693 
        5.30933          10.187        0.704331 
        5.32504         10.1008        0.699034 
        5.34073         10.0476        0.693797 
        5.35646         9.97172        0.688603 
        5.37218         9.87722        0.683461 
        5.38789         9.80029         0.67838 
        5.40357          9.7436        0.673357 
        5.41929         9.68549        0.668373 
        5.43502         9.60948        0.663439 
         5.4507         9.51764        0.658566 
        5.46639         9.47781        0.653742 
        5.48212         9.38232        0.648955 
        5.49786         9.31776         0.64421 
        5.51353         9.26203        0.639535 
        5.52921         9.19577        0.634903 
        5.54495         9.13257        0.630303 
        5.56066         9.05605        0.625753 
        5.57637         8.98067        0.621249 
        5.59207         8.94093        0.616793 
        5.60778         8.85627        0.612379 
        5.62346          8.8089        0.608014 
        5.63916         8.75031        0.603688 
        5.65487         8.69024        0.599402 
         5.6706         8.61493        0.595152 
        5.68633          8.5593        0.590942 
        5.70203         8.48851        0.586781 
        5.71773         8.44292        0.582661 
        5.73344         8.40429        0.578578 
        5.74916          8.3255         0.57453 
        5.76486          8.2781        0.570527 
        5.78054         8.20755        0.566568 
        5.79626         8.14267        0.562636 
          5.812         8.10718        0.558737 
         5.8277         8.06619        0.554886 
        5.84339         7.99053        0.551071 
        5.85911         7.93287        0.547285 
        5.87484         7.88816        0.543535 
        5.89053         7.81815        0.539828 
        5.90623         7.76179        0.536154 
        5.92195         7.72788        0.532507 
        5.93767         7.66768        0.528896 
        5.95336         7.63772        0.525325 
        5.96905         7.55638        0.521788 
        5.98476         7.51223        0.518278 
        6.00048         7.46132          0.5148 
        6.01617         7.40685        0.511358 
        6.03185         7.36898        0.507952 
        6.04756         7.31811        0.504569 
        6.06331          7.2702        0.501209 
        6.07903         7.21694        0.497887 
        6.09473         7.16818        0.494598 
        6.11044         7.14144        0.491335 
        6.12616         7.07963        0.488103 
        6.14186          7.0342        0.484903 
        6.15755         6.97732        0.481732 
        6.17326          6.9477        0.478587 
        6.18898         6.89303        0.475468 
        6.20467         6.83666        0.472382 
        6.22036         6.81303        0.469325 
         6.2361          6.7527        0.466286 
         6.2518         6.71719        0.463278 
        6.26748         6.65889        0.460304 
        6.28319          6.6322        0.457348 
        6.29893         6.58772        0.454415 
        6.31463         6.53982        0.451513 
        6.33033         6.51237        0.448638 
        6.34604         6.46399        0.445785 
        6.36177         6.40454        0.442954 
        6.37747         6.38424        0.440153 
