# k  (h/Mpc)    Pcb(k)  (Mpc/h)^3    Pcb_linear(k) (Mpc/h)^3   ShotnoiseSubtracted = true
      0.0200456         2042.41         2072.53 
      0.0350414         1492.98         1506.66 
      0.0492313          1097.2         1094.71 
      0.0637834         920.234         910.024 
      0.0800726         729.562         722.264 
       0.096163         521.054         524.065 
       0.111083         413.483         418.008 
       0.126058         373.158          370.44 
       0.142273         318.796         313.844 
       0.158546         254.441         247.871 
        0.17375           209.6         208.831 
       0.188953         193.848         189.092 
       0.204907          177.89         167.308 
       0.220756         148.313         141.553 
        0.23588         129.193         123.138 
         0.2514         115.543          111.87 
       0.267535         106.302         101.223 
       0.283568         94.9527         89.2653 
       0.299022         86.0018         79.5307 
       0.314451         77.0059         72.6857 
       0.330372         71.5851          66.681 
       0.346141         64.9301         60.5231 
       0.361624         60.0685         55.0072 
       0.377134         56.3348         50.6153 
       0.392932         50.0333         46.8334 
       0.408854         48.1081         43.1713 
       0.424564          45.056         39.7916 
       0.440253         41.4969         36.8915 
       0.455999         39.1075         34.3696 
       0.471626         36.6576         32.0521 
        0.48727         34.7091         29.8842 
       0.502856         32.4698         27.9366 
       0.518488         31.0077         26.1989 
       0.534347         29.7041         24.5835 
       0.550082         27.1327         23.0939 
       0.565732         25.2214         21.7312 
       0.581496         24.7004         20.4831 
       0.597222          23.805         19.3385 
       0.612804         22.1658          18.286 
       0.628434         21.3544         17.3049 
       0.644267         20.6854         16.3877 
       0.660051         19.5477         15.5424 
       0.675724         18.5351         14.7619 
       0.691403           17.93         14.0342 
       0.707174         17.2004         13.3516 
       0.722871         16.5076          12.717 
        0.73838         15.8735         12.1305 
       0.754018          15.297         11.5766 
       0.769845         14.6806         11.0512 
        0.78569         14.2069          10.558 
       0.801365         13.6347         10.0998 
       0.817031         13.2301         9.66916 
       0.832809         12.9086         9.26106 
       0.848511         12.1206         8.87846 
       0.864097         11.8311          8.5202 
       0.879701         11.4754         8.18147 
       0.895507         10.9972         7.85724 
       0.911279         10.8019         7.55134 
        0.92691         10.4527         7.26433 
       0.942635          9.9992         6.99072 
       0.958396         9.72248         6.73069 
       0.974128         9.46423         6.48442 
       0.989692         9.34442         6.25295 
        1.00528         9.00623         6.03249 
        1.02113         8.64529         5.81924 
        1.03692         8.46124         5.61714 
        1.05264         8.24286          5.4256 
        1.06832         8.04707         5.24332 
        1.08405         7.75052         5.06897 
        1.09979         7.57786         4.90248 
        1.11537         7.44326         4.74514 
        1.13105         7.23234          4.5938 
        1.14679         7.08887          4.4485 
        1.16256         6.86045         4.30923 
        1.17828         6.77414         4.17639 
        1.19395         6.54026         4.04963 
         1.2097         6.37502          3.9275 
        1.22537         6.21516         3.81101 
          1.241         6.11434         3.69962 
        1.25666         6.03686         3.59242 
        1.27241         5.83731         3.48898 
        1.28819         5.69867         3.38945 
        1.30392          5.6178          3.2941 
        1.31957         5.49535         3.20286 
        1.33529         5.38101         3.11475 
        1.35108         5.24135         3.02962 
        1.36674         5.19973         2.94829 
         1.3824         5.00236         2.87003 
        1.39811         4.93706         2.79435 
        1.41389         4.85717         2.72113 
        1.42964         4.76625         2.65065 
        1.44531         4.67616         2.58303 
        1.46101         4.57935         2.51763 
        1.47667         4.48027         2.45469 
        1.49229         4.43728         2.39408 
        1.50793         4.31108         2.33545 
        1.52367         4.27532         2.27841 
        1.53953         4.16806          2.2229 
        1.55526         4.09313         2.16969 
        1.57092         4.04703         2.11844 
        1.58662         3.94934         2.06873 
        1.60235          3.8959         2.02053 
        1.61809         3.82689         1.97383 
        1.63369         3.76172         1.92904 
        1.64941         3.70183         1.88531 
        1.66519         3.65371         1.84279 
        1.68085         3.57434         1.80188 
        1.69652         3.51226          1.7622 
        1.71228         3.46874          1.7235 
        1.72806         3.40569         1.68593 
        1.74368         3.34698         1.64986 
        1.75933         3.30735         1.61478 
        1.77505         3.26111         1.58055 
        1.79081         3.19409         1.54726 
         1.8065          3.1566         1.51507 
        1.82218         3.12047         1.48382 
        1.83797         3.08637         1.45325 
        1.85367         3.02648          1.4237 
        1.86928         2.98936         1.39516 
        1.88497         2.93822         1.36724 
        1.90073         2.88805         1.33999 
        1.91647          2.8474         1.31351 
        1.93218          2.8283         1.28779 
        1.94787         2.79469         1.26281 
        1.96363         2.73992         1.23839 
        1.97935         2.70196         1.21467 
        1.99499         2.65112          1.1917 
        2.01064         2.63132          1.1693 
         2.0264         2.60031         1.14733 
        2.04216         2.56935         1.12593 
        2.05781         2.52921         1.10522 
        2.07353         2.50243         1.08496 
        2.08928          2.4758         1.06516 
        2.10499         2.43649         1.04591 
        2.12065         2.42184         1.02719 
        2.13633          2.3794         1.00892 
        2.15211          2.3496        0.990969 
        2.16785         2.32558        0.973508 
        2.18349         2.29847        0.956578 
        2.19916         2.25412        0.940016 
        2.21489         2.24104        0.923791 
        2.23063         2.20396        0.907939 
         2.2463         2.18768         0.89253 
        2.26194         2.15547        0.877518 
        2.27765         2.13917        0.862774 
        2.29341         2.11108        0.848331 
        2.30914         2.08475        0.834249 
        2.32486         2.07375        0.820494 
        2.34061         2.04172        0.807027 
        2.35635         2.01156        0.793875 
        2.37203         2.00412        0.781061 
        2.38768         1.98041        0.768557 
        2.40339         1.95939        0.756282 
        2.41914         1.93526        0.744246 
        2.43483         1.91813        0.732515 
         2.4505         1.88824        0.721057 
        2.46622         1.88144        0.709805 
        2.48195          1.8546        0.698792 
        2.49759         1.83676        0.688072 
        2.51328         1.81628        0.677549 
        2.52906         1.80536        0.667179 
        2.54479         1.78052        0.657066 
        2.56049         1.76495        0.647181 
        2.57618         1.74946        0.637509 
        2.59189         1.73973         0.62802 
        2.60758         1.71053        0.618739 
        2.62325         1.69796        0.609657 
        2.63898         1.67907        0.600726 
        2.65468         1.66469        0.591992 
        2.67044         1.65486        0.583395 
        2.68618         1.62942        0.574989 
        2.70184         1.61761        0.566781 
        2.71755         1.60296        0.558714 
        2.73329         1.58661        0.550791 
        2.74897         1.57445        0.543048 
        2.76462         1.55907        0.535471 
        2.78034          1.5495        0.528007 
        2.79607         1.52962        0.520678 
        2.81179         1.51784        0.513496 
        2.82749         1.50351        0.506458 
        2.84321         1.49334        0.499543 
        2.85893         1.47886         0.49276 
        2.87462          1.4668        0.486115 
        2.89033         1.44572        0.479586 
        2.90605         1.43688        0.473172 
        2.92176         1.42809        0.466878 
        2.93747         1.41565        0.460701 
        2.95318         1.40298        0.454635 
        2.96891         1.39262        0.448676 
        2.98456         1.38194         0.44285 
        3.00023         1.36857        0.437119 
        3.01596         1.36134        0.431471 
        3.03164         1.35278         0.42594 
        3.04738         1.33245        0.420489 
         3.0631         1.32272        0.415135 
        3.07883         1.31592        0.409875 
        3.09456         1.30943        0.404706 
        3.11026          1.2943        0.399634 
        3.12596         1.28453         0.39465 
        3.14163          1.2762        0.389763 
        3.15734         1.26541        0.384947 
        3.17308         1.25417          0.3802 
        3.18879         1.24912        0.375547 
        3.20447         1.23666        0.370978 
         3.2202         1.22702        0.366471 
         3.2359         1.21796        0.362047 
        3.25157         1.21104        0.357707 
        3.26729         1.19849        0.353424 
        3.28304           1.195        0.349204 
        3.29877         1.18061        0.345057 
        3.31446          1.1727        0.340987 
        3.33014         1.16969        0.336987 
        3.34585          1.1604        0.333044 
        3.36158         1.14652        0.329158 
        3.37727         1.14483        0.325347 
        3.39294         1.13249          0.3216 
        3.40867         1.12437        0.317898 
        3.42439         1.11823        0.314256 
        3.44008         1.11178        0.310678 
        3.45578         1.10485        0.307154 
        3.47153         1.09537        0.303676 
        3.48724           1.087        0.300259 
        3.50292         1.08329        0.296902 
        3.51859         1.07773        0.293597 
        3.53431         1.06852        0.290333 
        3.55007         1.06181        0.287111 
        3.56577         1.05515         0.28395 
        3.58146         1.04969        0.280838 
        3.59719         1.03938        0.277765 
        3.61292         1.03768        0.274739 
        3.62859         1.02694         0.27177 
        3.64429         1.02101        0.268839 
        3.66003         1.01328        0.265943 
        3.67578         1.00727         0.26309 
        3.69146         1.00332        0.260289 
        3.70712        0.992961        0.257535 
        3.72284        0.991681         0.25481 
        3.73853        0.982156        0.252129 
        3.75422        0.977099        0.249486 
        3.76993        0.973645        0.246879 
        3.78564         0.96661        0.244309 
        3.80137        0.957485        0.241772 
        3.81707        0.956044        0.239277 
        3.83279        0.946395        0.236814 
        3.84853        0.941605        0.234383 
        3.86424        0.936285         0.23199 
        3.87992        0.934691        0.229634 
        3.89561         0.92636        0.227311 
        3.91134        0.920288        0.225015 
        3.92704        0.914698        0.222753 
        3.94273        0.910683        0.220525 
        3.95845        0.904994        0.218323 
        3.97418         0.89723        0.216151 
        3.98988        0.892589        0.214011 
        4.00554        0.888361        0.211906 
        4.02125        0.881184        0.209823 
        4.03698        0.872792        0.207765 
        4.05268        0.867523         0.20574 
        4.06839        0.857873        0.203739 
         4.0841        0.855253        0.201766 
        4.09983        0.849126        0.199817 
        4.11555        0.844213        0.197894 
        4.13124        0.836208        0.196001 
        4.14693        0.829751        0.194132 
        4.16266        0.824497        0.192282 
        4.17839        0.821568        0.190458 
        4.19408         0.81586        0.188662 
        4.20977        0.808002        0.186888 
        4.22551         0.80579        0.185132 
        4.24123         0.80001        0.183401 
        4.25691        0.794439        0.181697 
        4.27259        0.789817        0.180014 
        4.28831        0.785619        0.178348 
        4.30404        0.781127        0.176703 
        4.31974        0.773925        0.175081 
        4.33543        0.770223        0.173481 
        4.35116        0.767554        0.171897 
        4.36688        0.761786        0.170333 
        4.38255         0.75767        0.168795 
        4.39825        0.756503        0.167272 
        4.41398        0.749494        0.165765 
         4.4297        0.745014        0.164278 
        4.44541        0.742025         0.16281 
        4.46111        0.740133        0.161361 
        4.47683        0.736545        0.159928 
        4.49251        0.732011        0.158516 
        4.50819        0.728861        0.157121 
         4.5239        0.724412        0.155741 
        4.53962        0.723377        0.154375 
        4.55535        0.717975        0.153026 
        4.57106        0.716664        0.151694 
        4.58678        0.711645        0.150378 
         4.6025        0.709525        0.149077 
        4.61821        0.706358        0.147792 
        4.63391        0.702909        0.146524 
         4.6496        0.698472        0.145271 
        4.66532        0.698379        0.144031 
        4.68103        0.694449        0.142805 
        4.69673        0.692467        0.141595 
        4.71241        0.688115        0.140401 
        4.72811        0.688041        0.139218 
        4.74384        0.683491        0.138047 
        4.75955        0.681481        0.136892 
        4.77525          0.6785         0.13575 
        4.79096        0.677851         0.13462 
        4.80669        0.676328        0.133503 
         4.8224        0.673502        0.132399 
        4.83809        0.670528        0.131309 
        4.85379        0.670132         0.13023 
         4.8695        0.668774        0.129163 
        4.88521        0.663409        0.128108 
        4.90093        0.663288        0.127065 
        4.91663        0.662221        0.126034 
        4.93234        0.659249        0.125014 
        4.94807        0.658166        0.124004 
        4.96377        0.655633        0.123008 
        4.97943        0.654542        0.122024 
        4.99514        0.653478        0.121048 
        5.01086        0.652146        0.120083 
        5.02654        0.651185         0.11913 
        5.04227        0.648726        0.118185 
          5.058        0.647041         0.11725 
        5.07371        0.645595        0.116327 
        5.08942        0.645555        0.115413 
        5.10513        0.643436         0.11451 
        5.12084        0.642587        0.113615 
        5.13656        0.641377         0.11273 
        5.15225        0.641534        0.111856 
        5.16796        0.638809         0.11099 
        5.18369        0.638039        0.110133 
         5.1994        0.638268        0.109286 
        5.21509        0.636578        0.108448 
        5.23079        0.635885        0.107619 
        5.24649        0.635713        0.106798 
        5.26217        0.632781        0.105987 
        5.27788        0.633641        0.105183 
        5.29359        0.632813        0.104388 
        5.30933        0.631475        0.103599 
        5.32504        0.631557         0.10282 
        5.34073         0.63121        0.102049 
        5.35646        0.630142        0.101285 
        5.37218        0.629934        0.100529 
        5.38789          0.6297       0.0997818 
        5.40357        0.628767       0.0990429 
        5.41929        0.628609       0.0983098 
        5.43502        0.629044       0.0975841 
         5.4507        0.628739       0.0968674 
        5.46639        0.627496       0.0961578 
        5.48212        0.626245       0.0954536 
        5.49786        0.625552       0.0947557 
        5.51353        0.625414       0.0940682 
        5.52921        0.625772       0.0933868 
        5.54495        0.626479       0.0927102 
        5.56066         0.62361       0.0920409 
        5.57637        0.625209       0.0913784 
        5.59207        0.625438        0.090723 
        5.60778        0.624981       0.0900738 
        5.62346        0.625201       0.0894318 
        5.63916        0.624457       0.0887955 
        5.65487        0.623878        0.088165 
         5.6706        0.626338       0.0875399 
        5.68633        0.624562       0.0869206 
        5.70203        0.624304       0.0863086 
        5.71773        0.624227       0.0857026 
        5.73344        0.622655        0.085102 
        5.74916        0.624885       0.0845067 
        5.76486        0.624016       0.0839179 
        5.78054        0.623942       0.0833356 
        5.79626        0.623411       0.0827571 
          5.812        0.625303       0.0821836 
         5.8277        0.624319       0.0816172 
        5.84339        0.624532       0.0810561 
        5.85911        0.623517       0.0804993 
        5.87484         0.62442       0.0799477 
        5.89053        0.624344       0.0794024 
        5.90623        0.624234       0.0788619 
        5.92195        0.624123       0.0783255 
        5.93767        0.623468       0.0777945 
        5.95336        0.624373       0.0772691 
        5.96905         0.62526       0.0767489 
        5.98476        0.623159       0.0762327 
        6.00048        0.625895       0.0757211 
        6.01617        0.624741       0.0752148 
        6.03185        0.624808       0.0747138 
        6.04756        0.625272       0.0742161 
        6.06331        0.626498        0.073722 
        6.07903        0.625597       0.0732333 
        6.09473        0.625885       0.0727495 
        6.11044        0.626662       0.0722697 
        6.12616        0.625967       0.0717943 
        6.14186        0.625978       0.0713236 
        6.15755          0.6256       0.0708571 
        6.17326        0.626797       0.0703945 
        6.18898        0.626126       0.0699358 
        6.20467        0.627545       0.0694819 
        6.22036        0.625297       0.0690322 
         6.2361        0.626142       0.0685852 
         6.2518        0.627408       0.0681428 
        6.26748        0.626795       0.0677054 
        6.28319        0.627658       0.0672706 
        6.29893        0.626872       0.0668392 
        6.31463        0.628183       0.0664123 
        6.33033        0.627607       0.0659893 
        6.34604        0.627132       0.0655697 
        6.36177        0.627676       0.0651533 
        6.37747        0.627818       0.0647414 
