# k  (h/Mpc)    Pcb(k)  (Mpc/h)^3    Pcb_linear(k) (Mpc/h)^3   ShotnoiseSubtracted = true
      0.0200456         21343.8         21847.9 
      0.0350414         15158.9         15882.7 
      0.0492313         11298.3         11540.1 
      0.0637834         9779.62         9593.15 
      0.0800726         7716.74         7613.85 
       0.096163         5349.61         5524.51 
       0.111083         4299.77         4406.49 
       0.126058         3959.82         3905.05 
       0.142273         3429.23         3308.44 
       0.158546         2999.47         2612.97 
        0.17375         2399.67         2201.43 
       0.188953          2346.6         1993.34 
       0.204907         2205.31          1763.7 
       0.220756         1911.23          1492.2 
        0.23588         1707.93         1298.08 
         0.2514         1487.05         1179.29 
       0.267535         1487.04         1067.06 
       0.283568         1348.47         941.003 
       0.299022         1275.62         838.385 
       0.314451         1216.15         766.227 
       0.330372         1116.29         702.927 
       0.346141         1066.91         638.013 
       0.361624         1025.54         579.867 
       0.377134         954.906         533.569 
       0.392932          917.07         493.701 
       0.408854         899.304         455.097 
       0.424564         832.446         419.469 
       0.440253         818.131         388.897 
       0.455999         787.903         362.313 
       0.471626         758.749         337.882 
        0.48727         727.677         315.029 
       0.502856         707.636         294.498 
       0.518488         700.473          276.18 
       0.534347         656.519          259.15 
       0.550082         639.507         243.448 
       0.565732         637.018         229.083 
       0.581496         601.421         215.926 
       0.597222         590.272         203.859 
       0.612804          578.95         192.764 
       0.628434         562.378         182.422 
       0.644267         547.861         172.754 
       0.660051         531.293         163.843 
       0.675724         526.369         155.614 
       0.691403         508.834         147.944 
       0.707174         492.262         140.748 
       0.722871         486.684         134.058 
        0.73838         477.923         127.876 
       0.754018         466.928         122.036 
       0.769845         458.229         116.498 
        0.78569         450.407         111.298 
       0.801365         438.981         106.468 
       0.817031         426.508         101.929 
       0.832809         423.398         97.6268 
       0.848511         413.944         93.5935 
       0.864097         402.041         89.8169 
       0.879701         396.861         86.2461 
       0.895507         393.928         82.8282 
       0.911279         382.089         79.6035 
        0.92691         377.082          76.578 
       0.942635         368.081         73.6937 
       0.958396         359.159         70.9525 
       0.974128         353.704         68.3564 
       0.989692          351.15         65.9164 
        1.00528         341.971         63.5923 
        1.02113         340.359         61.3444 
        1.03692          330.37         59.2138 
        1.05264         328.537         57.1947 
        1.06832           319.6         55.2733 
        1.08405         315.327         53.4353 
        1.09979         309.721         51.6802 
        1.11537         304.303         50.0216 
        1.13105          298.95         48.4262 
        1.14679         292.477         46.8945 
        1.16256         287.186         45.4263 
        1.17828         285.946         44.0261 
        1.19395         278.725         42.6897 
         1.2097         275.775         41.4023 
        1.22537         269.761         40.1744 
          1.241         268.031         39.0001 
        1.25666         262.723           37.87 
        1.27241         259.187         36.7796 
        1.28819          255.33         35.7304 
        1.30392         249.259         34.7253 
        1.31957         249.303         33.7634 
        1.33529         244.027         32.8346 
        1.35108         238.603         31.9372 
        1.36674         235.959         31.0798 
         1.3824         234.578         30.2548 
        1.39811         230.687         29.4571 
        1.41389         227.553         28.6851 
        1.42964         225.092         27.9423 
        1.44531         221.584         27.2294 
        1.46101         218.084         26.5399 
        1.47667          215.06         25.8765 
        1.49229         213.062         25.2375 
        1.50793         207.922         24.6195 
        1.52367         206.574         24.0182 
        1.53953         203.547          23.433 
        1.55526          198.91         22.8721 
        1.57092         197.851         22.3319 
        1.58662         195.467         21.8078 
        1.60235         191.897         21.2997 
        1.61809          190.41         20.8075 
        1.63369         187.032         20.3352 
        1.64941         183.288         19.8743 
        1.66519          182.43          19.426 
        1.68085         179.748         18.9948 
        1.69652         177.035         18.5765 
        1.71228          173.44         18.1685 
        1.72806         171.906         17.7725 
        1.74368         169.588         17.3923 
        1.75933         166.604         17.0224 
        1.77505          165.54         16.6616 
        1.79081         163.905         16.3106 
         1.8065         161.173         15.9713 
        1.82218         159.155         15.6419 
        1.83797          157.78         15.3196 
        1.85367         155.244         15.0082 
        1.86928         152.595         14.7073 
        1.88497         150.844          14.413 
        1.90073         149.548         14.1257 
        1.91647          147.66         13.8465 
        1.93218         145.977         13.5755 
        1.94787          143.31         13.3121 
        1.96363         141.263         13.0547 
        1.97935         140.394         12.8046 
        1.99499         137.824         12.5625 
        2.01064         136.575         12.3263 
         2.0264          134.81         12.0947 
        2.04216         133.084         11.8692 
        2.05781         131.892         11.6509 
        2.07353         130.426         11.4373 
        2.08928         127.918         11.2285 
        2.10499         126.833         11.0256 
        2.12065         124.655         10.8283 
        2.13633         123.991         10.6356 
        2.15211         121.389         10.4464 
        2.16785         120.011         10.2624 
        2.18349         119.091         10.0839 
        2.19916         117.606         9.90931 
        2.21489         116.232         9.73828 
        2.23063         114.162         9.57117 
         2.2463         113.119         9.40873 
        2.26194         111.331         9.25048 
        2.27765         110.416         9.09506 
        2.29341         109.141          8.9428 
        2.30914         108.084         8.79435 
        2.32486         106.577         8.64936 
        2.34061          105.37         8.50739 
        2.35635         104.094         8.36875 
        2.37203         102.735         8.23367 
        2.38768         101.554         8.10186 
        2.40339         100.511         7.97246 
        2.41914         99.1455         7.84558 
        2.43483         98.2247         7.72192 
         2.4505         97.0658         7.60113 
        2.46622         95.9728         7.48251 
        2.48195         94.6785         7.36642 
        2.49759         93.3036         7.25341 
        2.51328         93.0314         7.14248 
        2.52906         91.3346         7.03317 
        2.54479          90.474         6.92655 
        2.56049         89.4286         6.82236 
        2.57618         88.3647         6.72039 
        2.59189         87.4225         6.62036 
        2.60758         86.5737         6.52253 
        2.62325         85.4496         6.42679 
        2.63898         84.1975         6.33264 
        2.65468         83.3838         6.24057 
        2.67044         82.6072         6.14995 
        2.68618         81.5945         6.06133 
        2.70184         81.1953         5.97481 
        2.71755         79.8993         5.88976 
        2.73329         79.1641         5.80625 
        2.74897         78.2449         5.72462 
        2.76462         77.1521         5.64474 
        2.78034          76.615         5.56606 
        2.79607         75.1767          5.4888 
        2.81179         74.5085         5.41309 
        2.82749         73.7004          5.3389 
        2.84321         73.1936         5.26601 
        2.85893         72.3435         5.19451 
        2.87462         71.3412         5.12445 
        2.89033         70.4724         5.05563 
        2.90605         69.8189         4.98801 
        2.92176          69.017         4.92166 
        2.93747         68.5971         4.85655 
        2.95318         67.6017         4.79261 
        2.96891         67.1873         4.72978 
        2.98456         66.4837         4.66837 
        3.00023         65.4719         4.60795 
        3.01596         64.9434         4.54842 
        3.03164          64.066          4.4901 
        3.04738          63.585         4.43264 
         3.0631         62.8643         4.37621 
        3.07883         62.2941         4.32075 
        3.09456         61.6078         4.26627 
        3.11026         60.8386          4.2128 
        3.12596         60.2056         4.16026 
        3.14163         59.6935         4.10874 
        3.15734         59.0919         4.05797 
        3.17308         58.2785         4.00794 
        3.18879         58.0014         3.95888 
        3.20447         57.0681         3.91072 
         3.2202          56.771         3.86321 
         3.2359          56.022         3.81657 
        3.25157         55.4617         3.77082 
        3.26729         55.0423         3.72567 
        3.28304         54.5831         3.68118 
        3.29877         53.9215         3.63747 
        3.31446         53.0935         3.59457 
        3.33014         52.8337         3.55239 
        3.34585         52.2799         3.51083 
        3.36158         51.7857         3.46987 
        3.37727         51.3615         3.42969 
        3.39294         50.8511         3.39019 
        3.40867         50.2729         3.35116 
        3.42439         49.7936         3.31278 
        3.44008         49.3487         3.27506 
        3.45578         48.7464         3.23791 
        3.47153         48.3439         3.20125 
        3.48724         47.7864         3.16522 
        3.50292          47.547         3.12983 
        3.51859         46.9637           3.095 
        3.53431         46.6183         3.06059 
        3.55007         45.9835         3.02662 
        3.56577         45.7408          2.9933 
        3.58146         45.1446         2.96049 
        3.59719         44.8161          2.9281 
        3.61292         44.2383         2.89621 
        3.62859         43.9266         2.86491 
        3.64429         43.5276         2.83401 
        3.66003         43.1465         2.80347 
        3.67578         42.5993          2.7734 
        3.69146         42.3142         2.74388 
        3.70712         41.8568         2.71484 
        3.72284          41.404         2.68612 
        3.73853         41.0944         2.65786 
        3.75422         40.5355         2.62999 
        3.76993         40.3355         2.60251 
        3.78564         39.9363         2.57542 
        3.80137          39.585         2.54868 
        3.81707         39.2388         2.52237 
        3.83279         38.9789         2.49641 
        3.84853          38.533         2.47078 
        3.86424         38.1558         2.44556 
        3.87992         37.9343         2.42072 
        3.89561          37.539         2.39623 
        3.91134         37.0733         2.37203 
        3.92704          36.909         2.34819 
        3.94273         36.4421          2.3247 
        3.95845          36.299         2.30149 
        3.97418          35.902         2.27859 
        3.98988         35.6073         2.25603 
        4.00554         35.2559         2.23384 
        4.02125         34.9369         2.21188 
        4.03698         34.5968         2.19019 
        4.05268         34.3261         2.16883 
        4.06839         33.9864         2.14775 
         4.0841         33.6676         2.12695 
        4.09983          33.412          2.1064 
        4.11555         33.1169         2.08612 
        4.13124         32.8826         2.06617 
        4.14693         32.5174         2.04647 
        4.16266         32.2675         2.02697 
        4.17839         31.9055         2.00774 
        4.19408         31.6874          1.9888 
        4.20977         31.3745          1.9701 
        4.22551         31.0771          1.9516 
        4.24123         30.9552         1.93335 
        4.25691         30.6795         1.91538 
        4.27259         30.3714         1.89764 
        4.28831         30.0681         1.88009 
        4.30404         29.9211         1.86274 
        4.31974         29.5445         1.84564 
        4.33543         29.3025         1.82878 
        4.35116         29.1643         1.81208 
        4.36688         28.8528         1.79559 
        4.38255         28.5892         1.77938 
        4.39825         28.3319         1.76332 
        4.41398         28.1716         1.74744 
         4.4297         27.8754         1.73177 
        4.44541         27.6297         1.71629 
        4.46111         27.4131         1.70101 
        4.47683         27.2501         1.68591 
        4.49251          26.954         1.67102 
        4.50819          26.799         1.65631 
         4.5239         26.5471         1.64176 
        4.53962         26.3282         1.62737 
        4.55535         26.1418         1.61314 
        4.57106         25.8632          1.5991 
        4.58678         25.6817         1.58523 
         4.6025          25.433         1.57152 
        4.61821         25.2753         1.55797 
        4.63391         25.0642          1.5446 
         4.6496         24.8655         1.53139 
        4.66532         24.6725         1.51832 
        4.68103         24.4443          1.5054 
        4.69673         24.2813         1.49265 
        4.71241          24.119         1.48006 
        4.72811         23.8674         1.46759 
        4.74384         23.6993         1.45525 
        4.75955          23.562         1.44307 
        4.77525         23.2968         1.43103 
        4.79096         23.1522         1.41912 
        4.80669         22.9658         1.40734 
         4.8224         22.8111          1.3957 
        4.83809         22.5961         1.38421 
        4.85379         22.3623         1.37284 
         4.8695         22.2667         1.36159 
        4.88521         22.0662         1.35047 
        4.90093         21.8236         1.33947 
        4.91663          21.686         1.32861 
        4.93234         21.5683         1.31785 
        4.94807         21.3026         1.30721 
        4.96377         21.2066          1.2967 
        4.97943         21.0847         1.28633 
        4.99514         20.8582         1.27605 
        5.01086         20.7412         1.26587 
        5.02654         20.5213         1.25583 
        5.04227         20.4381         1.24587 
          5.058         20.2177         1.23601 
        5.07371         20.0718         1.22628 
        5.08942         19.8831         1.21665 
        5.10513         19.7913         1.20712 
        5.12084          19.629         1.19769 
        5.13656         19.4157         1.18836 
        5.15225         19.3336         1.17915 
        5.16796         19.2108         1.17002 
        5.18369         19.0091         1.16098 
         5.1994         18.9354         1.15205 
        5.21509         18.6929         1.14322 
        5.23079         18.6276         1.13448 
        5.24649         18.4719         1.12583 
        5.26217         18.3637         1.11728 
        5.27788          18.188          1.1088 
        5.29359         18.0486         1.10042 
        5.30933         17.8833          1.0921 
        5.32504         17.7808         1.08389 
        5.34073         17.6415         1.07577 
        5.35646          17.528         1.06772 
        5.37218         17.3844         1.05974 
        5.38789         17.2514         1.05186 
        5.40357         17.1178         1.04407 
        5.41929         17.0259         1.03635 
        5.43502          16.887          1.0287 
         5.4507         16.7774         1.02114 
        5.46639         16.6448         1.01366 
        5.48212         16.5196         1.00624 
        5.49786         16.3684        0.998881 
        5.51353         16.2735        0.991633 
        5.52921         16.1791         0.98445 
        5.54495         16.0723        0.977318 
        5.56066         15.9334        0.970263 
        5.57637         15.8251        0.963279 
        5.59207          15.685         0.95637 
        5.60778         15.6035        0.949526 
        5.62346         15.5168        0.942758 
        5.63916          15.385         0.93605 
        5.65487         15.2529        0.929404 
         5.6706         15.1453        0.922814 
        5.68633         15.0411        0.916286 
        5.70203         14.9496        0.909835 
        5.71773         14.8532        0.903446 
        5.73344         14.7144        0.897116 
        5.74916         14.6422         0.89084 
        5.76486         14.5473        0.884633 
        5.78054         14.4346        0.878494 
        5.79626         14.3365        0.872396 
          5.812         14.2211        0.866351 
         5.8277         14.1216         0.86038 
        5.84339         14.0104        0.854465 
        5.85911         13.9235        0.848595 
        5.87484         13.8087         0.84278 
        5.89053         13.7421        0.837032 
        5.90623         13.6502        0.831334 
        5.92195         13.5407         0.82568 
        5.93767         13.4417        0.820082 
        5.95336         13.3397        0.814544 
        5.96905         13.2818         0.80906 
        5.98476         13.1539        0.803618 
        6.00048          13.088        0.798224 
        6.01617          12.999        0.792888 
        6.03185         12.9093        0.787606 
        6.04756         12.8194         0.78236 
        6.06331         12.7275        0.777151 
        6.07903         12.6472           0.772 
        6.09473         12.5404          0.7669 
        6.11044         12.4807        0.761842 
        6.12616         12.3893         0.75683 
        6.14186         12.3175        0.751868 
        6.15755         12.2096        0.746951 
        6.17326         12.1364        0.742074 
        6.18898           12.07        0.737238 
        6.20467         11.9992        0.732454 
        6.22036         11.8837        0.727713 
         6.2361         11.8244           0.723 
         6.2518         11.7621        0.718338 
        6.26748         11.6849        0.713726 
        6.28319         11.6007        0.709143 
        6.29893         11.5092        0.704595 
        6.31463         11.4235        0.700095 
        6.33033         11.3582        0.695636 
        6.34604         11.3162        0.691213 
        6.36177         11.1991        0.686823 
        6.37747         11.1387         0.68248 
