# k  (h/Mpc)    Pcb(k)  (Mpc/h)^3    Pcb_linear(k) (Mpc/h)^3   ShotnoiseSubtracted = true
      0.0200456         6052.64         6154.32 
      0.0350414          4385.6         4473.98 
      0.0492313         3242.75         3250.71 
      0.0637834          2748.3         2702.29 
      0.0800726         2177.65         2144.74 
       0.096163         1535.16         1556.19 
       0.111083         1217.95         1241.26 
       0.126058         1114.62         1100.01 
       0.142273         959.238          931.95 
       0.158546         781.545         736.045 
        0.17375         633.581         620.117 
       0.188953         600.618         561.502 
       0.204907         560.581         496.815 
       0.220756         470.176         420.335 
        0.23588         411.241         365.655 
         0.2514         363.008         332.194 
       0.267535         343.976         300.579 
       0.283568         310.886          265.07 
       0.299022          285.96         236.164 
       0.314451         261.492         215.838 
       0.330372         242.482         198.007 
       0.346141         218.366         179.721 
       0.361624         207.226         163.342 
       0.377134          194.65         150.301 
       0.392932         177.576          139.07 
       0.408854         170.427         128.196 
       0.424564         163.252          118.16 
       0.440253         153.107         109.548 
       0.455999         144.102         102.059 
       0.471626          133.24         95.1776 
        0.48727         129.249         88.7401 
       0.502856         123.419         82.9569 
       0.518488          119.67         77.7968 
       0.534347         114.479         72.9997 
       0.550082         105.797         68.5766 
       0.565732         101.517           64.53 
       0.581496         97.6781         60.8239 
       0.597222         94.4943          57.425 
       0.612804         89.7076         54.2995 
       0.628434         87.7163         51.3864 
       0.644267         84.8213         48.6628 
       0.660051          82.385         46.1527 
       0.675724          79.222         43.8348 
       0.691403         76.8513         41.6742 
       0.707174         74.2399          39.647 
       0.722871         72.3448         37.7628 
        0.73838         70.7056         36.0211 
       0.754018          67.237         34.3762 
       0.769845         65.8691         32.8161 
        0.78569         64.1654         31.3515 
       0.801365          61.979         29.9909 
       0.817031         60.2374         28.7122 
       0.832809         59.4442         27.5004 
       0.848511         56.6359         26.3643 
       0.864097         55.3565         25.3004 
       0.879701         54.5593         24.2946 
       0.895507         53.6826         23.3318 
       0.911279         52.3619         22.4234 
        0.92691         51.0274         21.5712 
       0.942635         49.2755         20.7587 
       0.958396          49.051         19.9866 
       0.974128         47.7139         19.2553 
       0.989692         46.8785         18.5679 
        1.00528         45.8914         17.9133 
        1.02113         44.5656           17.28 
        1.03692         43.6412         16.6799 
        1.05264         43.1858         16.1111 
        1.06832         42.0684         15.5699 
        1.08405         41.5109         15.0521 
        1.09979         40.8048         14.5577 
        1.11537         39.3928         14.0905 
        1.13105          39.543         13.6411 
        1.14679          38.838         13.2097 
        1.16256         37.8618         12.7961 
        1.17828         37.1106         12.4017 
        1.19395         36.5287         12.0252 
         1.2097         36.1214         11.6626 
        1.22537         35.6951         11.3167 
          1.241         34.8418         10.9859 
        1.25666         34.0442         10.6676 
        1.27241         33.8011         10.3604 
        1.28819          32.865         10.0649 
        1.30392         32.5401         9.78173 
        1.31957         32.3217         9.51079 
        1.33529         32.0028         9.24916 
        1.35108          31.355         8.99636 
        1.36674         30.7904         8.75484 
         1.3824         30.1434         8.52244 
        1.39811         30.0308         8.29773 
        1.41389         29.6018         8.08029 
        1.42964         29.0618         7.87103 
        1.44531         28.8665         7.67022 
        1.46101         28.1543           7.476 
        1.47667         27.9798         7.28911 
        1.49229          27.726         7.10913 
        1.50793         27.2925         6.93504 
        1.52367         27.0211         6.76567 
        1.53953         26.7542         6.60083 
        1.55526         26.2203         6.44282 
        1.57092         25.9175         6.29064 
        1.58662         25.6005         6.14303 
        1.60235         25.3277         5.99988 
        1.61809         25.0122         5.86123 
        1.63369         24.7285          5.7282 
        1.64941         24.2774         5.59837 
        1.66519         24.1697         5.47209 
        1.68085         23.7991         5.35062 
        1.69652         23.5422          5.2328 
        1.71228         23.3442         5.11788 
        1.72806         23.0007         5.00632 
        1.74368          22.699         4.89921 
        1.75933         22.4702         4.79502 
        1.77505         22.2992         4.69339 
        1.79081         21.9623         4.59453 
         1.8065         21.8394         4.49894 
        1.82218         21.5337         4.40616 
        1.83797         21.2219         4.31537 
        1.85367         21.0261         4.22764 
        1.86928          20.834         4.14288 
        1.88497           20.51         4.05999 
        1.90073         20.5385         3.97906 
        1.91647         20.1759         3.90041 
        1.93218         20.0021         3.82406 
        1.94787         19.8607         3.74987 
        1.96363          19.682         3.67736 
        1.97935          19.469         3.60691 
        1.99499         19.2189         3.53872 
        2.01064         19.0747         3.47219 
         2.0264         18.7812         3.40695 
        2.04216         18.6428         3.34343 
        2.05781         18.4125         3.28192 
        2.07353         18.2505         3.22175 
        2.08928         18.1494         3.16296 
        2.10499         17.8961         3.10579 
        2.12065         17.6261         3.05021 
        2.13633         17.6148         2.99594 
        2.15211         17.3146         2.94265 
        2.16785         17.2771          2.8908 
        2.18349         17.1011         2.84053 
        2.19916         16.9005         2.79134 
        2.21489         16.7494         2.74317 
        2.23063         16.5856         2.69609 
         2.2463         16.4244         2.65034 
        2.26194         16.3195         2.60576 
        2.27765         16.1338         2.56198 
        2.29341         15.9497         2.51909 
        2.30914         15.8071         2.47727 
        2.32486         15.7476         2.43643 
        2.34061         15.5577         2.39644 
        2.35635         15.3594         2.35738 
        2.37203         15.2938         2.31933 
        2.38768         15.1524          2.2822 
        2.40339         14.9393         2.24575 
        2.41914         14.8315         2.21001 
        2.43483         14.7336         2.17518 
         2.4505         14.5694         2.14115 
        2.46622         14.4664         2.10774 
        2.48195         14.3237         2.07504 
        2.49759         14.2194         2.04321 
        2.51328         14.0661         2.01196 
        2.52906          13.957         1.98117 
        2.54479         13.8448         1.95113 
        2.56049         13.7577         1.92178 
        2.57618         13.6549         1.89306 
        2.59189         13.4738         1.86488 
        2.60758         13.4022         1.83732 
        2.62325         13.3222         1.81036 
        2.63898         13.1277         1.78383 
        2.65468         13.0714          1.7579 
        2.67044          12.922         1.73237 
        2.68618         12.8239         1.70741 
        2.70184         12.7101         1.68304 
        2.71755         12.5911         1.65908 
        2.73329         12.4819         1.63556 
        2.74897         12.3798         1.61256 
        2.76462         12.3608         1.59006 
        2.78034          12.149          1.5679 
        2.79607          12.066         1.54613 
        2.81179         11.9546         1.52481 
        2.82749         11.8964         1.50391 
        2.84321         11.7502         1.48338 
        2.85893         11.6856         1.46324 
        2.87462         11.6154          1.4435 
        2.89033         11.4477         1.42411 
        2.90605         11.3742         1.40507 
        2.92176         11.3281         1.38638 
        2.93747         11.2082         1.36804 
        2.95318         11.1145         1.35002 
        2.96891         11.0207         1.33233 
        2.98456         10.9372         1.31503 
        3.00023         10.8785         1.29801 
        3.01596          10.764         1.28124 
        3.03164         10.7109         1.26481 
        3.04738         10.5905         1.24863 
         3.0631         10.4927         1.23273 
        3.07883         10.4163         1.21711 
        3.09456         10.3617         1.20176 
        3.11026         10.2138          1.1867 
        3.12596         10.2106          1.1719 
        3.14163         10.0968         1.15739 
        3.15734         10.0108         1.14309 
        3.17308         9.96352         1.12899 
        3.18879         9.88498         1.11517 
        3.20447         9.76968         1.10161 
         3.2202         9.70319         1.08822 
         3.2359         9.66143         1.07509 
        3.25157         9.57901          1.0622 
        3.26729         9.50259         1.04948 
        3.28304         9.39881         1.03695 
        3.29877         9.32368         1.02464 
        3.31446         9.28815         1.01255 
        3.33014         9.18021         1.00067 
        3.34585          9.1592        0.988962 
        3.36158         9.07247        0.977425 
        3.37727         8.99652        0.966107 
        3.39294         8.93897        0.954979 
        3.40867          8.8128        0.943986 
        3.42439         8.79495        0.933172 
        3.44008         8.72074        0.922549 
        3.45578         8.65957        0.912083 
        3.47153         8.62085        0.901756 
        3.48724         8.54668        0.891608 
        3.50292         8.47539        0.881639 
        3.51859         8.40986        0.871827 
        3.53431         8.34179        0.862134 
        3.55007         8.29814        0.852565 
        3.56577         8.24276        0.843179 
        3.58146         8.17318        0.833937 
        3.59719         8.10276        0.824814 
        3.61292         8.04956        0.815829 
        3.62859         7.97544        0.807013 
        3.64429         7.92064        0.798309 
        3.66003          7.8483        0.789708 
        3.67578         7.79436        0.781236 
        3.69146          7.7503         0.77292 
        3.70712         7.71569        0.764741 
        3.72284         7.61321         0.75665 
        3.73853         7.58874        0.748689 
        3.75422         7.51936         0.74084 
        3.76993         7.47676        0.733097 
        3.78564          7.4106        0.725468 
        3.80137         7.36616        0.717935 
        3.81707         7.29528        0.710524 
        3.83279         7.29368        0.703212 
        3.84853         7.20909        0.695991 
        3.86424         7.12987        0.688886 
        3.87992         7.09117         0.68189 
        3.89561         7.05207        0.674991 
        3.91134         6.98752        0.668174 
        3.92704         6.94754        0.661458 
        3.94273         6.89321        0.654841 
        3.95845         6.85185        0.648303 
        3.97418         6.80217        0.641853 
        3.98988         6.75814        0.635499 
        4.00554         6.69608        0.629248 
        4.02125         6.64036        0.623063 
        4.03698         6.60993        0.616952 
        4.05268         6.56876        0.610937 
        4.06839         6.51522        0.604997 
         4.0841         6.47298        0.599139 
        4.09983         6.43102        0.593349 
        4.11555          6.3899        0.587638 
        4.13124         6.34398        0.582018 
        4.14693         6.27287        0.576467 
        4.16266         6.23253        0.570976 
        4.17839         6.18568        0.565559 
        4.19408         6.13599        0.560224 
        4.20977         6.09178        0.554957 
        4.22551         6.04764        0.549744 
        4.24123         6.00564        0.544603 
        4.25691         5.96765        0.539543 
        4.27259         5.92604        0.534544 
        4.28831         5.88171          0.5296 
        4.30404         5.83075        0.524713 
        4.31974         5.80323        0.519898 
        4.33543         5.75951        0.515146 
        4.35116         5.72146        0.510442 
        4.36688         5.66983        0.505799 
        4.38255         5.62062        0.501231 
        4.39825         5.59704        0.496709 
        4.41398         5.55628        0.492234 
         4.4297         5.53956        0.487819 
        4.44541         5.48048        0.483459 
        4.46111         5.46597        0.479155 
        4.47683         5.39273        0.474901 
        4.49251         5.37267        0.470707 
        4.50819         5.32973        0.466565 
         4.5239          5.2946        0.462466 
        4.53962         5.26927        0.458412 
        4.55535         5.22146        0.454404 
        4.57106         5.19141         0.45045 
        4.58678         5.16176        0.446542 
         4.6025         5.11139         0.44268 
        4.61821         5.08381        0.438863 
        4.63391         5.05733        0.435097 
         4.6496         5.01172        0.431376 
        4.66532         4.99371        0.427694 
        4.68103         4.94086        0.424055 
        4.69673         4.91935        0.420463 
        4.71241         4.88563        0.416916 
        4.72811         4.85445        0.413403 
        4.74384         4.82665        0.409927 
        4.75955         4.77742        0.406496 
        4.77525         4.75218        0.403106 
        4.79096         4.71823         0.39975 
        4.80669         4.68131        0.396432 
         4.8224          4.6654        0.393154 
        4.83809         4.62895        0.389917 
        4.85379         4.58909        0.386715 
         4.8695         4.56286        0.383545 
        4.88521         4.54093        0.380413 
        4.90093         4.51079        0.377315 
        4.91663         4.47103        0.374255 
        4.93234         4.45524        0.371225 
        4.94807         4.42054        0.368226 
        4.96377         4.38808        0.365267 
        4.97943         4.35971        0.362346 
        4.99514         4.33045        0.359449 
        5.01086          4.3006        0.356582 
        5.02654         4.27943        0.353754 
        5.04227         4.25127        0.350947 
          5.058         4.21961         0.34817 
        5.07371          4.1917        0.345429 
        5.08942         4.16812        0.342716 
        5.10513         4.14676        0.340032 
        5.12084         4.11968        0.337376 
        5.13656         4.10076        0.334749 
        5.15225         4.07287        0.332154 
        5.16796         4.03814        0.329582 
        5.18369         4.00983        0.327035 
         5.1994         3.98835         0.32452 
        5.21509         3.96835        0.322033 
        5.23079         3.93957         0.31957 
        5.24649         3.91064        0.317134 
        5.26217         3.89545        0.314725 
        5.27788         3.86351        0.312338 
        5.29359         3.83468        0.309975 
        5.30933         3.81804        0.307633 
        5.32504         3.79583         0.30532 
        5.34073         3.76715        0.303032 
        5.35646         3.74499        0.300764 
        5.37218         3.72084        0.298518 
        5.38789         3.70573        0.296299 
        5.40357            3.68        0.294104 
        5.41929         3.64913        0.291928 
        5.43502         3.63409        0.289773 
         5.4507         3.61017        0.287644 
        5.46639          3.5865        0.285537 
        5.48212         3.57623        0.283446 
        5.49786         3.55314        0.281374 
        5.51353         3.51963        0.279332 
        5.52921         3.49522        0.277309 
        5.54495         3.47352          0.2753 
        5.56066         3.46193        0.273312 
        5.57637         3.43868        0.271345 
        5.59207         3.42118        0.269399 
        5.60778          3.4002        0.267471 
        5.62346         3.37086        0.265565 
        5.63916         3.35795        0.263675 
        5.65487         3.33896        0.261803 
         5.6706         3.32156        0.259947 
        5.68633         3.29744        0.258108 
        5.70203         3.27713         0.25629 
        5.71773         3.26641        0.254491 
        5.73344         3.24671        0.252708 
        5.74916         3.22562         0.25094 
        5.76486         3.20442        0.249191 
        5.78054         3.18283        0.247462 
        5.79626         3.16922        0.245744 
          5.812         3.15548        0.244041 
         5.8277         3.13901        0.242359 
        5.84339         3.11211        0.240693 
        5.85911         3.09425         0.23904 
        5.87484         3.08677        0.237402 
        5.89053         3.05267        0.235783 
        5.90623         3.03842        0.234178 
        5.92195         3.02697        0.232585 
        5.93767          3.0101        0.231008 
        5.95336         2.99269        0.229448 
        5.96905         2.97621        0.227903 
        5.98476         2.96276         0.22637 
        6.00048           2.941        0.224851 
        6.01617         2.92416        0.223348 
        6.03185         2.90657         0.22186 
        6.04756         2.89192        0.220382 
        6.06331         2.86982        0.218915 
        6.07903         2.86016        0.217464 
        6.09473         2.84516        0.216027 
        6.11044         2.82533        0.214602 
        6.12616         2.81257        0.213191 
        6.14186         2.79545        0.211793 
        6.15755         2.78283        0.210408 
        6.17326         2.76667        0.209034 
        6.18898         2.74934        0.207672 
        6.20467         2.73606        0.206324 
        6.22036         2.71835        0.204989 
         6.2361         2.70533        0.203661 
         6.2518         2.69077        0.202348 
        6.26748         2.67746        0.201049 
        6.28319         2.65935        0.199758 
        6.29893         2.65022        0.198477 
        6.31463          2.6319        0.197209 
        6.33033         2.62258        0.195953 
        6.34604         2.60494        0.194707 
        6.36177         2.59374        0.193471 
        6.37747         2.57982        0.192247 
