# k  (h/Mpc)    Pcb(k)  (Mpc/h)^3    Pcb_linear(k) (Mpc/h)^3   ShotnoiseSubtracted = true
      0.0200456         22482.4         23024.1 
      0.0350414         15949.2         16737.8 
      0.0492313         11890.9         12161.3 
      0.0637834         10304.6         10109.6 
      0.0800726         8128.61         8023.75 
       0.096163         5632.26         5821.93 
       0.111083         4533.35         4643.72 
       0.126058         4172.77         4115.28 
       0.142273          3614.4         3486.55 
       0.158546         3174.82         2753.64 
        0.17375         2541.69         2319.94 
       0.188953         2487.32         2100.65 
       0.204907         2337.23         1858.65 
       0.220756         2028.51         1572.53 
        0.23588         1816.07         1367.97 
         0.2514         1582.45         1242.78 
       0.267535         1584.46         1124.51 
       0.283568          1437.1         991.663 
       0.299022         1361.09          883.52 
       0.314451         1297.69         807.477 
       0.330372         1190.19          740.77 
       0.346141         1144.27         672.361 
       0.361624         1099.97         611.085 
       0.377134         1025.27         562.294 
       0.392932         983.568          520.28 
       0.408854         966.838         479.598 
       0.424564         893.403         442.052 
       0.440253         877.561         409.833 
       0.455999         849.047         381.818 
       0.471626         818.459         356.072 
        0.48727         784.945         331.989 
       0.502856          762.57         310.353 
       0.518488         755.888         291.048 
       0.534347         709.152         273.102 
       0.550082         692.657         256.554 
       0.565732         688.697         241.415 
       0.581496         651.495          227.55 
       0.597222         638.576         214.834 
       0.612804         627.681         203.142 
       0.628434         610.256         192.243 
       0.644267         594.604         182.054 
       0.660051         577.718         172.663 
       0.675724          571.84         163.992 
       0.691403         553.123         155.909 
       0.707174         535.297         148.325 
       0.722871         528.769         141.276 
        0.73838         518.903          134.76 
       0.754018         508.205         128.606 
       0.769845         499.325         122.769 
        0.78569         490.013          117.29 
       0.801365         477.821           112.2 
       0.817031         465.323         107.416 
       0.832809         461.427         102.883 
       0.848511         451.432         98.6322 
       0.864097          437.78         94.6523 
       0.879701         432.136         90.8893 
       0.895507         429.865         87.2874 
       0.911279         417.692         83.8891 
        0.92691         411.925         80.7006 
       0.942635         401.659         77.6611 
       0.958396           391.7         74.7724 
       0.974128         386.255         72.0365 
       0.989692         383.959          69.465 
        1.00528         372.995         67.0159 
        1.02113         371.399         64.6469 
        1.03692         360.588         62.4017 
        1.05264         358.382         60.2739 
        1.06832         348.515          58.249 
        1.08405         344.267         56.3121 
        1.09979         338.644         54.4625 
        1.11537         332.224         52.7146 
        1.13105         326.983         51.0333 
        1.14679         318.763         49.4191 
        1.16256         312.804         47.8719 
        1.17828         312.317         46.3963 
        1.19395         304.477          44.988 
         1.2097         299.881         43.6313 
        1.22537          293.81         42.3372 
          1.241         291.169         41.0997 
        1.25666         286.301         39.9088 
        1.27241         282.131         38.7597 
        1.28819         277.665          37.654 
        1.30392         271.472         36.5948 
        1.31957         270.788         35.5811 
        1.33529         265.612         34.6023 
        1.35108         259.935         33.6566 
        1.36674         256.016          32.753 
         1.3824         254.637         31.8836 
        1.39811         250.187         31.0429 
        1.41389         247.314         30.2294 
        1.42964         244.494         29.4466 
        1.44531         240.678         28.6953 
        1.46101         236.456         27.9687 
        1.47667          233.71         27.2695 
        1.49229         231.192         26.5962 
        1.50793         225.441         25.9449 
        1.52367         224.218         25.3113 
        1.53953         220.727         24.6946 
        1.55526         216.312         24.1034 
        1.57092         214.773         23.5341 
        1.58662         212.282         22.9819 
        1.60235         208.428         22.4464 
        1.61809         206.374         21.9276 
        1.63369         203.376           21.43 
        1.64941         199.389         20.9442 
        1.66519         198.004         20.4718 
        1.68085         195.139         20.0174 
        1.69652         192.253         19.5766 
        1.71228         187.945         19.1467 
        1.72806         186.357         18.7293 
        1.74368         183.611         18.3286 
        1.75933         180.603         17.9388 
        1.77505         179.521         17.5586 
        1.79081         177.547         17.1887 
         1.8065         174.189         16.8311 
        1.82218         172.461          16.484 
        1.83797         170.886         16.1444 
        1.85367         168.011         15.8162 
        1.86928         165.192         15.4991 
        1.88497         163.271         15.1889 
        1.90073         161.581         14.8862 
        1.91647         159.991          14.592 
        1.93218         157.927         14.3063 
        1.94787         154.475         14.0288 
        1.96363         152.493         13.7575 
        1.97935         151.808         13.4939 
        1.99499         149.156         13.2388 
        2.01064         147.521         12.9899 
         2.0264         145.961         12.7459 
        2.04216         143.976         12.5082 
        2.05781         142.349         12.2781 
        2.07353         140.817          12.053 
        2.08928         138.358          11.833 
        2.10499         137.134         11.6192 
        2.12065          134.72         11.4112 
        2.13633         133.594         11.2082 
        2.15211         131.215         11.0088 
        2.16785         130.003         10.8149 
        2.18349         128.847         10.6268 
        2.19916         126.992         10.4428 
        2.21489         125.815         10.2625 
        2.23063         123.512         10.0864 
         2.2463         122.277         9.91526 
        2.26194          120.36         9.74849 
        2.27765         119.344          9.5847 
        2.29341          117.88         9.42425 
        2.30914         116.829         9.26781 
        2.32486          114.97         9.11501 
        2.34061         113.752          8.9654 
        2.35635         112.421         8.81929 
        2.37203         111.166         8.67694 
        2.38768         109.595         8.53803 
        2.40339         108.533         8.40166 
        2.41914         107.009         8.26796 
        2.43483         105.959         8.13764 
         2.4505         104.854         8.01034 
        2.46622         103.699         7.88534 
        2.48195         102.192           7.763 
        2.49759         100.874          7.6439 
        2.51328         100.371           7.527 
        2.52906         98.7868         7.41181 
        2.54479          97.854         7.29945 
        2.56049         96.6615         7.18965 
        2.57618         95.5796         7.08219 
        2.59189         94.5843         6.97678 
        2.60758          93.467         6.87368 
        2.62325         92.2336         6.77278 
        2.63898         91.0809         6.67356 
        2.65468         90.1199         6.57654 
        2.67044         89.4389         6.48103 
        2.68618         88.2893         6.38765 
        2.70184         87.7872         6.29647 
        2.71755         86.2731         6.20685 
        2.73329         85.6027         6.11883 
        2.74897         84.6893         6.03281 
        2.76462         83.4583         5.94864 
        2.78034         82.8879         5.86572 
        2.79607         81.4305          5.7843 
        2.81179         80.6992         5.70451 
        2.82749         79.8768         5.62632 
        2.84321         79.1787         5.54951 
        2.85893         78.3135         5.47416 
        2.87462         77.3604         5.40033 
        2.89033         76.3759          5.3278 
        2.90605          75.586         5.25654 
        2.92176         74.7074         5.18662 
        2.93747         74.2789         5.11801 
        2.95318         73.1523         5.05062 
        2.96891         72.7158         4.98442 
        2.98456         71.9557         4.91969 
        3.00023         71.0158         4.85603 
        3.01596         70.2201         4.79329 
        3.03164         69.4823         4.73183 
        3.04738         68.6908         4.67128 
         3.0631         67.9718         4.61181 
        3.07883          67.538         4.55336 
        3.09456         66.8699         4.49595 
        3.11026          65.969         4.43961 
        3.12596         65.2304         4.38424 
        3.14163         64.7597         4.32994 
        3.15734         63.8468         4.27644 
        3.17308         63.1723         4.22371 
        3.18879         62.7539         4.17201 
        3.20447         61.9236         4.12126 
         3.2202         61.5203         4.07119 
         3.2359         60.6855         4.02204 
        3.25157         60.1038         3.97382 
        3.26729         59.6616         3.92625 
        3.28304         59.2226         3.87936 
        3.29877         58.4978          3.8333 
        3.31446         57.5485         3.78808 
        3.33014         57.3656         3.74364 
        3.34585         56.5102         3.69984 
        3.36158         56.1392         3.65668 
        3.37727         55.6416         3.61433 
        3.39294         54.9036          3.5727 
        3.40867         54.4479         3.53158 
        3.42439         54.0043         3.49112 
        3.44008         53.3979         3.45138 
        3.45578         52.7973         3.41222 
        3.47153         52.3249         3.37359 
        3.48724         51.8336         3.33562 
        3.50292         51.5125         3.29833 
        3.51859         50.8499         3.26162 
        3.53431         50.5393         3.22536 
        3.55007         49.8951         3.18956 
        3.56577          49.587         3.15444 
        3.58146         48.9896         3.11987 
        3.59719         48.4932         3.08574 
        3.61292         48.0384         3.05213 
        3.62859         47.5766         3.01914 
        3.64429         47.1041         2.98658 
        3.66003         46.7957          2.9544 
        3.67578         46.2304         2.92271 
        3.69146         45.8779          2.8916 
        3.70712         45.3107           2.861 
        3.72284          44.933         2.83073 
        3.73853          44.524         2.80095 
        3.75422         43.9816         2.77158 
        3.76993         43.6209         2.74262 
        3.78564         43.2261         2.71407 
        3.80137         42.8564         2.68589 
        3.81707          42.436         2.65817 
        3.83279         42.0603         2.63081 
        3.84853         41.7831          2.6038 
        3.86424         41.2782         2.57722 
        3.87992         41.0054         2.55104 
        3.89561         40.6447         2.52523 
        3.91134         40.1569         2.49973 
        3.92704         39.8446          2.4746 
        3.94273         39.4955         2.44985 
        3.95845         39.3118         2.42539 
        3.97418         38.8899         2.40126 
        3.98988         38.5424         2.37749 
        4.00554         38.1514          2.3541 
        4.02125         37.9294         2.33096 
        4.03698         37.4923          2.3081 
        4.05268         37.2446          2.2856 
        4.06839         36.8793         2.26338 
         4.0841         36.4978         2.24146 
        4.09983         36.2138          2.2198 
        4.11555         35.9219         2.19843 
        4.13124         35.6501         2.17741 
        4.14693         35.2997         2.15664 
        4.16266         35.0173          2.1361 
        4.17839          34.618         2.11583 
        4.19408         34.3368         2.09587 
        4.20977         34.0307         2.07617 
        4.22551         33.7215         2.05666 
        4.24123         33.5094         2.03743 
        4.25691         33.2164          2.0185 
        4.27259         32.9051          1.9998 
        4.28831         32.6017          1.9813 
        4.30404         32.3927         1.96302 
        4.31974         32.0551         1.94501 
        4.33543         31.7293         1.92723 
        4.35116         31.5741         1.90963 
        4.36688         31.2999         1.89226 
        4.38255         31.0022         1.87517 
        4.39825         30.7607         1.85826 
        4.41398         30.5751         1.84151 
         4.4297         30.1759           1.825 
        4.44541         30.0056         1.80868 
        4.46111         29.6981         1.79258 
        4.47683         29.4861         1.77667 
        4.49251         29.1765         1.76098 
        4.50819         29.0376         1.74548 
         4.5239         28.7964         1.73015 
        4.53962         28.5476         1.71498 
        4.55535         28.3686         1.69999 
        4.57106         28.0516         1.68519 
        4.58678         27.8965         1.67057 
         4.6025         27.5392         1.65612 
        4.61821          27.409         1.64185 
        4.63391         27.1626         1.62776 
         4.6496         26.9319         1.61384 
        4.66532         26.7212         1.60006 
        4.68103          26.505         1.58645 
        4.69673         26.2927         1.57301 
        4.71241         26.1698         1.55974 
        4.72811         25.8404          1.5466 
        4.74384         25.7132         1.53359 
        4.75955         25.4871         1.52076 
        4.77525         25.2394         1.50807 
        4.79096         25.1116         1.49552 
        4.80669         24.8532          1.4831 
         4.8224         24.7163         1.47084 
        4.83809         24.5225         1.45873 
        4.85379         24.2593         1.44675 
         4.8695         24.0993         1.43489 
        4.88521         23.8839         1.42318 
        4.90093         23.6827         1.41159 
        4.91663         23.5059         1.40014 
        4.93234          23.364          1.3888 
        4.94807           23.16         1.37758 
        4.96377          22.976         1.36651 
        4.97943          22.782         1.35558 
        4.99514         22.6571         1.34475 
        5.01086         22.4955         1.33402 
        5.02654         22.2714         1.32344 
        5.04227         22.1536         1.31294 
          5.058         21.9858         1.30255 
        5.07371         21.8011         1.29229 
        5.08942         21.5558         1.28215 
        5.10513         21.4818         1.27211 
        5.12084         21.3115         1.26217 
        5.13656         21.1325         1.25234 
        5.15225         20.9548         1.24263 
        5.16796         20.8195         1.23301 
        5.18369         20.6256         1.22348 
         5.1994         20.5153         1.21407 
        5.21509         20.3212         1.20477 
        5.23079         20.2144         1.19555 
        5.24649         20.0488         1.18644 
        5.26217         19.9351         1.17743 
        5.27788         19.7668          1.1685 
        5.29359         19.6028         1.15966 
        5.30933          19.397          1.1509 
        5.32504         19.3042         1.14224 
        5.34073         19.1665         1.13368 
        5.35646          19.013          1.1252 
        5.37218         18.8655          1.1168 
        5.38789         18.7502         1.10849 
        5.40357         18.6082         1.10028 
        5.41929         18.4536         1.09214 
        5.43502          18.343         1.08408 
         5.4507         18.2007         1.07612 
        5.46639         18.0541         1.06823 
        5.48212         17.9634         1.06041 
        5.49786         17.7669         1.05266 
        5.51353         17.6576         1.04502 
        5.52921         17.5533         1.03745 
        5.54495         17.4221         1.02993 
        5.56066         17.2963          1.0225 
        5.57637         17.1464         1.01514 
        5.59207          17.023         1.00786 
        5.60778         16.8804         1.00064 
        5.62346         16.8092        0.993513 
        5.63916         16.7006        0.986444 
        5.65487         16.5582        0.979439 
         5.6706         16.4504        0.972495 
        5.68633         16.3302        0.965616 
        5.70203          16.199        0.958817 
        5.71773          16.105        0.952084 
        5.73344          15.963        0.945413 
        5.74916         15.8797        0.938799 
        5.76486         15.7842        0.932258 
        5.78054         15.6589        0.925789 
        5.79626         15.5369        0.919363 
          5.812         15.4553        0.912992 
         5.8277         15.3249        0.906699 
        5.84339         15.2066        0.900466 
        5.85911           15.11         0.89428 
        5.87484         14.9842        0.888152 
        5.89053         14.8977        0.882094 
        5.90623         14.8073         0.87609 
        5.92195         14.6942        0.870132 
        5.93767         14.5805        0.864232 
        5.95336         14.4752        0.858396 
        5.96905         14.3973        0.852616 
        5.98476           14.29        0.846882 
        6.00048         14.1719        0.841198 
        6.01617         14.0986        0.835574 
        6.03185         13.9876        0.830008 
        6.04756         13.8752        0.824479 
        6.06331          13.806         0.81899 
        6.07903         13.7119        0.813561 
        6.09473         13.6005        0.808187 
        6.11044         13.5199        0.802856 
        6.12616         13.4234        0.797574 
        6.14186         13.3128        0.792345 
        6.15755         13.2226        0.787164 
        6.17326          13.164        0.782024 
        6.18898         13.0804        0.776928 
        6.20467         12.9856        0.771886 
        6.22036         12.8884         0.76689 
         6.2361         12.8023        0.761924 
         6.2518         12.7119         0.75701 
        6.26748         12.6379        0.752151 
        6.28319          12.552         0.74732 
        6.29893         12.4561        0.742528 
        6.31463         12.3783        0.737786 
        6.33033         12.2954        0.733087 
        6.34604         12.2359        0.728425 
        6.36177         12.1275        0.723799 
        6.37747         12.0625        0.719223 
