# k  (h/Mpc)    Pcb(k)  (Mpc/h)^3    Pcb_linear(k) (Mpc/h)^3   ShotnoiseSubtracted = true
      0.0200456         16828.9         17103.6 
      0.0350414         12798.5         12433.7 
      0.0492313         8891.63          9034.1 
      0.0637834         7177.73         7509.97 
      0.0800726         5642.99         5960.48 
       0.096163         4485.65         4324.84 
       0.111083         3651.12         3449.61 
       0.126058         3026.35         3057.05 
       0.142273          2632.6            2590 
       0.158546         2162.57         2045.55 
        0.17375         1912.39         1723.38 
       0.188953          1793.7         1560.48 
       0.204907         1538.42         1380.71 
       0.220756         1384.88         1168.16 
        0.23588         1234.59          1016.2 
         0.2514          1110.1         923.206 
       0.267535         1076.43         835.343 
       0.283568         949.162         736.661 
       0.299022         906.596         656.326 
       0.314451         934.228         599.838 
       0.330372         810.208         550.284 
       0.346141         747.242         499.467 
       0.361624         716.467         453.947 
       0.377134         680.611         417.703 
       0.392932         654.786         386.492 
       0.408854         624.651         356.271 
       0.424564         607.975          328.38 
       0.440253         556.588         304.446 
       0.455999         532.969         283.635 
       0.471626         541.798          264.51 
        0.48727         511.717         246.619 
       0.502856          479.15         230.547 
       0.518488         474.777         216.206 
       0.534347         446.834         202.875 
       0.550082         428.824         190.582 
       0.565732         425.382         179.336 
       0.581496         413.506         169.037 
       0.597222         401.942         159.591 
       0.612804         392.578         150.905 
       0.628434         376.977         142.809 
       0.644267         363.121          135.24 
       0.660051         358.269         128.264 
       0.675724         352.134         121.822 
       0.691403         343.961         115.817 
       0.707174         331.056         110.184 
       0.722871         325.856         104.947 
        0.73838         321.713         100.107 
       0.754018         309.695         95.5354 
       0.769845         308.111         91.1997 
        0.78569         301.199         87.1294 
       0.801365         292.307         83.3481 
       0.817031         288.681         79.7946 
       0.832809         283.647         76.4268 
       0.848511          276.81         73.2694 
       0.864097         270.122         70.3129 
       0.879701         268.693         67.5175 
       0.895507         261.275         64.8418 
       0.911279          254.74         62.3173 
        0.92691         252.386         59.9488 
       0.942635         250.389         57.6909 
       0.958396         243.412          55.545 
       0.974128         240.308         53.5126 
       0.989692         231.716         51.6024 
        1.00528         231.435          49.783 
        1.02113         227.933         48.0232 
        1.03692         222.749         46.3554 
        1.05264         219.096         44.7747 
        1.06832         218.703         43.2705 
        1.08405         212.615         41.8317 
        1.09979         211.055         40.4577 
        1.11537         206.687         39.1593 
        1.13105         203.181         37.9103 
        1.14679         201.387         36.7112 
        1.16256         198.542         35.5618 
        1.17828         196.255         34.4656 
        1.19395         191.058         33.4195 
         1.2097         190.377         32.4117 
        1.22537         188.793         31.4504 
          1.241         183.723         30.5311 
        1.25666         181.896         29.6464 
        1.27241         178.141         28.7928 
        1.28819         176.424         27.9714 
        1.30392         174.032         27.1846 
        1.31957         169.853         26.4316 
        1.33529         167.815         25.7045 
        1.35108         166.368         25.0019 
        1.36674         163.239         24.3307 
         1.3824         162.096         23.6849 
        1.39811         159.212         23.0604 
        1.41389         156.423         22.4561 
        1.42964          154.44         21.8745 
        1.44531         152.901         21.3164 
        1.46101         149.738         20.7767 
        1.47667         149.246         20.2573 
        1.49229         146.801         19.7571 
        1.50793         144.136         19.2733 
        1.52367          142.66         18.8026 
        1.53953         139.841         18.3445 
        1.55526         139.441         17.9053 
        1.57092         137.673         17.4824 
        1.58662         134.516         17.0722 
        1.60235         133.213         16.6744 
        1.61809         131.505          16.289 
        1.63369         129.525         15.9193 
        1.64941         128.722         15.5585 
        1.66519         126.751         15.2076 
        1.68085         124.394           14.87 
        1.69652         123.352         14.5426 
        1.71228         122.256         14.2232 
        1.72806         120.831         13.9131 
        1.74368         118.931         13.6155 
        1.75933          117.96         13.3259 
        1.77505         115.808         13.0435 
        1.79081         114.323         12.7687 
         1.8065         112.362         12.5031 
        1.82218         111.179         12.2452 
        1.83797         110.762         11.9929 
        1.85367         108.809         11.7491 
        1.86928         108.149         11.5135 
        1.88497         106.121         11.2832 
        1.90073         105.388         11.0583 
        1.91647          103.65         10.8397 
        1.93218         102.484         10.6275 
        1.94787         100.889         10.4213 
        1.96363         100.097         10.2198 
        1.97935          99.003          10.024 
        1.99499         98.2073         9.83451 
        2.01064         95.8982         9.64961 
         2.0264         95.4117         9.46831 
        2.04216         93.3554         9.29177 
        2.05781         93.0146         9.12085 
        2.07353         91.7663         8.95362 
        2.08928         90.4452         8.79023 
        2.10499         89.3911         8.63135 
        2.12065         88.8878         8.47689 
        2.13633          87.707         8.32607 
        2.15211         86.3142         8.17796 
        2.16785         85.1054         8.03387 
        2.18349         84.0073         7.89415 
        2.19916         83.0308         7.75747 
        2.21489         82.2479         7.62358 
        2.23063         81.0179         7.49275 
         2.2463          80.563         7.36559 
        2.26194         79.4167         7.24171 
        2.27765         78.5093         7.12003 
        2.29341         77.6106         7.00084 
        2.30914         76.6758         6.88463 
        2.32486         75.1025         6.77112 
        2.34061         74.7404         6.65998 
        2.35635         73.7687         6.55144 
        2.37203         72.7368          6.4457 
        2.38768         72.0748         6.34251 
        2.40339         71.3365         6.24121 
        2.41914         70.1521         6.14189 
        2.43483         69.6952         6.04508 
         2.4505         68.6968         5.95052 
        2.46622         68.1997         5.85766 
        2.48195         67.1951         5.76677 
        2.49759         66.4376         5.67831 
        2.51328         65.6417         5.59146 
        2.52906         64.7911         5.50589 
        2.54479         64.1827         5.42243 
        2.56049         63.4445         5.34086 
        2.57618         62.5408         5.26104 
        2.59189         62.1431         5.18273 
        2.60758         61.2488         5.10614 
        2.62325         60.5732         5.03119 
        2.63898         59.9882         4.95748 
        2.65468         59.4198         4.88541 
        2.67044         58.7322         4.81446 
        2.68618         58.1612         4.74509 
        2.70184         57.4011         4.67736 
        2.71755         56.5809         4.61078 
        2.73329         56.1462          4.5454 
        2.74897         55.6302          4.4815 
        2.76462         55.2577         4.41897 
        2.78034         54.5225         4.35737 
        2.79607          53.729         4.29689 
        2.81179         53.1239         4.23762 
        2.82749         52.6806         4.17954 
        2.84321         52.2503         4.12248 
        2.85893         51.6604          4.0665 
        2.87462         50.9263         4.01166 
        2.89033         50.3501         3.95778 
        2.90605         49.7918         3.90484 
        2.92176         49.4126          3.8529 
        2.93747         48.7989         3.80193 
        2.95318         48.3246         3.75187 
        2.96891         47.7446          3.7027 
        2.98456         47.3408         3.65462 
        3.00023         46.6013         3.60732 
        3.01596          46.249         3.56071 
        3.03164         45.8034         3.51506 
        3.04738         45.3766         3.47008 
         3.0631         44.9091          3.4259 
        3.07883          44.394         3.38249 
        3.09456         43.8874         3.33983 
        3.11026         43.4727         3.29798 
        3.12596         43.0642         3.25685 
        3.14163         42.5757         3.21651 
        3.15734         42.1535         3.17677 
        3.17308         41.8149          3.1376 
        3.18879         41.4533          3.0992 
        3.20447         40.9591         3.06149 
         3.2202         40.5135          3.0243 
         3.2359         40.1889         2.98779 
        3.25157         39.6772         2.95197 
        3.26729         39.3331         2.91663 
        3.28304         39.0033          2.8818 
        3.29877          38.435         2.84758 
        3.31446         38.1834         2.81399 
        3.33014         37.7537         2.78098 
        3.34585         37.2775         2.74844 
        3.36158         37.0124         2.71638 
        3.37727         36.6402         2.68492 
        3.39294         36.2487           2.654 
        3.40867         35.9473         2.62345 
        3.42439         35.5152         2.59339 
        3.44008         35.2637         2.56387 
        3.45578         34.8625         2.53478 
        3.47153         34.6304         2.50609 
        3.48724         34.2419         2.47788 
        3.50292         33.8951         2.45018 
        3.51859         33.6591         2.42291 
        3.53431         33.3623         2.39597 
        3.55007         32.8022         2.36938 
        3.56577          32.755         2.34329 
        3.58146         32.3017         2.31761 
        3.59719         32.0132         2.29225 
        3.61292         31.7952         2.26728 
        3.62859         31.4046         2.24278 
        3.64429         31.1319         2.21859 
        3.66003         30.8403         2.19469 
        3.67578         30.6003         2.17115 
        3.69146          30.344         2.14804 
        3.70712         29.9473          2.1253 
        3.72284         29.7296         2.10282 
        3.73853         29.5494         2.08069 
        3.75422         29.2577         2.05888 
        3.76993         28.9565         2.03736 
        3.78564         28.7009         2.01616 
        3.80137         28.5086         1.99522 
        3.81707         28.1827         1.97463 
        3.83279         27.8996         1.95431 
        3.84853          27.681         1.93424 
        3.86424         27.3083         1.91449 
        3.87992         27.0722         1.89505 
        3.89561         26.9222         1.87588 
        3.91134         26.6595         1.85693 
        3.92704         26.3619         1.83827 
        3.94273         26.0712         1.81988 
        3.95845          25.945         1.80171 
        3.97418         25.6536         1.78378 
        3.98988         25.4521         1.76612 
        4.00554         25.1824         1.74875 
        4.02125          25.034         1.73157 
        4.03698         24.7866         1.71458 
        4.05268         24.5424         1.69786 
        4.06839         24.3236         1.68136 
         4.0841          24.142         1.66508 
        4.09983         23.8554         1.64899 
        4.11555         23.6667         1.63312 
        4.13124         23.6017          1.6175 
        4.14693         23.2606         1.60207 
        4.16266         23.0949         1.58681 
        4.17839         22.9446         1.57175 
        4.19408         22.6773         1.55693 
        4.20977         22.5502         1.54229 
        4.22551         22.3545          1.5278 
        4.24123          22.119         1.51352 
        4.25691         21.9449         1.49945 
        4.27259         21.7915         1.48556 
        4.28831         21.5858         1.47182 
        4.30404         21.3933         1.45824 
        4.31974         21.1896         1.44486 
        4.33543         21.0509         1.43165 
        4.35116         20.8658         1.41858 
        4.36688         20.6614         1.40567 
        4.38255         20.4765         1.39298 
        4.39825         20.3453         1.38041 
        4.41398         20.1754         1.36798 
         4.4297         20.0105         1.35571 
        4.44541         19.8105         1.34359 
        4.46111         19.6118         1.33163 
        4.47683         19.4641         1.31981 
        4.49251         19.3555         1.30815 
        4.50819         19.1917         1.29664 
         4.5239         19.0283         1.28525 
        4.53962         18.8985         1.27398 
        4.55535         18.7058         1.26284 
        4.57106         18.6137         1.25185 
        4.58678         18.4205         1.24099 
         4.6025         18.1875         1.23026 
        4.61821         18.0969         1.21965 
        4.63391         17.9543         1.20919 
         4.6496         17.8589         1.19885 
        4.66532         17.6482         1.18861 
        4.68103         17.5326          1.1785 
        4.69673         17.4161         1.16852 
        4.71241         17.2998         1.15866 
        4.72811         17.1244          1.1489 
        4.74384         16.9678         1.13923 
        4.75955         16.8454          1.1297 
        4.77525         16.7276         1.12028 
        4.79096          16.569         1.11095 
        4.80669         16.4439         1.10173 
         4.8224         16.3016         1.09262 
        4.83809         16.1666         1.08363 
        4.85379          16.067         1.07473 
         4.8695         15.9604         1.06592 
        4.88521         15.8121         1.05721 
        4.90093         15.6769          1.0486 
        4.91663         15.5366          1.0401 
        4.93234         15.4288         1.03168 
        4.94807         15.3282         1.02334 
        4.96377         15.2009         1.01512 
        4.97943         15.1021           1.007 
        4.99514         14.9544        0.998951 
        5.01086         14.8773        0.990983 
        5.02654         14.7416        0.983122 
        5.04227         14.6162        0.975323 
          5.058         14.5132        0.967605 
        5.07371         14.3959        0.959986 
        5.08942         14.3245        0.952448 
        5.10513         14.1805        0.944989 
        5.12084         14.0952        0.937607 
        5.13656         13.9908        0.930305 
        5.15225         13.8719        0.923093 
        5.16796         13.7393        0.915946 
        5.18369          13.635        0.908869 
         5.1994         13.5522        0.901878 
        5.21509         13.4389        0.894968 
        5.23079         13.3621        0.888121 
        5.24649         13.2595        0.881352 
        5.26217         13.1603        0.874658 
        5.27788         13.0444        0.868024 
        5.29359         12.9465        0.861457 
        5.30933         12.8833        0.854949 
        5.32504         12.7875        0.848519 
        5.34073         12.6836        0.842162 
        5.35646          12.607        0.835857 
        5.37218         12.4905        0.829616 
        5.38789         12.3803        0.823448 
        5.40357         12.3255         0.81735 
        5.41929         12.2356        0.811301 
        5.43502         12.1347        0.805312 
         5.4507         12.0492        0.799397 
        5.46639         11.9441        0.793541 
        5.48212          11.873         0.78773 
        5.49786         11.8026         0.78197 
        5.51353         11.6989        0.776297 
        5.52921         11.6302        0.770674 
        5.54495         11.5449         0.76509 
        5.56066         11.4455        0.759567 
        5.57637         11.3809          0.7541 
        5.59207         11.3191        0.748691 
        5.60778         11.2255        0.743333 
        5.62346         11.1098        0.738035 
        5.63916         11.0585        0.732784 
        5.65487         11.0016        0.727581 
         5.6706          10.897        0.722422 
        5.68633         10.8131        0.717311 
        5.70203         10.7495        0.712261 
        5.71773         10.6432         0.70726 
        5.73344         10.5863        0.702304 
        5.74916         10.5244        0.697391 
        5.76486         10.4561        0.692531 
        5.78054         10.3801        0.687726 
        5.79626         10.3255        0.682952 
          5.812         10.2457         0.67822 
         5.8277         10.1645        0.673545 
        5.84339         10.0741        0.668915 
        5.85911         10.0111        0.664319 
        5.87484         9.94352        0.659768 
        5.89053         9.87025        0.655268 
        5.90623         9.81652        0.650807 
        5.92195         9.74822        0.646381 
        5.93767         9.70471        0.641998 
        5.95336         9.60211        0.637663 
        5.96905         9.55921        0.633369 
        5.98476         9.48183         0.62911 
        6.00048          9.4233        0.624887 
        6.01617         9.34647        0.620709 
        6.03185         9.29363        0.616575 
        6.04756         9.22471        0.612468 
        6.06331         9.17309         0.60839 
        6.07903         9.10741        0.604357 
        6.09473         9.04668        0.600365 
        6.11044         8.98306        0.596405 
        6.12616         8.92855        0.592481 
        6.14186         8.87634        0.588597 
        6.15755         8.81149        0.584748 
        6.17326         8.75412         0.58093 
        6.18898         8.69329        0.577144 
        6.20467         8.62561        0.573399 
        6.22036         8.57045        0.569687 
         6.2361          8.5044        0.565998 
         6.2518         8.47716        0.562348 
        6.26748         8.39713        0.558738 
        6.28319         8.36653         0.55515 
        6.29893         8.31001         0.55159 
        6.31463         8.23011        0.548067 
        6.33033          8.1857        0.544576 
        6.34604         8.14082        0.541113 
        6.36177         8.10176        0.537677 
        6.37747         8.02369        0.534277 
