# k  (h/Mpc)    Pcb(k)  (Mpc/h)^3    Pcb_linear(k) (Mpc/h)^3   ShotnoiseSubtracted = true
      0.0200456         1719.87         1744.92 
      0.0350414         1258.43          1268.5 
      0.0492313         924.091         921.667 
      0.0637834         774.126         766.174 
      0.0800726         613.727         608.093 
       0.096163         439.065         441.224 
       0.111083         348.495         351.932 
       0.126058         313.906         311.883 
       0.142273         267.923         264.234 
       0.158546         213.524         208.689 
        0.17375         176.234         175.821 
       0.188953          162.54         159.202 
       0.204907         148.764         140.861 
       0.220756         124.064         119.177 
        0.23588         108.042         103.674 
         0.2514         96.7595         94.1864 
       0.267535         88.7796         85.2225 
       0.283568          79.182         75.1548 
       0.299022         71.5922          66.959 
       0.314451         64.0782          61.196 
       0.330372         59.5359         56.1405 
       0.346141         54.0335          50.956 
       0.361624         49.8679         46.3121 
       0.377134         46.6969         42.6144 
       0.392932         41.4849         39.4303 
       0.408854         39.8391         36.3471 
       0.424564         37.1659         33.5016 
       0.440253         34.2369         31.0599 
       0.455999         32.2613         28.9367 
       0.471626         30.2734         26.9855 
        0.48727         28.5467         25.1603 
       0.502856         26.6617         23.5206 
       0.518488          25.455         22.0576 
       0.534347          24.352         20.6975 
       0.550082          22.238         19.4434 
       0.565732         20.6213         18.2961 
       0.581496         20.2016         17.2453 
       0.597222         19.4348         16.2816 
       0.612804         18.0863         15.3954 
       0.628434         17.4189         14.5695 
       0.644267         16.8107         13.7973 
       0.660051         15.8659         13.0856 
       0.675724         15.0481         12.4284 
       0.691403         14.5499         11.8158 
       0.707174         13.9068          11.241 
       0.722871         13.3425         10.7068 
        0.73838         12.8204          10.213 
       0.754018         12.3711         9.74661 
       0.769845         11.8211         9.30428 
        0.78569         11.4399         8.88902 
       0.801365         10.9641         8.50325 
       0.817031         10.6228         8.14072 
       0.832809         10.3375         7.79713 
       0.848511         9.71538         7.47501 
       0.864097         9.45026         7.17338 
       0.879701         9.15481          6.8882 
       0.895507         8.75413         6.61522 
       0.911279         8.61981         6.35767 
        0.92691         8.32192         6.11603 
       0.942635         7.95618         5.88568 
       0.958396         7.71599         5.66675 
       0.974128         7.51364          5.4594 
       0.989692         7.40324         5.26452 
        1.00528         7.10892         5.07891 
        1.02113         6.83457         4.89937 
        1.03692         6.69549         4.72922 
        1.05264          6.5003         4.56795 
        1.06832         6.34723         4.41449 
        1.08405           6.093          4.2677 
        1.09979         5.95977         4.12753 
        1.11537         5.84171         3.99506 
        1.13105         5.67405         3.86764 
        1.14679         5.54751         3.74531 
        1.16256         5.37477         3.62805 
        1.17828         5.28489         3.51622 
        1.19395         5.11878         3.40949 
         1.2097         4.95922         3.30667 
        1.22537         4.83898          3.2086 
          1.241         4.75338         3.11481 
        1.25666         4.70538         3.02456 
        1.27241         4.52968         2.93746 
        1.28819         4.42293         2.85367 
        1.30392         4.35162         2.77339 
        1.31957         4.25632         2.69658 
        1.33529         4.15607         2.62239 
        1.35108          4.0543         2.55072 
        1.36674         4.00126         2.48224 
         1.3824         3.85068         2.41635 
        1.39811         3.79566         2.35264 
        1.41389         3.73498         2.29099 
        1.42964          3.6583         2.23166 
        1.44531         3.58741         2.17472 
        1.46101         3.51199         2.11966 
        1.47667         3.42216         2.06667 
        1.49229         3.39177         2.01564 
        1.50793          3.2957         1.96628 
        1.52367         3.26719         1.91826 
        1.53953         3.17376         1.87152 
        1.55526         3.11365         1.82672 
        1.57092         3.07269         1.78357 
        1.58662         3.00339         1.74172 
        1.60235         2.95381         1.70113 
        1.61809         2.90161         1.66182 
        1.63369         2.85586         1.62411 
        1.64941         2.80046         1.58729 
        1.66519         2.76178         1.55149 
        1.68085         2.69566         1.51705 
        1.69652         2.65095         1.48365 
        1.71228         2.61657         1.45106 
        1.72806         2.56126         1.41943 
        1.74368         2.52081         1.38906 
        1.75933         2.48111         1.35952 
        1.77505         2.44624         1.33071 
        1.79081         2.39956         1.30268 
         1.8065         2.36254         1.27557 
        1.82218         2.33674         1.24927 
        1.83797         2.30878         1.22353 
        1.85367         2.26806         1.19865 
        1.86928         2.23509         1.17462 
        1.88497         2.19001         1.15112 
        1.90073          2.1533         1.12817 
        1.91647         2.12372         1.10588 
        1.93218         2.10789         1.08423 
        1.94787         2.07323         1.06319 
        1.96363         2.03358         1.04263 
        1.97935         2.00341         1.02266 
        1.99499         1.96374         1.00333 
        2.01064         1.94728        0.984462 
         2.0264         1.93164        0.965966 
        2.04216         1.89902        0.947955 
        2.05781         1.86856        0.930517 
        2.07353         1.84909        0.913456 
        2.08928         1.82402        0.896787 
        2.10499         1.79631        0.880578 
        2.12065         1.78385         0.86482 
        2.13633         1.75092        0.849434 
        2.15211         1.72627        0.834323 
        2.16785         1.70442        0.819622 
        2.18349         1.68644        0.805369 
        2.19916         1.65335        0.791424 
        2.21489         1.63779        0.777764 
        2.23063         1.61349        0.764418 
         2.2463         1.60048        0.751445 
        2.26194         1.57253        0.738805 
        2.27765         1.55738        0.726392 
        2.29341         1.54075        0.714232 
        2.30914         1.52107        0.702376 
        2.32486         1.50939        0.690796 
        2.34061         1.48432        0.679458 
        2.35635         1.46211        0.668384 
        2.37203          1.4537        0.657596 
        2.38768         1.43738        0.647069 
        2.40339         1.42201        0.636734 
        2.41914         1.40408        0.626601 
        2.43483         1.38781        0.616724 
         2.4505         1.36652        0.607077 
        2.46622         1.35613        0.597604 
        2.48195         1.34342        0.588332 
        2.49759         1.32744        0.579306 
        2.51328         1.30862        0.570446 
        2.52906          1.2975        0.561716 
        2.54479           1.283        0.553201 
        2.56049         1.26924        0.544879 
        2.57618         1.25785        0.536736 
        2.59189         1.24682        0.528747 
        2.60758         1.22676        0.520933 
        2.62325         1.21782        0.513287 
        2.63898         1.20487        0.505767 
        2.65468         1.19377        0.498414 
        2.67044          1.1833        0.491176 
        2.68618         1.16399        0.484098 
        2.70184         1.15391        0.477188 
        2.71755         1.14276        0.470396 
        2.73329         1.13285        0.463726 
        2.74897         1.12138        0.457207 
        2.76462         1.10996        0.450827 
        2.78034         1.10276        0.444543 
        2.79607         1.08846        0.438372 
        2.81179         1.07701        0.432326 
        2.82749         1.06857          0.4264 
        2.84321         1.06106        0.420579 
        2.85893         1.04762        0.414868 
        2.87462         1.04196        0.409273 
        2.89033         1.02414        0.403776 
        2.90605         1.01812        0.398376 
        2.92176         1.00967        0.393077 
        2.93747         1.00192        0.387877 
        2.95318        0.992259         0.38277 
        2.96891        0.982862        0.377752 
        2.98456        0.977682        0.372847 
        3.00023        0.965912        0.368022 
        3.01596        0.960523        0.363267 
        3.03164        0.953646         0.35861 
        3.04738        0.938095        0.354021 
         3.0631        0.931762        0.349513 
        3.07883        0.925836        0.345084 
        3.09456        0.919824        0.340733 
        3.11026        0.909381        0.336463 
        3.12596        0.901669        0.332267 
        3.14163        0.894636        0.328152 
        3.15734        0.888815        0.324097 
        3.17308        0.879677        0.320101 
        3.18879         0.87287        0.316183 
        3.20447        0.865009        0.312336 
         3.2202        0.859098        0.308542 
         3.2359        0.853179        0.304817 
        3.25157         0.84569        0.301163 
        3.26729        0.839442        0.297557 
        3.28304        0.832441        0.294004 
        3.29877        0.823797        0.290513 
        3.31446        0.818758        0.287086 
        3.33014        0.815333        0.283718 
        3.34585        0.808309        0.280399 
        3.36158        0.798016        0.277127 
        3.37727         0.79655        0.273918 
        3.39294        0.789614        0.270763 
        3.40867        0.783753        0.267647 
        3.42439         0.77755        0.264581 
        3.44008        0.772193        0.261568 
        3.45578        0.767834        0.258601 
        3.47153        0.761044        0.255673 
        3.48724        0.755625        0.252796 
        3.50292          0.7529        0.249969 
        3.51859        0.746451        0.247187 
        3.53431        0.741153        0.244439 
        3.55007        0.737718        0.241726 
        3.56577        0.731118        0.239065 
        3.58146        0.726083        0.236445 
        3.59719        0.721744        0.233858 
        3.61292        0.717766         0.23131 
        3.62859         0.70959        0.228811 
        3.64429        0.707912        0.226343 
        3.66003        0.701786        0.223904 
        3.67578        0.696596        0.221502 
        3.69146        0.694061        0.219145 
        3.70712         0.68709        0.216826 
        3.72284        0.685309        0.214531 
        3.73853        0.677777        0.212274 
        3.75422        0.673779        0.210049 
        3.76993        0.673161        0.207854 
        3.78564        0.667565         0.20569 
        3.80137        0.660534        0.203555 
        3.81707        0.659752        0.201454 
        3.83279        0.653146         0.19938 
        3.84853        0.648462        0.197333 
        3.86424        0.646088        0.195319 
        3.87992        0.642046        0.193335 
        3.89561        0.638227        0.191379 
        3.91134        0.632595        0.189446 
        3.92704        0.629107        0.187542 
        3.94273        0.625663        0.185666 
        3.95845        0.622174        0.183812 
        3.97418        0.616343        0.181983 
        3.98988        0.613321        0.180182 
        4.00554        0.610652        0.178409 
        4.02125        0.604708        0.176656 
        4.03698        0.597625        0.174923 
        4.05268        0.594092        0.173218 
        4.06839        0.588439        0.171534 
         4.0841         0.58538        0.169873 
        4.09983        0.581204        0.168231 
        4.11555        0.576715        0.166612 
        4.13124        0.571351        0.165019 
        4.14693        0.566889        0.163445 
        4.16266        0.563067        0.161888 
        4.17839        0.560263        0.160352 
        4.19408        0.555914        0.158839 
        4.20977         0.55103        0.157346 
        4.22551        0.548459        0.155868 
        4.24123        0.544035         0.15441 
        4.25691        0.540835        0.152975 
        4.27259        0.537316        0.151558 
        4.28831         0.53366        0.150156 
        4.30404        0.530225        0.148771 
        4.31974        0.526578        0.147406 
        4.33543        0.523498        0.146058 
        4.35116          0.5217        0.144725 
        4.36688        0.517216        0.143408 
        4.38255        0.515217        0.142113 
        4.39825        0.512889        0.140831 
        4.41398        0.508403        0.139562 
         4.4297        0.505929         0.13831 
        4.44541        0.503246        0.137074 
        4.46111        0.502512        0.135854 
        4.47683        0.498936        0.134648 
        4.49251        0.496591        0.133459 
        4.50819        0.494031        0.132284 
         4.5239         0.49261        0.131122 
        4.53962        0.490642        0.129973 
        4.55535        0.488461        0.128836 
        4.57106        0.485638        0.127715 
        4.58678        0.483334        0.126607 
         4.6025        0.481185        0.125512 
        4.61821        0.479398         0.12443 
        4.63391        0.477496        0.123362 
         4.6496        0.475109        0.122307 
        4.66532         0.47467        0.121263 
        4.68103        0.472645        0.120232 
        4.69673        0.471322        0.119213 
        4.71241        0.468142        0.118207 
        4.72811        0.468439        0.117211 
        4.74384        0.466021        0.116226 
        4.75955        0.465179        0.115253 
        4.77525        0.463415        0.114292 
        4.79096        0.463493         0.11334 
        4.80669        0.460946        0.112399 
         4.8224        0.460878         0.11147 
        4.83809        0.458063        0.110552 
        4.85379        0.458869        0.109644 
         4.8695         0.45742        0.108746 
        4.88521        0.455839        0.107858 
        4.90093        0.455765        0.106979 
        4.91663        0.453385        0.106112 
        4.93234        0.452926        0.105253 
        4.94807        0.453031        0.104403 
        4.96377         0.45251        0.103563 
        4.97943        0.451701        0.102735 
        4.99514        0.449942        0.101914 
        5.01086        0.451048        0.101101 
        5.02654        0.450026        0.100299 
        5.04227        0.449646       0.0995034 
          5.058        0.448425        0.098716 
        5.07371        0.447726       0.0979387 
        5.08942        0.448742       0.0971696 
        5.10513        0.447242       0.0964087 
        5.12084        0.447512       0.0956555 
        5.13656         0.44759       0.0949106 
        5.15225        0.448208       0.0941748 
        5.16796        0.446684       0.0934457 
        5.18369        0.448239       0.0927236 
         5.1994         0.44892       0.0920105 
        5.21509        0.447146       0.0913054 
        5.23079        0.447896        0.090607 
        5.24649        0.447923       0.0899164 
        5.26217        0.446981       0.0892334 
        5.27788        0.447794       0.0885566 
        5.29359        0.448043       0.0878866 
        5.30933        0.448372       0.0872227 
        5.32504         0.44877       0.0865667 
        5.34073        0.448982       0.0859181 
        5.35646        0.449394       0.0852749 
        5.37218        0.450882       0.0846382 
        5.38789        0.450392       0.0840089 
        5.40357        0.450873       0.0833868 
        5.41929        0.451621       0.0827697 
        5.43502        0.452465       0.0821586 
         5.4507        0.452841       0.0815552 
        5.46639        0.453978       0.0809578 
        5.48212         0.45338        0.080365 
        5.49786        0.453664       0.0797773 
        5.51353        0.454964       0.0791985 
        5.52921        0.455474       0.0786248 
        5.54495        0.456669       0.0780551 
        5.56066        0.457196       0.0774917 
        5.57637        0.456863       0.0769339 
        5.59207        0.458661       0.0763821 
        5.60778        0.459654       0.0758355 
        5.62346        0.460003        0.075295 
        5.63916        0.460765       0.0747593 
        5.65487        0.462336       0.0742284 
         5.6706        0.463214       0.0737022 
        5.68633        0.464243       0.0731808 
        5.70203        0.465616       0.0726655 
        5.71773        0.465639       0.0721553 
        5.73344        0.465766       0.0716497 
        5.74916        0.468197       0.0711485 
        5.76486        0.469057       0.0706527 
        5.78054        0.469632       0.0701624 
        5.79626        0.470021       0.0696754 
          5.812        0.472449       0.0691926 
         5.8277        0.472527       0.0687157 
        5.84339        0.474666       0.0682433 
        5.85911        0.474236       0.0677745 
        5.87484        0.475161       0.0673101 
        5.89053        0.477003        0.066851 
        5.90623        0.478281        0.066396 
        5.92195        0.478665       0.0659444 
        5.93767         0.47977       0.0654972 
        5.95336        0.480358        0.065055 
        5.96905         0.48158       0.0646169 
        5.98476        0.482562       0.0641823 
        6.00048        0.485005       0.0637516 
        6.01617        0.485801       0.0633253 
        6.03185        0.486097       0.0629035 
        6.04756        0.487653       0.0624845 
        6.06331        0.490095       0.0620685 
        6.07903        0.490716       0.0616571 
        6.09473        0.491688       0.0612498 
        6.11044        0.493061       0.0608458 
        6.12616        0.493454       0.0604455 
        6.14186        0.493679       0.0600492 
        6.15755        0.495546       0.0596565 
        6.17326        0.497152        0.059267 
        6.18898        0.497542       0.0588808 
        6.20467        0.499992       0.0584987 
        6.22036        0.499437         0.05812 
         6.2361        0.500657       0.0577437 
         6.2518        0.501202       0.0573713 
        6.26748        0.502937        0.057003 
        6.28319        0.505552       0.0566369 
        6.29893        0.505984       0.0562737 
        6.31463        0.506305       0.0559143 
        6.33033        0.506293       0.0555582 
        6.34604        0.507312       0.0552049 
        6.36177        0.508684       0.0548543 
        6.37747        0.510842       0.0545075 
