# k  (h/Mpc)    Pcb(k)  (Mpc/h)^3    Pcb_linear(k) (Mpc/h)^3   ShotnoiseSubtracted = true
      0.0200456         702.469         711.489 
      0.0350414          522.71         517.228 
      0.0492313         377.187         375.808 
      0.0637834         309.895         312.406 
      0.0800726          245.38         247.949 
       0.096163         182.358         179.909 
       0.111083         146.112           143.5 
       0.126058          126.57          127.17 
       0.142273         106.958         107.741 
       0.158546         85.6028         85.0927 
        0.17375         72.8222         71.6906 
       0.188953          65.381         64.9142 
       0.204907         56.5914         57.4358 
       0.220756         48.9695         48.5942 
        0.23588         42.6602         42.2727 
         0.2514         38.7154         38.4043 
       0.267535         35.2483         34.7493 
       0.283568         31.0544         30.6442 
       0.299022         27.8554         27.3024 
       0.314451         25.8803         24.9526 
       0.330372          23.431         22.8912 
       0.346141         21.3061         20.7772 
       0.361624         19.3595         18.8837 
       0.377134         17.7435          17.376 
       0.392932         16.9024         16.0776 
       0.408854         15.2749         14.8205 
       0.424564         14.4242         13.6602 
       0.440253         13.1998         12.6646 
       0.455999          12.123         11.7989 
       0.471626         11.3472         11.0033 
        0.48727         10.8473         10.2591 
       0.502856         10.1596         9.59049 
       0.518488         9.35981         8.99394 
       0.534347         8.74689         8.43936 
       0.550082         8.36898         7.92801 
       0.565732         7.98333         7.46019 
       0.581496         7.48607         7.03173 
       0.597222         7.04999         6.63879 
       0.612804         6.64377         6.27747 
       0.628434         6.37036         5.94068 
       0.644267         6.05516         5.62582 
       0.660051         5.73512         5.33562 
       0.675724         5.40862         5.06766 
       0.691403         5.19126         4.81787 
       0.707174         4.93559         4.58352 
       0.722871         4.81022         4.36568 
        0.73838          4.4861         4.16433 
       0.754018         4.28513         3.97416 
       0.769845         4.06154          3.7938 
        0.78569         3.95168         3.62449 
       0.801365         3.77859         3.46719 
       0.817031          3.6422         3.31937 
       0.832809         3.45163         3.17927 
       0.848511         3.34388         3.04792 
       0.864097          3.2225         2.92494 
       0.879701         3.12582         2.80865 
       0.895507         2.97541         2.69734 
       0.911279         2.87744         2.59233 
        0.92691         2.79281          2.4938 
       0.942635         2.65534         2.39987 
       0.958396         2.57097         2.31061 
       0.974128         2.49321         2.22606 
       0.989692         2.39008          2.1466 
        1.00528         2.31755         2.07092 
        1.02113          2.2543         1.99771 
        1.03692         2.19176         1.92833 
        1.05264          2.0923         1.86258 
        1.06832         2.03676             1.8 
        1.08405         1.96377         1.74015 
        1.09979         1.91684         1.68299 
        1.11537         1.85127         1.62898 
        1.13105          1.7814         1.57703 
        1.14679         1.73893         1.52714 
        1.16256         1.68272         1.47933 
        1.17828         1.65153         1.43373 
        1.19395         1.59135         1.39021 
         1.2097         1.54389         1.34829 
        1.22537         1.49183          1.3083 
          1.241         1.45916         1.27006 
        1.25666         1.43122         1.23326 
        1.27241         1.38892         1.19775 
        1.28819          1.3379         1.16358 
        1.30392         1.30581         1.13085 
        1.31957         1.27883         1.09952 
        1.33529         1.22928         1.06928 
        1.35108         1.20453         1.04005 
        1.36674         1.17009         1.01213 
         1.3824         1.15405        0.985263 
        1.39811         1.11848        0.959285 
        1.41389          1.0904        0.934147 
        1.42964          1.0627        0.909954 
        1.44531         1.04053        0.886739 
        1.46101         1.00892        0.864287 
        1.47667        0.991162         0.84268 
        1.49229        0.957274        0.821873 
        1.50793        0.937496        0.801746 
        1.52367        0.913633        0.782166 
        1.53953        0.891792        0.763109 
        1.55526         0.87964        0.744842 
        1.57092        0.864736        0.727249 
        1.58662        0.848631        0.710184 
        1.60235        0.820868        0.693635 
        1.61809        0.803656        0.677606 
        1.63369        0.780364        0.662227 
        1.64941        0.768852        0.647216 
        1.66519        0.755542        0.632618 
        1.68085         0.73449        0.618575 
        1.69652        0.719849        0.604954 
        1.71228        0.703232        0.591668 
        1.72806        0.690049         0.57877 
        1.74368        0.676693        0.566388 
        1.75933        0.664396        0.554343 
        1.77505        0.652844        0.542594 
        1.79081         0.63161        0.531164 
         1.8065        0.626612        0.520114 
        1.82218        0.609094        0.509388 
        1.83797        0.594012        0.498891 
        1.85367         0.58832        0.488749 
        1.86928        0.575957         0.47895 
        1.88497        0.561289        0.469367 
        1.90073        0.555672        0.460011 
        1.91647        0.541205        0.450919 
        1.93218        0.532689        0.442093 
        1.94787        0.522601        0.433516 
        1.96363        0.513955        0.425132 
        1.97935        0.502839        0.416989 
        1.99499        0.494733        0.409104 
        2.01064         0.48603        0.401413 
         2.0264        0.473728        0.393871 
        2.04216        0.466929        0.386527 
        2.05781        0.460052        0.379417 
        2.07353         0.45095         0.37246 
        2.08928        0.444045        0.365663 
        2.10499        0.435001        0.359054 
        2.12065        0.427771        0.352629 
        2.13633        0.421201        0.346355 
        2.15211        0.412112        0.340194 
        2.16785        0.406868          0.3342 
        2.18349        0.400225        0.328388 
        2.19916        0.392827        0.322702 
        2.21489        0.385267        0.317132 
        2.23063        0.378579         0.31169 
         2.2463        0.373448          0.3064 
        2.26194        0.368225        0.301247 
        2.27765        0.361116        0.296185 
        2.29341        0.355503        0.291227 
        2.30914        0.347985        0.286393 
        2.32486        0.343267        0.281671 
        2.34061        0.336802        0.277048 
        2.35635        0.332296        0.272533 
        2.37203        0.329273        0.268134 
        2.38768        0.322914        0.263841 
        2.40339        0.317647        0.259627 
        2.41914         0.31332        0.255495 
        2.43483        0.307713        0.251468 
         2.4505        0.303213        0.247535 
        2.46622        0.298934        0.243672 
        2.48195        0.293055        0.239891 
        2.49759        0.292015        0.236211 
        2.51328        0.284828        0.232599 
        2.52906        0.280348        0.229039 
        2.54479        0.276629        0.225567 
        2.56049         0.27187        0.222174 
        2.57618        0.269638        0.218853 
        2.59189        0.264042        0.215596 
        2.60758        0.262083         0.21241 
        2.62325        0.257899        0.209292 
        2.63898        0.255067        0.206226 
        2.65468        0.249101        0.203228 
        2.67044        0.246537        0.200276 
        2.68618        0.243206         0.19739 
        2.70184        0.239763        0.194573 
        2.71755        0.235711        0.191803 
        2.73329        0.234576        0.189083 
        2.74897        0.229235        0.186425 
        2.76462        0.227247        0.183824 
        2.78034         0.22341        0.181262 
        2.79607        0.221377        0.178746 
        2.81179        0.216567         0.17628 
        2.82749        0.215069        0.173864 
        2.84321        0.212358         0.17149 
        2.85893        0.209055        0.169162 
        2.87462        0.205978         0.16688 
        2.89033        0.203591        0.164639 
        2.90605        0.201214        0.162437 
        2.92176        0.199597        0.160276 
        2.93747        0.195862        0.158156 
        2.95318        0.193698        0.156074 
        2.96891        0.191469        0.154028 
        2.98456        0.189621        0.152028 
        3.00023        0.186572         0.15006 
        3.01596        0.184143        0.148122 
        3.03164        0.181773        0.146223 
        3.04738        0.180193        0.144351 
         3.0631        0.178009        0.142514 
        3.07883        0.175671        0.140708 
        3.09456        0.173618        0.138933 
        3.11026        0.170994        0.137192 
        3.12596        0.168713        0.135481 
        3.14163         0.16739        0.133803 
        3.15734        0.165719         0.13215 
        3.17308        0.163525        0.130521 
        3.18879        0.161539        0.128923 
        3.20447        0.159352        0.127355 
         3.2202        0.158266        0.125807 
         3.2359        0.155986        0.124289 
        3.25157        0.153843        0.122799 
        3.26729         0.15279        0.121328 
        3.28304        0.151145         0.11988 
        3.29877        0.149015        0.118456 
        3.31446         0.14805        0.117059 
        3.33014        0.146234        0.115686 
        3.34585        0.144007        0.114332 
        3.36158        0.142804        0.112998 
        3.37727        0.141789         0.11169 
        3.39294        0.140266        0.110403 
        3.40867        0.138315        0.109132 
        3.42439        0.137329        0.107882 
        3.44008        0.136054        0.106654 
        3.45578        0.134393        0.105444 
        3.47153        0.133353         0.10425 
        3.48724        0.131961        0.103077 
        3.50292        0.130972        0.101925 
        3.51859        0.129344         0.10079 
        3.53431        0.127908       0.0996697 
        3.55007        0.126868       0.0985634 
        3.56577        0.126092       0.0974783 
        3.58146        0.124537       0.0964099 
        3.59719          0.1233       0.0953551 
        3.61292         0.12228       0.0943165 
        3.62859        0.121339       0.0932972 
        3.64429        0.119633        0.092291 
        3.66003        0.119163       0.0912966 
        3.67578        0.117862       0.0903172 
        3.69146        0.116866       0.0893559 
        3.70712        0.115811       0.0884103 
        3.72284        0.115119       0.0874748 
        3.73853        0.114141       0.0865545 
        3.75422        0.112839       0.0856471 
        3.76993        0.111913        0.084752 
        3.78564        0.111094         0.08387 
        3.80137         0.11047       0.0829991 
        3.81707        0.108817       0.0821424 
        3.83279        0.108217        0.081297 
        3.84853        0.107309       0.0804622 
        3.86424        0.106353       0.0796408 
        3.87992        0.105483        0.078832 
        3.89561        0.104693       0.0780345 
        3.91134        0.103685       0.0772463 
        3.92704        0.102753       0.0764699 
        3.94273        0.101882        0.075705 
        3.95845        0.100772       0.0749491 
        3.97418        0.100208       0.0742033 
        3.98988       0.0987437       0.0734688 
        4.00554       0.0982401       0.0727461 
        4.02125       0.0970959       0.0720311 
        4.03698       0.0956416       0.0713247 
        4.05268       0.0949535       0.0706292 
        4.06839       0.0934956       0.0699426 
         4.0841       0.0922758       0.0692653 
        4.09983       0.0912235       0.0685959 
        4.11555       0.0899575       0.0679358 
        4.13124       0.0889007        0.067286 
        4.14693       0.0878348       0.0666443 
        4.16266       0.0867173       0.0660094 
        4.17839       0.0857567       0.0653832 
        4.19408       0.0846051       0.0647665 
        4.20977       0.0838336       0.0641575 
        4.22551       0.0830321       0.0635548 
        4.24123       0.0819474       0.0629605 
        4.25691       0.0811871       0.0623755 
        4.27259       0.0803774       0.0617977 
        4.28831       0.0799002        0.061226 
        4.30404       0.0785656        0.060661 
        4.31974       0.0781156       0.0601044 
        4.33543        0.077411       0.0595551 
        4.35116       0.0769071       0.0590113 
        4.36688       0.0760898       0.0584745 
        4.38255       0.0755412       0.0579464 
        4.39825       0.0751346       0.0574236 
        4.41398       0.0744285       0.0569063 
         4.4297       0.0740342       0.0563958 
        4.44541       0.0734599       0.0558918 
        4.46111       0.0729112       0.0553942 
        4.47683       0.0724547       0.0549024 
        4.49251       0.0721082       0.0544175 
        4.50819       0.0718974       0.0539386 
         4.5239        0.071346       0.0534648 
        4.53962       0.0709962       0.0529961 
        4.55535       0.0709243       0.0525328 
        4.57106        0.070495       0.0520757 
        4.58678        0.070316       0.0516239 
         4.6025        0.070113       0.0511773 
        4.61821       0.0699882       0.0507362 
        4.63391       0.0697841       0.0503007 
         4.6496       0.0696088       0.0498706 
        4.66532       0.0695228       0.0494448 
        4.68103       0.0694793       0.0490242 
        4.69673       0.0693257       0.0486089 
        4.71241       0.0696307       0.0481988 
        4.72811       0.0693458       0.0477928 
        4.74384       0.0691747       0.0473909 
        4.75955       0.0692699       0.0469942 
        4.77525       0.0694979       0.0466023 
        4.79096       0.0695338       0.0462144 
        4.80669       0.0693512       0.0458307 
         4.8224       0.0697504       0.0454518 
        4.83809       0.0698336       0.0450776 
        4.85379       0.0699882       0.0447073 
         4.8695       0.0702611        0.044341 
        4.88521       0.0704736       0.0439788 
        4.90093       0.0709615       0.0436207 
        4.91663       0.0710693       0.0432669 
        4.93234       0.0712545       0.0429166 
        4.94807       0.0716187         0.04257 
        4.96377       0.0720296       0.0422278 
        4.97943       0.0727578       0.0418901 
        4.99514       0.0728941       0.0415552 
        5.01086       0.0731161       0.0412238 
        5.02654       0.0739637       0.0408968 
        5.04227       0.0743648       0.0405723 
          5.058        0.074682       0.0402513 
        5.07371       0.0753375       0.0399343 
        5.08942       0.0761828       0.0396207 
        5.10513        0.076797       0.0393105 
        5.12084       0.0773372       0.0390034 
        5.13656       0.0778949       0.0386997 
        5.15225       0.0788518       0.0383996 
        5.16796        0.079574       0.0381023 
        5.18369       0.0802339       0.0378079 
         5.1994       0.0809954       0.0375171 
        5.21509       0.0819507       0.0372296 
        5.23079       0.0826992       0.0369448 
        5.24649       0.0836763       0.0366632 
        5.26217       0.0846478       0.0363848 
        5.27788        0.085644       0.0361088 
        5.29359       0.0866497       0.0358356 
        5.30933       0.0876024       0.0355649 
        5.32504       0.0887567       0.0352974 
        5.34073       0.0895178        0.035033 
        5.35646       0.0909677       0.0347707 
        5.37218       0.0921596       0.0345111 
        5.38789       0.0934002       0.0342545 
        5.40357       0.0943127       0.0340009 
        5.41929       0.0955821       0.0337492 
        5.43502       0.0973559          0.0335 
         5.4507       0.0987449        0.033254 
        5.46639       0.0998882       0.0330104 
        5.48212        0.101218       0.0327687 
        5.49786        0.102979       0.0325291 
        5.51353        0.105153       0.0322931 
        5.52921        0.105649       0.0320591 
        5.54495        0.108202       0.0318269 
        5.56066        0.109532       0.0315971 
        5.57637         0.11112       0.0313697 
        5.59207        0.112317       0.0311447 
        5.60778        0.114574       0.0309218 
        5.62346        0.116168       0.0307014 
        5.63916        0.118135        0.030483 
        5.65487        0.120589       0.0302665 
         5.6706        0.121705       0.0300519 
        5.68633        0.124326       0.0298393 
        5.70203        0.126394       0.0296292 
        5.71773        0.128621       0.0294212 
        5.73344        0.131054        0.029215 
        5.74916        0.133492       0.0290107 
        5.76486        0.135458       0.0288085 
        5.78054        0.137402       0.0286086 
        5.79626        0.140401         0.02841 
          5.812        0.142206       0.0282132 
         5.8277        0.144726       0.0280187 
        5.84339        0.147477       0.0278261 
        5.85911        0.149647       0.0276349 
        5.87484        0.152344       0.0274456 
        5.89053        0.154577       0.0272584 
        5.90623        0.159075       0.0270728 
        5.92195         0.16049       0.0268887 
        5.93767        0.163383       0.0267064 
        5.95336        0.166491       0.0265261 
        5.96905        0.169754       0.0263475 
        5.98476        0.171778       0.0261702 
        6.00048        0.175554       0.0259946 
        6.01617        0.178416       0.0258208 
        6.03185        0.181458       0.0256488 
        6.04756        0.184231        0.025478 
        6.06331        0.188836       0.0253083 
        6.07903        0.192231       0.0251406 
        6.09473        0.194256       0.0249745 
        6.11044        0.199896       0.0248098 
        6.12616        0.200417       0.0246466 
        6.14186        0.204987        0.024485 
        6.15755        0.209069       0.0243248 
        6.17326        0.213087        0.024166 
        6.18898        0.215813       0.0240085 
        6.20467        0.219491       0.0238527 
        6.22036        0.222732       0.0236983 
         6.2361         0.22507       0.0235449 
         6.2518         0.23035        0.023393 
        6.26748        0.235026       0.0232429 
        6.28319        0.239535       0.0230936 
        6.29893        0.243646       0.0229455 
        6.31463        0.247366        0.022799 
        6.33033        0.250004       0.0226538 
        6.34604        0.255401       0.0225097 
        6.36177         0.25896       0.0223668 
        6.37747        0.262965       0.0222253 
