# k  (h/Mpc)    Pcb(k)  (Mpc/h)^3    Pcb_linear(k) (Mpc/h)^3   ShotnoiseSubtracted = true
      0.0200456         19831.2           20190 
      0.0350414         15095.7           14639 
      0.0492313         10855.3           11106 
      0.0637834         8916.78         9441.42 
      0.0800726         6758.41         7157.14 
       0.096163         5435.13         5237.63 
       0.111083         4658.44         4479.93 
       0.126058         3843.82         3951.03 
       0.142273         3244.76         3140.93 
       0.158546         2702.24         2546.72 
        0.17375         2475.08         2291.75 
       0.188953         2325.46          2039.5 
       0.204907         1976.66         1714.39 
       0.220756          1794.6         1484.11 
        0.23588         1620.91         1354.66 
         0.2514         1466.42         1218.44 
       0.267535         1413.11         1066.15 
       0.283568         1259.44         953.272 
       0.299022         1207.29         874.812 
       0.314451         1254.27         797.101 
       0.330372         1104.19         718.453 
       0.346141         1017.51         656.017 
       0.361624         978.741         606.143 
       0.377134          936.83         558.579 
       0.392932         898.498         513.014 
       0.408854         860.484         473.938 
       0.424564          842.98         440.652 
       0.440253         780.548         409.659 
       0.455999         748.098         380.938 
       0.471626         762.561         355.688 
        0.48727          720.56          333.05 
       0.502856         687.075         312.226 
       0.518488           673.1         292.933 
       0.534347         642.196          275.21 
       0.550082         614.629         259.173 
       0.565732         608.057         244.441 
       0.581496         595.815           230.7 
       0.597222         581.887         218.106 
       0.612804         570.024         206.592 
       0.628434         547.333         195.881 
       0.644267         531.421         185.806 
       0.660051         525.649         176.471 
       0.675724         515.322         167.839 
       0.691403         503.429         159.787 
       0.707174         486.707         152.225 
       0.722871          479.69         145.189 
        0.73838         473.223          138.68 
       0.754018         460.016         132.527 
       0.769845          455.48         126.685 
        0.78569         446.442         121.195 
       0.801365         431.822         116.088 
       0.817031          428.83         111.282 
       0.832809         423.238         106.721 
       0.848511         414.875         102.439 
       0.864097         405.761          98.424 
       0.879701          403.46         94.6231 
       0.895507         388.972         90.9804 
       0.911279         383.721         87.5393 
        0.92691         380.128         84.3067 
       0.942635         377.493         81.2215 
       0.958396         364.318          78.286 
       0.974128         361.169         75.5027 
       0.989692         348.852         72.8839 
        1.00528         348.044         70.3871 
        1.02113         342.369         67.9696 
        1.03692         336.975         65.6761 
        1.05264         331.533         63.5003 
        1.06832         327.296         61.4278 
        1.08405         323.774         59.4434 
        1.09979         318.461         57.5467 
        1.11537         310.078         55.7526 
        1.13105         307.284         54.0253 
        1.14679         303.031         52.3654 
        1.16256         300.645         50.7729 
        1.17828         296.056         49.2527 
        1.19395         288.671         47.8006 
         1.2097         288.491         46.4004 
        1.22537         283.909         45.0638 
          1.241         277.997         43.7844 
        1.25666         275.529         42.5521 
        1.27241         271.351         41.3621 
        1.28819         266.289          40.216 
        1.30392         265.423         39.1172 
        1.31957         258.245         38.0648 
        1.33529         255.265         37.0478 
        1.35108         254.119         36.0642 
        1.36674         247.676         35.1239 
         1.3824         246.441         34.2183 
        1.39811         243.991          33.342 
        1.41389         237.427         32.4933 
        1.42964         235.378          31.676 
        1.44531         232.778          30.891 
        1.46101         229.442         30.1313 
        1.47667          226.53         29.3997 
        1.49229         223.626         28.6946 
        1.50793         220.635         28.0121 
        1.52367         218.169         27.3477 
        1.53953         213.342         26.7005 
        1.55526         212.859         26.0797 
        1.57092           210.9         25.4815 
        1.58662         205.897         24.9007 
        1.60235         204.336         24.3372 
        1.61809         201.362         23.7909 
        1.63369         197.997         23.2665 
        1.64941         196.144         22.7543 
        1.66519         193.543         22.2558 
        1.68085         190.606          21.776 
        1.69652         188.545         21.3103 
        1.71228         185.764         20.8558 
        1.72806         183.802         20.4143 
        1.74368         181.945         19.9901 
        1.75933         180.488         19.5772 
        1.77505         177.894         19.1742 
        1.79081         174.061          18.782 
         1.8065         172.488         18.4025 
        1.82218         169.687          18.034 
        1.83797         168.733         17.6731 
        1.85367         166.527         17.3241 
        1.86928         164.073         16.9868 
        1.88497         162.827         16.6568 
        1.90073         161.067         16.3343 
        1.91647         157.888         16.0208 
        1.93218         156.662         15.7162 
        1.94787         154.343         15.4201 
        1.96363         153.707         15.1305 
        1.97935         151.791          14.849 
        1.99499         149.977         14.5764 
        2.01064         146.932         14.3102 
         2.0264         145.903         14.0491 
        2.04216         143.974         13.7947 
        2.05781         142.005         13.5483 
        2.07353         140.403         13.3071 
        2.08928          138.65         13.0712 
        2.10499         137.488         12.8418 
        2.12065         136.075         12.6186 
        2.13633         134.729         12.4006 
        2.15211          132.41         12.1864 
        2.16785         130.838         11.9778 
        2.18349         129.214         11.7756 
        2.19916         128.241         11.5776 
        2.21489         126.986         11.3835 
        2.23063         124.653         11.1938 
         2.2463         123.611         11.0093 
        2.26194         122.417         10.8295 
        2.27765         120.609         10.6528 
        2.29341         119.667         10.4796 
        2.30914          118.53         10.3106 
        2.32486         116.173         10.1456 
        2.34061         115.558         9.98385 
        2.35635         114.356         9.82583 
        2.37203          112.53         9.67182 
        2.38768         111.696         9.52145 
        2.40339         110.522         9.37377 
        2.41914         108.749          9.2289 
        2.43483         108.002         9.08763 
         2.4505         106.778         8.94958 
        2.46622         105.441         8.81396 
        2.48195         104.495         8.68115 
        2.49759          103.01         8.55182 
        2.51328         102.391         8.42481 
        2.52906         100.565          8.2996 
        2.54479         99.6157         8.17742 
        2.56049         98.4782         8.05796 
        2.57618          97.103         7.94101 
        2.59189         96.8832         7.82623 
        2.60758         94.9578         7.71391 
        2.62325         94.7625         7.60396 
        2.63898         93.5583         7.49578 
        2.65468         92.4655         7.38995 
        2.67044         91.0717         7.28573 
        2.68618         90.4965         7.18378 
        2.70184         89.1893         7.08421 
        2.71755         88.4441         6.98628 
        2.73329         87.0491         6.89008 
        2.74897         86.7387         6.79602 
        2.76462         85.5938         6.70393 
        2.78034          84.264         6.61319 
        2.79607         83.5992         6.52404 
        2.81179         83.0179         6.43666 
        2.82749         82.0887         6.35098 
        2.84321         81.2413         6.26679 
        2.85893         80.2924         6.18415 
        2.87462         79.4244         6.10316 
        2.89033          78.732         6.02356 
        2.90605          78.264         5.94533 
        2.92176         77.0199         5.86853 
        2.93747          76.545         5.79314 
        2.95318         75.4474         5.71907 
        2.96891         74.8032         5.64627 
        2.98456         73.9986         5.57507 
        3.00023         73.2101         5.50501 
        3.01596         72.7244         5.43594 
        3.03164         71.8115         5.36827 
        3.04738         71.3241         5.30155 
         3.0631         70.3468         5.23601 
        3.07883         69.6277         5.17157 
        3.09456         68.8878         5.10825 
        3.11026         68.2244         5.04608 
        3.12596         67.6042         4.98497 
        3.14163          66.869         4.92502 
        3.15734         66.1875         4.86592 
        3.17308         65.6189         4.80766 
        3.18879          64.689         4.75052 
        3.20447         64.4494          4.6944 
         3.2202         63.6082         4.63902 
         3.2359         62.9205         4.58463 
        3.25157          62.498         4.53126 
        3.26729         61.7152         4.47858 
        3.28304         61.1592         4.42664 
        3.29877         60.4948          4.3756 
        3.31446         60.0328         4.32549 
        3.33014         59.4926         4.27621 
        3.34585         58.7296         4.22762 
        3.36158         58.3084         4.17973 
        3.37727         57.7452         4.13273 
        3.39294         57.3454          4.0865 
        3.40867         56.7621         4.04082 
        3.42439         56.1621         3.99587 
        3.44008         55.5163          3.9517 
        3.45578         55.1772         3.90817 
        3.47153         54.5293          3.8652 
        3.48724         53.9558         3.82296 
        3.50292         53.4794         3.78145 
        3.51859           53.08         3.74058 
        3.53431         52.2528          3.7002 
        3.55007         51.9532         3.66032 
        3.56577          51.562         3.62118 
        3.58146         50.8537         3.58264 
        3.59719         50.3965         3.54458 
        3.61292         49.9621         3.50709 
        3.62859         49.6477         3.47029 
        3.64429         49.2329         3.43394 
        3.66003         48.7223         3.39801 
        3.67578         48.3344         3.36262 
        3.69146          47.921         3.32786 
        3.70712         47.4551         3.29366 
        3.72284         47.0232         3.25982 
        3.73853         46.5908         3.22652 
        3.75422         46.1354         3.19367 
        3.76993         45.7803         3.16126 
        3.78564         45.4514         3.12931 
        3.80137         44.9922         3.09776 
        3.81707         44.4155         3.06671 
        3.83279         44.0557         3.03606 
        3.84853         43.7248         3.00579 
        3.86424          43.391         2.97599 
        3.87992         43.0542         2.94664 
        3.89561         42.6795         2.91769 
        3.91134         42.3256         2.88907 
        3.92704          41.851         2.86088 
        3.94273          41.563         2.83309 
        3.95845          41.207         2.80562 
        3.97418         40.7685         2.77851 
        3.98988         40.3499          2.7518 
        4.00554         40.0751         2.72552 
        4.02125         39.7772         2.69951 
        4.03698         39.4283          2.6738 
        4.05268         39.1289         2.64848 
        4.06839         38.6352         2.62348 
         4.0841          38.465         2.59881 
        4.09983         38.0678         2.57442 
        4.11555         37.7614         2.55036 
        4.13124         37.4061         2.52668 
        4.14693         37.1292         2.50327 
        4.16266         36.6818         2.48012 
        4.17839         36.4847         2.45727 
        4.19408         36.2131         2.43476 
        4.20977         35.8853         2.41253 
        4.22551         35.5981         2.39053 
        4.24123         35.2563         2.36882 
        4.25691           35.01         2.34745 
        4.27259         34.7446         2.32633 
        4.28831         34.3711         2.30543 
        4.30404         34.0758         2.28477 
        4.31974         33.8016         2.26442 
        4.33543         33.6152         2.24432 
        4.35116         33.2867         2.22442 
        4.36688         33.0188         2.20477 
        4.38255         32.8282         2.18543 
        4.39825         32.4388         2.16629 
        4.41398         32.2224         2.14734 
         4.4297         31.9325         2.12863 
        4.44541         31.7887         2.11016 
        4.46111         31.5075         2.09192 
        4.47683         31.1701         2.07388 
        4.49251         30.9868          2.0561 
        4.50819         30.7189         2.03853 
         4.5239         30.4005         2.02114 
        4.53962         30.2122         2.00393 
        4.55535          29.953         1.98692 
        4.57106         29.7127         1.97013 
        4.58678         29.4936         1.95353 
         4.6025         29.2476         1.93712 
        4.61821         29.0434         1.92091 
        4.63391         28.7393          1.9049 
         4.6496         28.5291         1.88908 
        4.66532         28.3511         1.87342 
        4.68103         28.0112         1.85795 
        4.69673         27.8485         1.84266 
        4.71241         27.6388         1.82756 
        4.72811         27.4483         1.81261 
        4.74384         27.2267         1.79781 
        4.75955         27.0641          1.7832 
        4.77525         26.8623         1.76876 
        4.79096         26.5576         1.75446 
        4.80669         26.4162         1.74032 
         4.8224         26.2352         1.72635 
        4.83809         25.9296         1.71254 
        4.85379          25.758         1.69888 
         4.8695         25.6027         1.68536 
        4.88521         25.3649           1.672 
        4.90093         25.2124         1.65878 
        4.91663         24.9777         1.64571 
        4.93234         24.7783         1.63277 
        4.94807         24.6402         1.61997 
        4.96377         24.4623         1.60732 
        4.97943         24.1932         1.59484 
        4.99514         24.0348         1.58246 
        5.01086         23.8657          1.5702 
        5.02654         23.7149         1.55811 
        5.04227           23.56         1.54611 
          5.058         23.3292         1.53423 
        5.07371         23.1826         1.52249 
        5.08942         23.0052         1.51088 
        5.10513         22.8213          1.4994 
        5.12084         22.6645         1.48802 
        5.13656         22.4364         1.47677 
        5.15225         22.2941         1.46565 
        5.16796          22.122         1.45463 
        5.18369         22.0018         1.44372 
         5.1994         21.8372         1.43293 
        5.21509         21.6761         1.42227 
        5.23079         21.5425         1.41171 
        5.24649         21.4089         1.40126 
        5.26217         21.2009         1.39092 
        5.27788         21.0446         1.38068 
        5.29359         20.9145         1.37053 
        5.30933         20.7261         1.36048 
        5.32504         20.5405         1.35054 
        5.34073         20.4276         1.34072 
        5.35646         20.2548         1.33097 
        5.37218         20.0985         1.32132 
        5.38789         20.0052         1.31178 
        5.40357         19.8525         1.30235 
        5.41929         19.7124         1.29299 
        5.43502         19.5238         1.28372 
         5.4507         19.4379         1.27456 
        5.46639         19.2922          1.2655 
        5.48212         19.1555          1.2565 
        5.49786         18.9928         1.24758 
        5.51353         18.8834         1.23879 
        5.52921         18.7064         1.23007 
        5.54495         18.6081         1.22142 
        5.56066         18.4779         1.21286 
        5.57637         18.3123         1.20438 
        5.59207         18.2181         1.19599 
        5.60778         18.0862         1.18768 
        5.62346         17.9613         1.17946 
        5.63916         17.8167         1.17131 
        5.65487         17.6921         1.16323 
         5.6706         17.5554         1.15522 
        5.68633         17.4538         1.14729 
        5.70203         17.3274         1.13944 
        5.71773         17.1864         1.13168 
        5.73344         17.0717         1.12397 
        5.74916         16.9552         1.11634 
        5.76486         16.8395         1.10879 
        5.78054         16.7395         1.10131 
        5.79626         16.6116         1.09389 
          5.812         16.4831         1.08653 
         5.8277         16.4099         1.07926 
        5.84339         16.2654         1.07205 
        5.85911          16.143          1.0649 
        5.87484         16.0578         1.05782 
        5.89053         15.9396         1.05081 
        5.90623         15.7983         1.04386 
        5.92195         15.6765         1.03697 
        5.93767         15.6046         1.03014 
        5.95336         15.5341         1.02339 
        5.96905         15.3823          1.0167 
        5.98476         15.3487         1.01006 
        6.00048         15.2036         1.00347 
        6.01617          15.082        0.996958 
        6.03185         14.9875        0.990509 
        6.04756         14.8974        0.984103 
        6.06331         14.7844        0.977739 
        6.07903         14.6631        0.971446 
        6.09473         14.6117        0.965215 
        6.11044         14.4666        0.959032 
        6.12616         14.3765        0.952906 
        6.14186         14.2956        0.946839 
        6.15755         14.2199        0.940826 
        6.17326         14.0932        0.934861 
        6.18898         13.9964        0.928945 
        6.20467         13.9113        0.923092 
        6.22036         13.8229        0.917289 
         6.2361         13.7151        0.911522 
         6.2518         13.6772        0.905813 
        6.26748         13.5509        0.900166 
        6.28319         13.4927        0.894553 
        6.29893         13.3871        0.888982 
        6.31463         13.2816        0.883469 
        6.33033         13.1933        0.878005 
        6.34604         13.0976        0.872583 
        6.36177          13.027        0.867203 
        6.37747         12.9412        0.861878 
