# k  (h/Mpc)    Pcb(k)  (Mpc/h)^3    Pcb_linear(k) (Mpc/h)^3   ShotnoiseSubtracted = true
      0.0200456         9833.21         10028.6 
      0.0350414         7077.81         7271.37 
      0.0492313         5461.98          5516.5 
      0.0637834         4749.63         4689.66 
      0.0800726         3623.11         3555.04 
       0.096163         2552.86         2601.59 
       0.111083         2144.87         2225.23 
       0.126058         1970.97         1962.52 
       0.142273         1626.06         1560.14 
       0.158546         1375.86         1264.99 
        0.17375         1153.16         1138.34 
       0.188953         1099.11         1013.04 
       0.204907         1006.35         851.558 
       0.220756         862.393         737.173 
        0.23588         772.474         672.875 
         0.2514         675.807         605.212 
       0.267535         647.717          529.57 
       0.283568         590.733         473.501 
       0.299022          553.11         434.529 
       0.314451         517.423         395.929 
       0.330372         477.185         356.864 
       0.346141         433.338         325.851 
       0.361624         417.095         301.078 
       0.377134         389.315         277.453 
       0.392932         367.053          254.82 
       0.408854         352.734          235.41 
       0.424564         336.765         218.877 
       0.440253         323.946         203.482 
       0.455999         305.022         189.216 
       0.471626         283.656         176.674 
        0.48727         276.469          165.43 
       0.502856         267.031         155.086 
       0.518488         263.451         145.503 
       0.534347         248.568           136.7 
       0.550082         233.217         128.734 
       0.565732         229.291         121.417 
       0.581496         218.054         114.592 
       0.597222         212.501         108.336 
       0.612804         204.629         102.617 
       0.628434         198.333         97.2962 
       0.644267         191.862         92.2919 
       0.660051         189.444         87.6551 
       0.675724         185.297         83.3678 
       0.691403         179.822         79.3679 
       0.707174         172.212         75.6118 
       0.722871         170.789         72.1173 
        0.73838         167.164         68.8842 
       0.754018         161.599         65.8278 
       0.769845         157.666          62.926 
        0.78569         154.979         60.1988 
       0.801365         150.882          57.662 
       0.817031         145.746         55.2749 
       0.832809         143.568         53.0094 
       0.848511         140.077         50.8825 
       0.864097         137.238         48.8883 
       0.879701         134.679         47.0004 
       0.895507         131.377          45.191 
       0.911279         129.359         43.4818 
        0.92691         127.594         41.8761 
       0.942635         124.421         40.3437 
       0.958396          124.18         38.8856 
       0.974128         120.608         37.5031 
       0.989692         117.567         36.2023 
        1.00528         115.571         34.9621 
        1.02113         114.585         33.7613 
        1.03692         110.337         32.6221 
        1.05264         110.079         31.5413 
        1.06832         107.488         30.5119 
        1.08405         106.071         29.5262 
        1.09979         105.491         28.5841 
        1.11537         101.973          27.693 
        1.13105         101.959          26.835 
        1.14679         100.633         26.0105 
        1.16256         99.1176         25.2195 
        1.17828         96.4967         24.4644 
        1.19395         95.6038         23.7431 
         1.2097         93.2177         23.0476 
        1.22537         93.4251         22.3837 
          1.241         91.1907         21.7482 
        1.25666         89.4295         21.1361 
        1.27241         88.4847          20.545 
        1.28819         87.0379         19.9757 
        1.30392         85.9048           19.43 
        1.31957         84.6833         18.9072 
        1.33529         83.3523         18.4021 
        1.35108         82.7072         17.9135 
        1.36674         81.7582         17.4464 
         1.3824         80.2644         16.9966 
        1.39811         79.4364         16.5613 
        1.41389         78.1911         16.1398 
        1.42964         77.3724         15.7338 
        1.44531         75.8764         15.3439 
        1.46101         74.7635         14.9666 
        1.47667         74.7075         14.6032 
        1.49229          73.199          14.253 
        1.50793          72.609         13.9139 
        1.52367         71.5677         13.5839 
        1.53953           70.68         13.2625 
        1.55526         69.9461         12.9541 
        1.57092         69.6818         12.6569 
        1.58662         68.2717         12.3685 
        1.60235         67.7028         12.0885 
        1.61809         66.8067         11.8172 
        1.63369         65.6366         11.5567 
        1.64941          65.078         11.3023 
        1.66519          63.995         11.0547 
        1.68085         63.4657         10.8164 
        1.69652         62.4488         10.5851 
        1.71228         62.0656         10.3593 
        1.72806         61.5637           10.14 
        1.74368         60.6594         9.92931 
        1.75933         60.1165         9.72425 
        1.77505         59.4238         9.52407 
        1.79081         58.5585         9.32924 
         1.8065         58.1789         9.14074 
        1.82218         57.2919         8.95767 
        1.83797         56.7233         8.77842 
        1.85367         55.9738          8.6051 
        1.86928         55.5101         8.43756 
        1.88497          54.826          8.2736 
        1.90073         54.2404         8.11344 
        1.91647         53.8309         7.95771 
        1.93218         53.0537         7.80643 
        1.94787         52.5894         7.65935 
        1.96363         51.8638         7.51551 
        1.97935         51.4443         7.37569 
        1.99499         50.7283         7.24026 
        2.01064         50.5677         7.10806 
         2.0264         49.4518         6.97837 
        2.04216         49.0897         6.85201 
        2.05781         48.5124          6.7296 
        2.07353         48.0518         6.60978 
        2.08928         47.5486         6.49263 
        2.10499         47.0947         6.37867 
        2.12065         46.5996         6.26782 
        2.13633         46.4237         6.15952 
        2.15211         45.7814         6.05311 
        2.16785         44.9224         5.94953 
        2.18349         44.6618         5.84905 
        2.19916         44.3093         5.75071 
        2.21489         43.7346         5.65431 
        2.23063         43.2022         5.56008 
         2.2463         42.6926         5.46845 
        2.26194         42.1791         5.37912 
        2.27765         41.7207         5.29135 
        2.29341         41.3219         5.20533 
        2.30914         40.9248         5.12142 
        2.32486         40.4236         5.03942 
        2.34061         40.1115         4.95909 
        2.35635         39.7176         4.88061 
        2.37203         39.2864          4.8041 
        2.38768          38.879         4.72942 
        2.40339         38.6449         4.65606 
        2.41914         38.2704          4.5841 
        2.43483         37.5785         4.51393 
         2.4505         37.3411         4.44536 
        2.46622          37.063         4.37799 
        2.48195         36.7355         4.31203 
        2.49759         36.2323         4.24779 
        2.51328         35.7815          4.1847 
        2.52906         35.6259         4.12251 
        2.54479         35.0849         4.06182 
        2.56049         34.8101         4.00248 
        2.57618         34.3886         3.94439 
        2.59189         34.2055         3.88738 
        2.60758          33.876         3.83159 
        2.62325          33.411         3.77697 
        2.63898         33.2088         3.72324 
        2.65468         32.7307         3.67067 
        2.67044         32.5121         3.61891 
        2.68618         32.1817         3.56827 
        2.70184         31.7829         3.51881 
        2.71755         31.6832         3.47017 
        2.73329         31.2728         3.42238 
        2.74897         30.9256         3.37566 
        2.76462         30.5932         3.32992 
        2.78034          30.392         3.28485 
        2.79607         30.0526         3.24057 
        2.81179         29.8635         3.19716 
        2.82749         29.5952         3.15461 
        2.84321         29.1075         3.11278 
        2.85893         28.8771         3.07174 
        2.87462         28.6029         3.03151 
        2.89033         28.3852         2.99197 
        2.90605         28.1805         2.95311 
        2.92176         27.9896         2.91497 
        2.93747         27.6186         2.87752 
        2.95318         27.2177         2.84073 
        2.96891         27.1427         2.80457 
        2.98456         26.7314          2.7692 
        3.00023         26.5747          2.7344 
        3.01596         26.2622          2.7001 
        3.03164         26.0251         2.66648 
        3.04738         25.8855         2.63334 
         3.0631         25.5862         2.60079 
        3.07883         25.3558         2.56878 
        3.09456         25.0517         2.53732 
        3.11026         24.8359         2.50645 
        3.12596          24.642         2.47609 
        3.14163         24.4463         2.44631 
        3.15734         24.2089         2.41696 
        3.17308         24.0166         2.38802 
        3.18879         23.7556         2.35964 
        3.20447         23.5565         2.33176 
         3.2202         23.3356         2.30425 
         3.2359         23.0351         2.27724 
        3.25157         23.0375         2.25073 
        3.26729         22.7737         2.22456 
        3.28304         22.5271         2.19877 
        3.29877         22.1818         2.17341 
        3.31446         22.1178         2.14852 
        3.33014         21.8743         2.12404 
        3.34585         21.6486         2.09991 
        3.36158         21.5128         2.07612 
        3.37727          21.262         2.05277 
        3.39294         21.1089         2.02981 
        3.40867         20.9365         2.00712 
        3.42439         20.7142          1.9848 
        3.44008         20.5026         1.96286 
        3.45578         20.3213         1.94123 
        3.47153         20.1459         1.91989 
        3.48724         19.9666         1.89891 
        3.50292         19.8058         1.87829 
        3.51859         19.6481         1.85799 
        3.53431         19.4475         1.83793 
        3.55007         19.2846         1.81812 
        3.56577         19.0849         1.79868 
        3.58146         18.9482         1.77954 
        3.59719         18.7619         1.76063 
        3.61292         18.5787         1.74201 
        3.62859          18.433         1.72373 
        3.64429         18.2895         1.70568 
        3.66003          18.129         1.68783 
        3.67578          17.945         1.67025 
        3.69146         17.8127         1.65299 
        3.70712         17.6116           1.636 
        3.72284         17.5914         1.61919 
        3.73853         17.3815         1.60265 
        3.75422         17.1338         1.58633 
        3.76993         17.0272         1.57023 
        3.78564         16.8853         1.55436 
        3.80137         16.7188         1.53869 
        3.81707         16.5886         1.52327 
        3.83279         16.4146         1.50805 
        3.84853         16.2851         1.49301 
        3.86424         16.1916         1.47821 
        3.87992         15.9986         1.46363 
        3.89561         15.8821         1.44925 
        3.91134         15.7461         1.43504 
        3.92704         15.6051         1.42103 
        3.94273         15.5166         1.40723 
        3.95845         15.3295         1.39358 
        3.97418         15.2501         1.38012 
        3.98988         15.0812         1.36685 
        4.00554         14.9867          1.3538 
        4.02125         14.8109         1.34088 
        4.03698         14.7692          1.3281 
        4.05268         14.5972         1.31553 
        4.06839         14.4433         1.30311 
         4.0841         14.3481         1.29086 
        4.09983         14.2095         1.27874 
        4.11555         14.0841         1.26679 
        4.13124         13.9949         1.25503 
        4.14693          13.891         1.24341 
        4.16266         13.7697          1.2319 
        4.17839         13.6501         1.22055 
        4.19408         13.5266         1.20938 
        4.20977         13.4441         1.19833 
        4.22551          13.312          1.1874 
        4.24123         13.2175         1.17662 
        4.25691         13.0637           1.166 
        4.27259         12.9951         1.15551 
        4.28831         12.8793         1.14513 
        4.30404         12.7627         1.13487 
        4.31974         12.6457         1.12476 
        4.33543         12.5503         1.11478 
        4.35116         12.4672         1.10489 
        4.36688         12.3295         1.09513 
        4.38255         12.2567         1.08553 
        4.39825         12.1768         1.07602 
        4.41398          12.107         1.06661 
         4.4297         11.9654         1.05732 
        4.44541         11.8279         1.04814 
        4.46111         11.7805         1.03908 
        4.47683         11.6791         1.03012 
        4.49251         11.5861         1.02129 
        4.50819         11.5015         1.01256 
         4.5239         11.4256         1.00392 
        4.53962         11.3229        0.995376 
        4.55535         11.2181        0.986926 
        4.57106         11.1297        0.978586 
        4.58678         11.0261        0.970342 
         4.6025          10.975        0.962192 
        4.61821         10.8643        0.954137 
        4.63391         10.7622        0.946186 
         4.6496         10.7149        0.938329 
        4.66532         10.6184         0.93055 
        4.68103         10.5371        0.922863 
        4.69673         10.4609        0.915271 
        4.71241         10.3397        0.907772 
        4.72811         10.2607        0.900346 
        4.74384         10.2115        0.892994 
        4.75955         10.1335        0.885736 
        4.77525         10.0332        0.878563 
        4.79096         10.0035        0.871462 
        4.80669         9.89846        0.864436 
         4.8224         9.83896        0.857496 
        4.83809         9.76474         0.85064 
        4.85379           9.665        0.843856 
         4.8695         9.61616         0.83714 
        4.88521         9.53357        0.830501 
        4.90093         9.44547        0.823934 
        4.91663         9.40102        0.817444 
        4.93234         9.33806        0.811017 
        4.94807         9.23549        0.804656 
        4.96377         9.16647        0.798376 
        4.97943         9.11953        0.792176 
        4.99514         9.04791        0.786027 
        5.01086         8.96901        0.779939 
        5.02654         8.91172        0.773931 
        5.04227         8.85986        0.767969 
          5.058         8.76088        0.762068 
        5.07371         8.72001         0.75624 
        5.08942         8.66102        0.750474 
        5.10513         8.58925        0.744767 
        5.12084         8.52947        0.739117 
        5.13656         8.48399        0.733528 
        5.15225         8.39777        0.728006 
        5.16796         8.34695        0.722532 
        5.18369         8.29234        0.717111 
         5.1994         8.18867        0.711755 
        5.21509         8.15624        0.706459 
        5.23079         8.10308        0.701211 
        5.24649         8.02833        0.696021 
        5.26217         7.97882        0.690887 
        5.27788         7.91597        0.685798 
        5.29359         7.86474         0.68076 
        5.30933         7.82124        0.675766 
        5.32504         7.76239        0.670831 
        5.34073         7.70293         0.66595 
        5.35646         7.64359        0.661109 
        5.37218         7.59898        0.656315 
        5.38789         7.53433        0.651577 
        5.40357         7.49564        0.646892 
        5.41929         7.43991        0.642242 
        5.43502         7.38095        0.637638 
         5.4507         7.33578        0.633091 
        5.46639         7.27926        0.628587 
        5.48212         7.23463        0.624117 
        5.49786         7.19037        0.619686 
        5.51353         7.12232         0.61532 
        5.52921         7.08843        0.610991 
        5.54495         7.02962        0.606693 
        5.56066         6.97337         0.60244 
        5.57637         6.92146        0.598229 
        5.59207         6.88633        0.594062 
        5.60778         6.82088        0.589934 
        5.62346         6.78681        0.585851 
        5.63916         6.73973        0.581803 
        5.65487         6.70268        0.577792 
         5.6706         6.65066        0.573813 
        5.68633         6.60936        0.569872 
        5.70203         6.56053        0.565975 
        5.71773         6.52776        0.562116 
        5.73344         6.47185        0.558291 
        5.74916         6.43701        0.554499 
        5.76486         6.39908        0.550747 
        5.78054          6.3527        0.547036 
        5.79626         6.30324        0.543349 
          5.812         6.25479        0.539692 
         5.8277         6.21349         0.53608 
        5.84339           6.179        0.532501 
        5.85911         6.13106        0.528949 
        5.87484         6.10454        0.525429 
        5.89053         6.04432        0.521949 
        5.90623         6.00696        0.518499 
        5.92195         5.97582        0.515075 
        5.93767         5.92665        0.511683 
        5.95336         5.88533        0.508328 
        5.96905         5.86685        0.505005 
        5.98476         5.83589        0.501706 
        6.00048         5.78117        0.498437 
        6.01617         5.75083        0.495201 
        6.03185         5.71543        0.491997 
        6.04756         5.67723        0.488815 
        6.06331         5.62852        0.485654 
        6.07903          5.6021        0.482529 
        6.09473         5.56136        0.479433 
        6.11044         5.52535        0.476362 
        6.12616         5.49682        0.473319 
        6.14186          5.4518        0.470306 
        6.15755         5.42011        0.467319 
        6.17326          5.3833        0.464356 
        6.18898         5.34463        0.461418 
        6.20467         5.31974         0.45851 
        6.22036         5.27892        0.455628 
         6.2361         5.25109        0.452763 
         6.2518         5.22101        0.449928 
        6.26748         5.18465        0.447123 
        6.28319         5.14869        0.444335 
        6.29893         5.12724        0.441568 
        6.31463         5.09409        0.438829 
        6.33033         5.05326        0.436115 
        6.34604         5.02673        0.433422 
        6.36177          4.9988         0.43075 
        6.37747         4.96939        0.428105 
