# k  (h/Mpc)    Pcb(k)  (Mpc/h)^3    Pcb_linear(k) (Mpc/h)^3   ShotnoiseSubtracted = true
      0.0200456         17992.6         18418.8 
      0.0350414         12816.8         13354.8 
      0.0492313         9922.01         10131.8 
      0.0637834         8713.71         8613.16 
      0.0800726         6643.09         6529.28 
       0.096163         4640.18         4778.15 
       0.111083         3906.47         4086.92 
       0.126058         3599.97         3604.42 
       0.142273         2999.72         2865.39 
       0.158546         2631.19         2323.31 
        0.17375         2169.47         2090.71 
       0.188953         2104.08         1860.58 
       0.204907         1948.75            1564 
       0.220756         1695.29         1353.91 
        0.23588         1522.48         1235.82 
         0.2514         1327.01         1111.55 
       0.267535         1315.61         972.623 
       0.283568         1197.52         869.646 
       0.299022         1132.41         798.068 
       0.314451         1079.53         727.174 
       0.330372         994.052         655.426 
       0.346141         938.405         598.467 
       0.361624         903.119         552.968 
       0.377134          840.18         509.577 
       0.392932         810.334         468.009 
       0.408854         789.798         432.361 
       0.424564         737.164         401.996 
       0.440253         725.256         373.721 
       0.455999         692.361         347.519 
       0.471626         663.208         324.484 
        0.48727         639.562         303.832 
       0.502856         622.527         284.835 
       0.518488         615.935         267.235 
       0.534347         576.295         251.066 
       0.550082         558.243         236.437 
       0.565732         558.821         222.997 
       0.581496         526.341         210.462 
       0.597222          519.05         198.972 
       0.612804         506.651         188.468 
       0.628434         490.568         178.697 
       0.644267         478.766         169.506 
       0.660051         463.489          160.99 
       0.675724           460.6         153.116 
       0.691403         445.878         145.769 
       0.707174         431.315         138.871 
       0.722871         427.505         132.453 
        0.73838         420.949         126.515 
       0.754018         409.231         120.901 
       0.769845         399.657         115.572 
        0.78569         396.404         110.563 
       0.801365         385.102         105.904 
       0.817031         374.158         101.519 
       0.832809         371.801         97.3585 
       0.848511         362.531         93.4522 
       0.864097         354.712         89.7896 
       0.879701         350.159         86.3222 
       0.895507         345.143          82.999 
       0.911279         334.135         79.8598 
        0.92691          332.03         76.9108 
       0.942635         324.497         74.0963 
       0.958396         317.901         71.4183 
       0.974128         312.774         68.8792 
       0.989692         308.608         66.4901 
        1.00528         303.535         64.2123 
        1.02113         301.333         62.0069 
        1.03692         293.804         59.9146 
        1.05264         290.669         57.9297 
        1.06832         283.993          56.039 
        1.08405         279.809         54.2287 
        1.09979         275.622         52.4984 
        1.11537         270.959         50.8617 
        1.13105         265.116         49.2859 
        1.14679         263.633         47.7716 
        1.16256         258.579         46.3188 
        1.17828         254.811          44.932 
        1.19395          250.42         43.6073 
         1.2097         249.666         42.3299 
        1.22537         243.485         41.1105 
          1.241          242.49         39.9434 
        1.25666         236.988         38.8192 
        1.27241         234.308         37.7335 
        1.28819         231.005          36.688 
        1.30392         226.321         35.6856 
        1.31957         226.565         34.7256 
        1.33529         221.712         33.7977 
        1.35108         217.078         32.9005 
        1.36674         216.216         32.0426 
         1.3824          213.65         31.2164 
        1.39811         212.104          30.417 
        1.41389         207.814         29.6428 
        1.42964         205.046         28.8971 
        1.44531         202.424         28.1811 
        1.46101         200.455          27.488 
        1.47667         196.101         26.8206 
        1.49229         194.504         26.1774 
        1.50793         191.436         25.5547 
        1.52367         189.932         24.9486 
        1.53953         186.698         24.3582 
        1.55526         183.294         23.7919 
        1.57092         182.311         23.2461 
        1.58662         179.637         22.7163 
        1.60235         177.123         22.2022 
        1.61809         175.742         21.7039 
        1.63369         172.332         21.2254 
        1.64941         169.239         20.7582 
        1.66519         168.628         20.3034 
        1.68085         167.001         19.8657 
        1.69652         163.809         19.4409 
        1.71228         161.534         19.0262 
        1.72806         159.569         18.6234 
        1.74368         158.486         18.2364 
        1.75933         155.947         17.8598 
        1.77505          154.31         17.4922 
        1.79081         153.244         17.1343 
         1.8065         151.169         16.7881 
        1.82218         148.362         16.4519 
        1.83797         147.321         16.1227 
        1.85367         145.475         15.8044 
        1.86928         143.316         15.4966 
        1.88497         141.092         15.1955 
        1.90073         139.909         14.9014 
        1.91647         138.143         14.6153 
        1.93218         136.402         14.3375 
        1.94787         134.934         14.0674 
        1.96363         132.967         13.8032 
        1.97935         130.959         13.5464 
        1.99499         129.601         13.2977 
        2.01064         128.203         13.0549 
         2.0264         126.462         12.8167 
        2.04216         125.262         12.5846 
        2.05781         123.991         12.3598 
        2.07353         122.915         12.1397 
        2.08928         120.296         11.9245 
        2.10499         118.786         11.7152 
        2.12065         117.857         11.5116 
        2.13633         117.034         11.3127 
        2.15211         114.833         11.1173 
        2.16785         113.208         10.9271 
        2.18349         112.325         10.7425 
        2.19916         111.214         10.5619 
        2.21489         109.938         10.3849 
        2.23063         108.214         10.2118 
         2.2463         107.055         10.0435 
        2.26194          106.39         9.87944 
        2.27765          104.76         9.71824 
        2.29341           103.9         9.56025 
        2.30914         102.471         9.40614 
        2.32486         101.794         9.25553 
        2.34061         100.367           9.108 
        2.35635         98.8059         8.96385 
        2.37203         97.5566         8.82335 
        2.38768         96.6474         8.68617 
        2.40339         95.7878         8.55144 
        2.41914         94.2748         8.41928 
        2.43483         93.4103         8.29041 
         2.4505         92.3586         8.16447 
        2.46622         91.0779         8.04074 
        2.48195         90.3281         7.91959 
        2.49759         89.2728          7.8016 
        2.51328         88.4468         7.68574 
        2.52906         87.0789         7.57151 
        2.54479         86.4992         7.46005 
        2.56049         85.6235         7.35107 
        2.57618         84.7736         7.24438 
        2.59189         83.6184         7.13966 
        2.60758          82.858          7.0372 
        2.62325         81.8715         6.93689 
        2.63898         81.0314          6.8382 
        2.65468         79.9319         6.74166 
        2.67044         79.0683         6.64658 
        2.68618         78.3646         6.55358 
        2.70184         77.9009         6.46274 
        2.71755         77.0663         6.37341 
        2.73329         76.0277         6.28564 
        2.74897         75.3826         6.19983 
        2.76462         74.4355         6.11582 
        2.78034         73.5614         6.03304 
        2.79607          72.517         5.95171 
        2.81179          72.081         5.87199 
        2.82749         71.2082         5.79384 
        2.84321         70.5172         5.71703 
        2.85893          69.716         5.64164 
        2.87462         68.9565         5.56776 
        2.89033         68.1709         5.49514 
        2.90605         67.3792         5.42377 
        2.92176         67.1555         5.35371 
        2.93747         66.4728         5.28493 
        2.95318         65.6068         5.21736 
        2.96891         64.8823         5.15095 
        2.98456          64.224         5.08599 
        3.00023         63.3981         5.02208 
        3.01596         62.9693         4.95907 
        3.03164          62.145         4.89733 
        3.04738          61.542         4.83647 
         3.0631         60.9273         4.77667 
        3.07883         60.2435         4.71789 
        3.09456         59.8858         4.66012 
        3.11026         58.9499         4.60341 
        3.12596         58.5183         4.54766 
        3.14163         57.8858         4.49297 
        3.15734         57.5164         4.43905 
        3.17308         56.8403          4.3859 
        3.18879         56.3465         4.33378 
        3.20447         55.3585         4.28258 
         3.2202         55.3313         4.23205 
         3.2359          54.679         4.18244 
        3.25157         54.1387         4.13375 
        3.26729         53.7167         4.08569 
        3.28304         53.0357         4.03831 
        3.29877          52.609         3.99175 
        3.31446         51.9468         3.94603 
        3.33014         51.6532         3.90107 
        3.34585         51.3023         3.85675 
        3.36158         50.6929         3.81306 
        3.37727         50.1224         3.77018 
        3.39294         49.6199         3.72801 
        3.40867          49.077         3.68634 
        3.42439         48.6702         3.64533 
        3.44008         48.1068         3.60503 
        3.45578           47.65         3.56532 
        3.47153         47.2412         3.52612 
        3.48724         46.9828         3.48758 
        3.50292         46.5592         3.44972 
        3.51859         45.9202         3.41244 
        3.53431          45.386         3.37559 
        3.55007          45.034         3.33921 
        3.56577         44.6987         3.30351 
        3.58146         44.1851         3.26835 
        3.59719         43.7347         3.23363 
        3.61292         43.4132         3.19943 
        3.62859         43.1761         3.16585 
        3.64429         42.7033          3.1327 
        3.66003         42.2037         3.09992 
        3.67578         41.7664         3.06763 
        3.69146         41.4112         3.03592 
        3.70712         41.1677         3.00472 
        3.72284          40.662         2.97385 
        3.73853         40.3608         2.94347 
        3.75422         40.0239          2.9135 
        3.76993         39.6857         2.88393 
        3.78564         39.3305         2.85479 
        3.80137         38.8974           2.826 
        3.81707         38.4355         2.79768 
        3.83279         38.2773         2.76972 
        3.84853         37.9591          2.7421 
        3.86424          37.456         2.71492 
        3.87992         37.2031         2.68814 
        3.89561         36.8155         2.66173 
        3.91134         36.5666         2.63563 
        3.92704         36.2217          2.6099 
        3.94273         35.8167         2.58455 
        3.95845         35.5316         2.55949 
        3.97418          35.298         2.53476 
        3.98988         34.9219          2.5104 
        4.00554          34.593         2.48642 
        4.02125         34.4055         2.46269 
        4.03698         34.0298         2.43923 
        4.05268         33.8799         2.41614 
        4.06839         33.4336         2.39333 
         4.0841         33.1824         2.37082 
        4.09983         32.8847         2.34858 
        4.11555           32.63         2.32663 
        4.13124         32.3122         2.30502 
        4.14693         32.0035         2.28367 
        4.16266         31.7949         2.26255 
        4.17839         31.5078          2.2417 
        4.19408         31.2652         2.22117 
        4.20977         30.9641         2.20089 
        4.22551          30.746         2.18082 
        4.24123         30.4854         2.16101 
        4.25691         30.1928         2.14151 
        4.27259         29.9645         2.12225 
        4.28831         29.6537         2.10319 
        4.30404         29.4438         2.08434 
        4.31974         29.2092         2.06577 
        4.33543         28.9449         2.04743 
        4.35116         28.7788         2.02928 
        4.36688         28.4651         2.01135 
        4.38255         28.2427         1.99371 
        4.39825         27.9952         1.97625 
        4.41398          27.732         1.95896 
         4.4297         27.5235          1.9419 
        4.44541          27.374         1.92504 
        4.46111         27.1211          1.9084 
        4.47683         26.8743         1.89195 
        4.49251         26.6521         1.87572 
        4.50819          26.434         1.85969 
         4.5239         26.2384         1.84383 
        4.53962         26.0072         1.82813 
        4.55535         25.8059         1.81261 
        4.57106         25.6124          1.7973 
        4.58678         25.4593         1.78216 
         4.6025         25.2465         1.76719 
        4.61821         25.0335         1.75239 
        4.63391         24.7695         1.73779 
         4.6496          24.672         1.72336 
        4.66532         24.3999         1.70907 
        4.68103         24.1922         1.69495 
        4.69673         24.0425         1.68101 
        4.71241          23.822         1.66724 
        4.72811         23.6187          1.6536 
        4.74384         23.4488          1.6401 
        4.75955         23.2633         1.62677 
        4.77525         23.0909         1.61359 
        4.79096         22.9405         1.60055 
        4.80669         22.7716         1.58765 
         4.8224         22.4838          1.5749 
        4.83809         22.3532         1.56231 
        4.85379         22.1846         1.54985 
         4.8695         22.0293         1.53751 
        4.88521         21.8625         1.52532 
        4.90093         21.7014         1.51326 
        4.91663         21.5374         1.50134 
        4.93234         21.3239         1.48954 
        4.94807         21.1776         1.47785 
        4.96377         21.0095         1.46632 
        4.97943         20.8987         1.45493 
        4.99514          20.739         1.44364 
        5.01086         20.5809         1.43246 
        5.02654         20.4225         1.42142 
        5.04227          20.272         1.41047 
          5.058         20.0891         1.39963 
        5.07371         20.0024         1.38893 
        5.08942         19.8221         1.37834 
        5.10513         19.6753         1.36786 
        5.12084         19.4807         1.35748 
        5.13656         19.3026         1.34722 
        5.15225         19.2245         1.33708 
        5.16796         19.0652         1.32702 
        5.18369         18.9365         1.31706 
         5.1994         18.8112         1.30723 
        5.21509         18.6437          1.2975 
        5.23079         18.5395         1.28786 
        5.24649         18.3901         1.27833 
        5.26217         18.2634          1.2689 
        5.27788         18.1277         1.25956 
        5.29359         17.9521          1.2503 
        5.30933          17.847         1.24113 
        5.32504         17.7029         1.23207 
        5.34073         17.6087          1.2231 
        5.35646         17.4927         1.21421 
        5.37218         17.3256         1.20541 
        5.38789         17.1943          1.1967 
        5.40357         17.1103          1.1881 
        5.41929         16.9375         1.17956 
        5.43502         16.8344          1.1711 
         5.4507          16.723         1.16275 
        5.46639         16.5804         1.15448 
        5.48212         16.4882         1.14627 
        5.49786         16.4176         1.13813 
        5.51353         16.2284         1.13011 
        5.52921         16.1277         1.12216 
        5.54495          16.038         1.11427 
        5.56066         15.9212         1.10646 
        5.57637         15.7988         1.09872 
        5.59207          15.664         1.09107 
        5.60778         15.5871         1.08349 
        5.62346         15.4658         1.07599 
        5.63916         15.3409         1.06856 
        5.65487         15.2496         1.06119 
         5.6706         15.1388         1.05388 
        5.68633          14.994         1.04664 
        5.70203         14.9637         1.03949 
        5.71773         14.8157          1.0324 
        5.73344         14.7212         1.02537 
        5.74916         14.6051         1.01841 
        5.76486         14.5087         1.01152 
        5.78054         14.4265          1.0047 
        5.79626         14.2645        0.997929 
          5.812         14.2093        0.991213 
         5.8277         14.1193        0.984579 
        5.84339          14.009        0.978007 
        5.85911         13.8958        0.971482 
        5.87484          13.811        0.965018 
        5.89053         13.7241        0.958626 
        5.90623         13.6017         0.95229 
        5.92195         13.5297           0.946 
        5.93767         13.4378        0.939772 
        5.95336         13.3677        0.933609 
        5.96905         13.2587        0.927505 
        5.98476         13.1805        0.921447 
        6.00048         13.0775        0.915442 
        6.01617         13.0075        0.909499 
        6.03185         12.8936        0.903616 
        6.04756          12.799        0.897771 
        6.06331         12.7232        0.891966 
        6.07903         12.6603        0.886225 
        6.09473         12.5592         0.88054 
        6.11044         12.5002          0.8749 
        6.12616         12.3955        0.869311 
        6.14186         12.3008        0.863777 
        6.15755         12.2243        0.858291 
        6.17326         12.1487        0.852849 
        6.18898           12.09        0.847453 
        6.20467         11.9724        0.842113 
        6.22036         11.9139        0.836819 
         6.2361         11.8236        0.831557 
         6.2518         11.7452         0.82635 
        6.26748         11.6694        0.821198 
        6.28319         11.5945        0.816077 
        6.29893         11.5311        0.810995 
        6.31463         11.4299        0.805966 
        6.33033         11.3626        0.800981 
        6.34604         11.3034        0.796035 
        6.36177         11.2252        0.791126 
        6.37747         11.1613        0.786269 
