# k  (h/Mpc)    Pcb(k)  (Mpc/h)^3    Pcb_linear(k) (Mpc/h)^3   ShotnoiseSubtracted = true
      0.0200456         19293.8         19762.2 
      0.0350414           13724         14328.8 
      0.0492313         10627.8         10870.7 
      0.0637834          9345.9         9241.35 
      0.0800726         7124.57         7005.48 
       0.096163         4972.01         5126.64 
       0.111083         4188.74            4385 
       0.126058         3859.37          3867.3 
       0.142273         3220.21         3074.37 
       0.158546            2839         2492.75 
        0.17375         2338.15         2243.19 
       0.188953         2271.39         1996.28 
       0.204907          2105.9         1678.06 
       0.220756         1835.31         1452.66 
        0.23588         1650.04         1325.95 
         0.2514         1438.93         1192.62 
       0.267535         1431.17         1043.56 
       0.283568         1302.52         933.071 
       0.299022         1233.18         856.273 
       0.314451         1176.56         780.209 
       0.330372         1082.75         703.228 
       0.346141         1029.72         642.115 
       0.361624         990.944         593.298 
       0.377134         922.622         546.742 
       0.392932         889.587         502.143 
       0.408854         869.821         463.894 
       0.424564         809.612         431.314 
       0.440253         796.693         400.978 
       0.455999         764.389         372.865 
       0.471626         734.495          348.15 
        0.48727         707.517         325.992 
       0.502856           688.5         305.609 
       0.518488         681.549         286.725 
       0.534347          638.47         269.377 
       0.550082         620.899         253.681 
       0.565732         620.941         239.261 
       0.581496         585.783         225.812 
       0.597222         577.129         213.484 
       0.612804         564.704         202.214 
       0.628434          547.91          191.73 
       0.644267         535.042         181.868 
       0.660051         517.734         172.731 
       0.675724         514.687         164.283 
       0.691403         498.015         156.401 
       0.707174         482.325         148.999 
       0.722871         478.183         142.113 
        0.73838         470.259         135.742 
       0.754018         458.265         129.719 
       0.769845         448.852         124.001 
        0.78569         443.213         118.626 
       0.801365         431.581         113.628 
       0.817031         419.843         108.924 
       0.832809         417.332         104.459 
       0.848511         407.545         100.268 
       0.864097         397.323         96.3383 
       0.879701         392.453         92.6179 
       0.895507         388.463         89.0524 
       0.911279          376.44         85.6842 
        0.92691         373.032         82.5202 
       0.942635         364.501         79.5003 
       0.958396         356.179          76.627 
       0.974128         350.706         73.9027 
       0.989692         347.092         71.3394 
        1.00528         340.153         68.8955 
        1.02113         338.458         66.5292 
        1.03692         329.192         64.2843 
        1.05264         326.953         62.1546 
        1.06832         318.715          60.126 
        1.08405         314.609         58.1838 
        1.09979         309.697         56.3272 
        1.11537         304.337         54.5712 
        1.13105         298.281         52.8804 
        1.14679         294.703         51.2557 
        1.16256         289.118          49.697 
        1.17828         286.505          48.209 
        1.19395         280.538         46.7877 
         1.2097         278.811         45.4172 
        1.22537         272.352         44.1088 
          1.241         271.212         42.8566 
        1.25666         265.163         41.6504 
        1.27241         262.259         40.4855 
        1.28819         258.415         39.3638 
        1.30392          252.74         38.2883 
        1.31957         253.103         37.2582 
        1.33529         247.948         36.2627 
        1.35108         242.428            35.3 
        1.36674         240.864         34.3796 
         1.3824          239.02         33.4931 
        1.39811         236.252         32.6354 
        1.41389         232.355         31.8047 
        1.42964         229.622         31.0047 
        1.44531         226.411         30.2364 
        1.46101         223.661         29.4928 
        1.47667         219.643         28.7767 
        1.49229          217.88         28.0866 
        1.50793         213.683         27.4185 
        1.52367         211.856         26.7681 
        1.53953         208.935         26.1347 
        1.55526         204.376         25.5271 
        1.57092         203.541         24.9415 
        1.58662         200.894          24.373 
        1.60235          197.71         23.8214 
        1.61809         196.183         23.2868 
        1.63369          192.44         22.7735 
        1.64941         188.756         22.2721 
        1.66519         188.437         21.7842 
        1.68085         186.159         21.3146 
        1.69652         182.669         20.8588 
        1.71228         179.683         20.4138 
        1.72806         177.885         19.9817 
        1.74368         175.994         19.5665 
        1.75933         173.264         19.1624 
        1.77505         171.923         18.7679 
        1.79081         170.497          18.384 
         1.8065          168.06         18.0125 
        1.82218         165.398         17.6518 
        1.83797         164.389         17.2986 
        1.85367          161.93          16.957 
        1.86928         159.298         16.6269 
        1.88497         157.473         16.3038 
        1.90073         156.251         15.9882 
        1.91647         154.204         15.6813 
        1.93218         152.377         15.3832 
        1.94787         150.513         15.0933 
        1.96363         147.999         14.8099 
        1.97935         146.648         14.5344 
        1.99499         144.506         14.2675 
        2.01064         143.377          14.007 
         2.0264         141.182         13.7514 
        2.04216          139.54         13.5024 
        2.05781         138.422         13.2612 
        2.07353         137.067         13.0251 
        2.08928         134.248         12.7942 
        2.10499         132.809         12.5697 
        2.12065         131.265         12.3512 
        2.13633         130.644         12.1378 
        2.15211         127.765         11.9281 
        2.16785         126.193          11.724 
        2.18349         125.352          11.526 
        2.19916         123.886         11.3322 
        2.21489         122.472         11.1423 
        2.23063          120.56         10.9566 
         2.2463          119.24          10.776 
        2.26194          117.95            10.6 
        2.27765          116.92          10.427 
        2.29341          115.72         10.2575 
        2.30914         114.307         10.0922 
        2.32486          113.29         9.93056 
        2.34061         111.772         9.77228 
        2.35635         110.378         9.61761 
        2.37203         108.975         9.46686 
        2.38768          107.75         9.31968 
        2.40339         106.928         9.17513 
        2.41914         105.515         9.03333 
        2.43483         104.339         8.89505 
         2.4505         103.116         8.75993 
        2.46622         101.818         8.62718 
        2.48195          100.86         8.49719 
        2.49759         99.3142          8.3706 
        2.51328         98.8422         8.24628 
        2.52906         97.0505         8.12372 
        2.54479         96.3153         8.00413 
        2.56049         95.4045          7.8872 
        2.57618         94.2774         7.77273 
        2.59189         93.3226         7.66038 
        2.60758         92.4861         7.55044 
        2.62325         91.1872         7.44282 
        2.63898         90.0346         7.33693 
        2.65468         89.2599         7.23335 
        2.67044         88.1215         7.13134 
        2.68618         87.2339         7.03155 
        2.70184         86.7221         6.93408 
        2.71755         85.8022         6.83824 
        2.73329         84.6325         6.74407 
        2.74897         83.8765           6.652 
        2.76462         82.7929         6.56187 
        2.78034         82.1807         6.47305 
        2.79607          80.728         6.38579 
        2.81179         80.0916         6.30026 
        2.82749         79.2348          6.2164 
        2.84321         78.6537         6.13398 
        2.85893         77.7162          6.0531 
        2.87462         76.7003         5.97383 
        2.89033         75.8481         5.89592 
        2.90605          75.109         5.81934 
        2.92176         74.5823         5.74417 
        2.93747         73.9348         5.67038 
        2.95318         73.0112         5.59788 
        2.96891         72.4208         5.52662 
        2.98456         71.6718         5.45693 
        3.00023         70.7391         5.38835 
        3.01596         70.2127         5.32075 
        3.03164         69.2785         5.25451 
        3.04738         68.7159         5.18921 
         3.0631         67.9506         5.12505 
        3.07883         67.3622         5.06198 
        3.09456         66.6165               5 
        3.11026          65.753         4.93915 
        3.12596         65.2347         4.87933 
        3.14163         64.5152         4.82065 
        3.15734         64.0578         4.76281 
        3.17308         63.2549         4.70578 
        3.18879         62.8212         4.64985 
        3.20447         61.7106         4.59492 
         3.2202         61.6056         4.54071 
         3.2359         60.8188         4.48748 
        3.25157         60.2402         4.43524 
        3.26729         59.7512         4.38367 
        3.28304         59.0525         4.33284 
        3.29877         58.5133         4.28288 
        3.31446         57.8579         4.23382 
        3.33014         57.4735         4.18559 
        3.34585         56.9585         4.13803 
        3.36158         56.3394         4.09115 
        3.37727         55.9387         4.04515 
        3.39294         55.2561         3.99991 
        3.40867         54.8372         3.95519 
        3.42439         54.1284          3.9112 
        3.44008         53.7255         3.86796 
        3.45578         53.0259         3.82535 
        3.47153         52.5973         3.78329 
        3.48724         52.1461         3.74194 
        3.50292         51.7622         3.70132 
        3.51859         51.1826         3.66132 
        3.53431         50.7023         3.62179 
        3.55007         50.1303         3.58275 
        3.56577         49.8955         3.54445 
        3.58146         49.3506         3.50672 
        3.59719         48.7744         3.46947 
        3.61292          48.199         3.43277 
        3.62859         48.0346         3.39675 
        3.64429         47.6821         3.36117 
        3.66003         47.0339         3.32601 
        3.67578           46.54         3.29136 
        3.69146         46.2135         3.25734 
        3.70712          45.901         3.22386 
        3.72284          45.286         3.19074 
        3.73853         44.9138         3.15814 
        3.75422         44.4627         3.12599 
        3.76993         44.2222         3.09427 
        3.78564         43.9281           3.063 
        3.80137         43.4277         3.03211 
        3.81707         42.9377         3.00172 
        3.83279         42.7813         2.97172 
        3.84853         42.2834         2.94209 
        3.86424         41.7687         2.91292 
        3.87992         41.5472          2.8842 
        3.89561         41.1909         2.85586 
        3.91134         40.6443         2.82785 
        3.92704         40.4949         2.80025 
        3.94273         39.9387         2.77305 
        3.95845         39.7359         2.74616 
        3.97418         39.4306         2.71963 
        3.98988         38.9857         2.69349 
        4.00554         38.6485         2.66776 
        4.02125         38.2949          2.6423 
        4.03698         38.0221         2.61713 
        4.05268          37.701         2.59236 
        4.06839         37.3324         2.56788 
         4.0841          37.124         2.54373 
        4.09983         36.7174         2.51987 
        4.11555          36.413         2.49632 
        4.13124          36.099         2.47313 
        4.14693         35.6824         2.45023 
        4.16266         35.4482         2.42756 
        4.17839         35.2364          2.4052 
        4.19408         34.8304         2.38317 
        4.20977         34.5738         2.36141 
        4.22551         34.3591         2.33987 
        4.24123         34.0461         2.31862 
        4.25691          33.694          2.2977 
        4.27259         33.4564         2.27703 
        4.28831         33.0961         2.25658 
        4.30404         32.8997         2.23636 
        4.31974         32.5819         2.21643 
        4.33543         32.2994         2.19676 
        4.35116         32.1244         2.17728 
        4.36688         31.8123         2.15805 
        4.38255         31.4948         2.13912 
        4.39825         31.3038         2.12038 
        4.41398          30.999         2.10183 
         4.4297         30.7628         2.08353 
        4.44541           30.45         2.06544 
        4.46111          30.274         2.04759 
        4.47683         30.0317         2.02993 
        4.49251         29.7618         2.01253 
        4.50819         29.5171         1.99533 
         4.5239         29.2989         1.97831 
        4.53962         29.0547         1.96147 
        4.55535          28.804         1.94481 
        4.57106         28.5401         1.92838 
        4.58678         28.3937         1.91213 
         4.6025         28.1365         1.89607 
        4.61821         27.9673          1.8802 
        4.63391         27.6634         1.86453 
         4.6496         27.4581         1.84905 
        4.66532          27.223         1.83372 
        4.68103          27.008         1.81857 
        4.69673         26.8352         1.80361 
        4.71241         26.6461         1.78884 
        4.72811         26.4047          1.7742 
        4.74384         26.1936         1.75971 
        4.75955         26.0237         1.74541 
        4.77525         25.7395         1.73128 
        4.79096         25.6248         1.71728 
        4.80669          25.412         1.70344 
         4.8224         25.1709         1.68976 
        4.83809         24.9953         1.67625 
        4.85379         24.7377         1.66288 
         4.8695         24.6164         1.64965 
        4.88521         24.4095         1.63657 
        4.90093         24.2059         1.62363 
        4.91663         24.0066         1.61084 
        4.93234         23.8571         1.59817 
        4.94807         23.6477         1.58564 
        4.96377         23.5176         1.57326 
        4.97943         23.3489         1.56104 
        4.99514         23.1075         1.54893 
        5.01086         22.9262         1.53693 
        5.02654         22.7807         1.52509 
        5.04227         22.6385         1.51334 
          5.058         22.3935         1.50171 
        5.07371         22.3005         1.49023 
        5.08942         22.1315         1.47887 
        5.10513         21.9555         1.46762 
        5.12084         21.7453         1.45649 
        5.13656         21.5643         1.44547 
        5.15225         21.4542         1.43459 
        5.16796         21.3207         1.42381 
        5.18369         21.1268         1.41312 
         5.1994          20.985         1.40257 
        5.21509         20.7669         1.39213 
        5.23079         20.6328         1.38179 
        5.24649         20.5091         1.37156 
        5.26217         20.3936         1.36145 
        5.27788         20.1685         1.35142 
        5.29359         20.0439         1.34149 
        5.30933         19.8807         1.33165 
        5.32504         19.7657         1.32192 
        5.34073         19.6419         1.31231 
        5.35646         19.5043         1.30277 
        5.37218         19.2976         1.29332 
        5.38789         19.1614         1.28398 
        5.40357         19.0687         1.27475 
        5.41929         18.9025         1.26559 
        5.43502         18.7659         1.25652 
         5.4507         18.6749         1.24755 
        5.46639         18.5243         1.23868 
        5.48212         18.3768         1.22987 
        5.49786         18.2375         1.22114 
        5.51353         18.1137         1.21254 
        5.52921         18.0046         1.20401 
        5.54495         17.8985         1.19553 
        5.56066         17.7377         1.18715 
        5.57637         17.6138         1.17886 
        5.59207         17.4868         1.17065 
        5.60778         17.3907         1.16251 
        5.62346         17.2912         1.15446 
        5.63916         17.1314         1.14649 
        5.65487         16.9899         1.13858 
         5.6706         16.8808         1.13074 
        5.68633         16.7677         1.12298 
        5.70203          16.664          1.1153 
        5.71773         16.5178         1.10769 
        5.73344         16.4616         1.10016 
        5.74916         16.3131         1.09268 
        5.76486         16.1983         1.08529 
        5.78054         16.1103         1.07798 
        5.79626         15.9662         1.07071 
          5.812         15.8654         1.06351 
         5.8277         15.7557         1.05639 
        5.84339         15.6705         1.04934 
        5.85911         15.5409         1.04233 
        5.87484         15.4576          1.0354 
        5.89053         15.3364         1.02854 
        5.90623         15.2139         1.02174 
        5.92195          15.108         1.01499 
        5.93767          15.004         1.00831 
        5.95336         14.9071          1.0017 
        5.96905          14.833        0.995151 
        5.98476         14.7226        0.988651 
        6.00048         14.5781        0.982208 
        6.01617         14.5479        0.975831 
        6.03185         14.4043        0.969519 
        6.04756         14.3306        0.963248 
        6.06331         14.2156         0.95702 
        6.07903         14.1075         0.95086 
        6.09473         14.0352         0.94476 
        6.11044         13.9411        0.938709 
        6.12616         13.8672        0.932713 
        6.14186         13.7692        0.926775 
        6.15755         13.6728        0.920889 
        6.17326         13.5586         0.91505 
        6.18898         13.5102         0.90926 
        6.20467         13.4091         0.90353 
        6.22036         13.3044        0.897851 
         6.2361         13.2391        0.892205 
         6.2518          13.172        0.886618 
        6.26748         13.0607        0.881091 
        6.28319         12.9754        0.875596 
        6.29893         12.8878        0.870144 
        6.31463         12.7904        0.864747 
        6.33033         12.7257        0.859399 
        6.34604         12.6623        0.854092 
        6.36177         12.5436        0.848826 
        6.37747         12.4897        0.843613 
