# k  (h/Mpc)    Pcb(k)  (Mpc/h)^3    Pcb_linear(k) (Mpc/h)^3   ShotnoiseSubtracted = true
      0.0200456          6667.5         6765.07 
      0.0350414         5018.75         4905.09 
      0.0492313         3701.72          3721.3 
      0.0637834         3066.61         3163.53 
      0.0800726          2330.6         2398.14 
       0.096163         1807.16         1754.97 
       0.111083         1552.77         1501.09 
       0.126058         1303.56         1323.87 
       0.142273          1061.6         1052.43 
       0.158546         883.929         853.329 
        0.17375         801.396         767.897 
       0.188953         724.438         683.373 
       0.204907          598.71         574.441 
       0.220756         540.607         497.279 
        0.23588         489.755         453.905 
         0.2514         438.616         408.261 
       0.267535         413.461         357.235 
       0.283568         362.565         319.413 
       0.299022         344.796         293.123 
       0.314451         337.298         267.084 
       0.330372         291.689         240.732 
       0.346141         270.754         219.811 
       0.361624         256.428           203.1 
       0.377134         235.778         187.163 
       0.392932         229.668         171.895 
       0.408854         216.667         158.802 
       0.424564         207.549         147.649 
       0.440253         188.063         137.264 
       0.455999         176.976         127.641 
       0.471626         172.626          119.18 
        0.48727         166.374         111.595 
       0.502856         152.402         104.617 
       0.518488         150.181          98.153 
       0.534347         140.836         92.2144 
       0.550082         137.503         86.8409 
       0.565732         134.599         81.9047 
       0.581496         124.421         77.3007 
       0.597222         121.469         73.0805 
       0.612804         117.694         69.2227 
       0.628434         114.486         65.6337 
       0.644267         108.757         62.2579 
       0.660051         105.294           59.13 
       0.675724         103.467         56.2379 
       0.691403         101.129         53.5397 
       0.707174         97.7744         51.0059 
       0.722871         95.7316         48.6486 
        0.73838         92.9714         46.4676 
       0.754018         87.6557         44.4058 
       0.769845         87.0613         42.4484 
        0.78569         84.4326         40.6087 
       0.801365         82.0298         38.8974 
       0.817031         79.2908         37.2871 
       0.832809         77.9365         35.7589 
       0.848511         76.0674         34.3241 
       0.864097         74.7867         32.9789 
       0.879701         73.3156         31.7053 
       0.895507          70.635         30.4848 
       0.911279         69.6645         29.3317 
        0.92691         67.5912         28.2486 
       0.942635         66.2767         27.2149 
       0.958396         66.0122         26.2313 
       0.974128         64.4299         25.2987 
       0.989692         62.8082         24.4212 
        1.00528         61.6638         23.5846 
        1.02113         60.4121         22.7745 
        1.03692         60.0419         22.0061 
        1.05264         58.7534          21.277 
        1.06832         57.2434         20.5826 
        1.08405          56.279         19.9177 
        1.09979         56.0428         19.2822 
        1.11537         54.4632          18.681 
        1.13105         53.2022         18.1022 
        1.14679          52.594         17.5461 
        1.16256         51.8718         17.0125 
        1.17828         51.2118         16.5031 
        1.19395         49.9399         16.0165 
         1.2097         49.8971         15.5474 
        1.22537          48.768         15.0995 
          1.241         48.0357         14.6708 
        1.25666         47.1327         14.2579 
        1.27241         46.9047         13.8592 
        1.28819         45.6721         13.4752 
        1.30392         45.3747          13.107 
        1.31957         44.8851         12.7544 
        1.33529         44.0682         12.4136 
        1.35108         43.2993          12.084 
        1.36674         42.8685         11.7689 
         1.3824         42.1675         11.4655 
        1.39811         41.4091         11.1719 
        1.41389         40.9437         10.8875 
        1.42964         40.6128         10.6137 
        1.44531         39.7313         10.3506 
        1.46101         39.5358         10.0961 
        1.47667         39.0251         9.85096 
        1.49229         38.3927          9.6147 
        1.50793         37.9843         9.38602 
        1.52367         37.4003         9.16337 
        1.53953         37.1718         8.94654 
        1.55526         36.5989         8.73853 
        1.57092         36.1651         8.53806 
        1.58662         35.6196         8.34348 
        1.60235         35.2179         8.15464 
        1.61809          34.842         7.97162 
        1.63369         34.4645          7.7959 
        1.64941         34.0164         7.62428 
        1.66519         33.4714         7.45726 
        1.68085          33.057         7.29648 
        1.69652         32.7511         7.14045 
        1.71228         32.5293         6.98814 
        1.72806         31.9738          6.8402 
        1.74368         31.6093         6.69807 
        1.75933         31.3572         6.55974 
        1.77505         31.1288         6.42471 
        1.79081         30.7136         6.29328 
         1.8065         30.2415         6.16612 
        1.82218         29.9186         6.04263 
        1.83797         29.7522         5.92171 
        1.85367         29.3494          5.8048 
        1.86928         29.2868         5.69177 
        1.88497         28.7062         5.58117 
        1.90073         28.4673         5.47313 
        1.91647         28.2124         5.36808 
        1.93218         28.2005         5.26603 
        1.94787         27.7842         5.16681 
        1.96363          27.417         5.06978 
        1.97935         27.0498         4.97546 
        1.99499         26.8959          4.8841 
        2.01064         26.5275         4.79493 
         2.0264         26.2895         4.70744 
        2.04216         26.1554          4.6222 
        2.05781          25.855         4.53963 
        2.07353          25.589          4.4588 
        2.08928         25.1738         4.37978 
        2.10499          25.025          4.3029 
        2.12065         24.7552         4.22812 
        2.13633         24.6005         4.15507 
        2.15211         24.1939         4.08328 
        2.16785          24.151         4.01341 
        2.18349          23.829         3.94563 
        2.19916         23.6252         3.87929 
        2.21489         23.3617         3.81426 
        2.23063         23.2618          3.7507 
         2.2463         22.9586         3.68888 
        2.26194         22.7529         3.62863 
        2.27765         22.4413         3.56942 
        2.29341         22.2739         3.51139 
        2.30914         22.0378         3.45479 
        2.32486          21.922         3.39947 
        2.34061         21.7337         3.34528 
        2.35635         21.3946         3.29234 
        2.37203         21.2881         3.24073 
        2.38768         21.1007         3.19035 
        2.40339         20.9779         3.14087 
        2.41914          20.717         3.09232 
        2.43483         20.5316         3.04499 
         2.4505         20.2577         2.99873 
        2.46622         20.1773         2.95329 
        2.48195         19.9398         2.90879 
        2.49759         19.6482         2.86546 
        2.51328          19.606          2.8229 
        2.52906         19.4513         2.78094 
        2.54479         19.2241         2.74001 
        2.56049         19.0721         2.69998 
        2.57618          19.014         2.66079 
        2.59189         18.7016         2.62233 
        2.60758          18.511          2.5847 
        2.62325         18.3886         2.54785 
        2.63898         18.2587         2.51161 
        2.65468           18.05         2.47615 
        2.67044         17.8717         2.44123 
        2.68618         17.7939         2.40707 
        2.70184         17.5765          2.3737 
        2.71755         17.4146         2.34089 
        2.73329         17.2682         2.30866 
        2.74897         17.1416         2.27714 
        2.76462         16.9981         2.24628 
        2.78034         16.7978         2.21588 
        2.79607          16.686         2.18601 
        2.81179         16.5356         2.15673 
        2.82749         16.4007         2.12802 
        2.84321         16.2727         2.09981 
        2.85893         16.0413         2.07212 
        2.87462         16.0064         2.04499 
        2.89033         15.8283         2.01831 
        2.90605         15.7083          1.9921 
        2.92176         15.5553         1.96637 
        2.93747         15.4228         1.94111 
        2.95318         15.3126         1.91629 
        2.96891         15.1725         1.89189 
        2.98456         15.0482         1.86804 
        3.00023         14.9059         1.84456 
        3.01596         14.8199         1.82142 
        3.03164          14.676         1.79874 
        3.04738         14.5614         1.77639 
         3.0631         14.4105         1.75443 
        3.07883         14.3302         1.73284 
        3.09456         14.2035         1.71162 
        3.11026         14.1051         1.69079 
        3.12596         13.9642         1.67031 
        3.14163         13.8433         1.65022 
        3.15734         13.7058         1.63042 
        3.17308         13.6473          1.6109 
        3.18879         13.4784         1.59176 
        3.20447         13.4217         1.57295 
         3.2202          13.278         1.55439 
         3.2359         13.1721         1.53617 
        3.25157         13.1169         1.51829 
        3.26729         12.9441         1.50064 
        3.28304         12.8441         1.48323 
        3.29877         12.7909         1.46613 
        3.31446         12.6631         1.44934 
        3.33014         12.5731         1.43283 
        3.34585         12.4301         1.41655 
        3.36158         12.3357          1.4005 
        3.37727         12.2837         1.38475 
        3.39294         12.1689         1.36926 
        3.40867         12.0409         1.35396 
        3.42439         11.9362          1.3389 
        3.44008         11.8863         1.32409 
        3.45578         11.7361         1.30951 
        3.47153         11.6814         1.29511 
        3.48724         11.6083         1.28096 
        3.50292         11.4993         1.26705 
        3.51859         11.4025         1.25336 
        3.53431         11.2752         1.23982 
        3.55007         11.2219         1.22646 
        3.56577         11.1003         1.21335 
        3.58146         11.0021         1.20044 
        3.59719         10.9217         1.18768 
        3.61292         10.8859         1.17512 
        3.62859         10.7885         1.16279 
        3.64429         10.6795         1.15061 
        3.66003         10.6125         1.13857 
        3.67578         10.5047         1.12671 
        3.69146         10.4636         1.11506 
        3.70712         10.3642         1.10361 
        3.72284         10.2729         1.09227 
        3.73853         10.1989         1.08111 
        3.75422         10.1259          1.0701 
        3.76993          10.014         1.05924 
        3.78564         9.96554         1.04854 
        3.80137         9.89332         1.03796 
        3.81707         9.80122         1.02756 
        3.83279         9.69637         1.01729 
        3.84853         9.66306         1.00715 
        3.86424         9.59554        0.997164 
        3.87992         9.53327         0.98733 
        3.89561         9.43743         0.97763 
        3.91134         9.35999        0.968041 
        3.92704         9.28284        0.958593 
        3.94273         9.21764        0.949282 
        3.95845           9.158        0.940078 
        3.97418         9.07253        0.930995 
        3.98988         9.02512        0.922045 
        4.00554         8.95065        0.913239 
        4.02125         8.89939        0.904522 
        4.03698         8.81713        0.895908 
        4.05268         8.73679        0.887425 
        4.06839         8.64959        0.879047 
         4.0841          8.6026        0.870781 
        4.09983         8.54173         0.86261 
        4.11555         8.43957        0.854548 
        4.13124         8.39226        0.846612 
        4.14693         8.32412        0.838771 
        4.16266         8.26529        0.831012 
        4.17839         8.21183        0.823357 
        4.19408         8.16011        0.815815 
        4.20977         8.05845        0.808366 
        4.22551         8.02394        0.800993 
        4.24123         7.98892         0.79372 
        4.25691         7.91616        0.786558 
        4.27259         7.82686        0.779482 
        4.28831         7.79184         0.77248 
        4.30404         7.73808        0.765558 
        4.31974          7.6705        0.758737 
        4.33543         7.61492        0.752003 
        4.35116         7.54097        0.745335 
        4.36688         7.49988        0.738752 
        4.38255         7.43892        0.732273 
        4.39825         7.37298        0.725858 
        4.41398         7.32363        0.719508 
         4.4297         7.27472        0.713241 
        4.44541         7.21945         0.70705 
        4.46111         7.18834        0.700939 
        4.47683         7.11264        0.694895 
        4.49251         7.07818        0.688936 
        4.50819         7.02164        0.683048 
         4.5239         6.94756        0.677222 
        4.53962         6.91092        0.671457 
        4.55535         6.85142        0.665756 
        4.57106         6.80153        0.660131 
        4.58678         6.76453        0.654569 
         4.6025         6.70182        0.649071 
        4.61821         6.67048        0.643638 
        4.63391         6.60311        0.638274 
         4.6496         6.56507        0.632974 
        4.66532         6.51483        0.627726 
        4.68103         6.47295        0.622541 
        4.69673          6.4245         0.61742 
        4.71241         6.38138        0.612361 
        4.72811         6.33373        0.607352 
        4.74384         6.30957        0.602392 
        4.75955         6.24466        0.597496 
        4.77525         6.19988        0.592658 
        4.79096         6.16282        0.587867 
        4.80669         6.10528        0.583128 
         4.8224         6.07134        0.578446 
        4.83809          6.0245        0.573821 
        4.85379         5.97498        0.569245 
         4.8695         5.94256        0.564715 
        4.88521         5.91464        0.560236 
        4.90093         5.85801        0.555806 
        4.91663         5.81214        0.551428 
        4.93234         5.78755        0.547093 
        4.94807         5.73632        0.542802 
        4.96377         5.69945        0.538565 
        4.97943         5.65823        0.534383 
        4.99514          5.6083        0.530235 
        5.01086         5.58942        0.526128 
        5.02654         5.55048        0.522075 
        5.04227         5.49958        0.518053 
          5.058         5.45637        0.514072 
        5.07371         5.42578        0.510142 
        5.08942         5.39792        0.506252 
        5.10513          5.3586        0.502402 
        5.12084         5.31972        0.498591 
        5.13656         5.26933         0.49482 
        5.15225         5.24116        0.491095 
        5.16796         5.21548        0.487403 
        5.18369         5.16569        0.483745 
         5.1994         5.13227        0.480133 
        5.21509         5.09887         0.47656 
        5.23079         5.07064         0.47302 
        5.24649         5.03557        0.469519 
        5.26217         4.99895        0.466056 
        5.27788         4.97464        0.462623 
        5.29359         4.92922        0.459225 
        5.30933         4.89908        0.455856 
        5.32504         4.87205        0.452526 
        5.34073         4.84077        0.449234 
        5.35646         4.80461        0.445968 
        5.37218         4.75601        0.442735 
        5.38789         4.73846        0.439538 
        5.40357         4.70822        0.436378 
        5.41929         4.67488        0.433241 
        5.43502         4.63745        0.430135 
         5.4507         4.61868        0.427068 
        5.46639          4.5854         0.42403 
        5.48212         4.55997        0.421014 
        5.49786         4.52516        0.418025 
        5.51353         4.49794         0.41508 
        5.52921         4.47198         0.41216 
        5.54495         4.43666         0.40926 
        5.56066         4.41153        0.406391 
        5.57637         4.38337        0.403551 
        5.59207         4.35141         0.40074 
        5.60778         4.33087        0.397955 
        5.62346         4.29642        0.395201 
        5.63916         4.26863         0.39247 
        5.65487         4.24626        0.389764 
         5.6706         4.22924        0.387081 
        5.68633         4.20019        0.384422 
        5.70203         4.16268        0.381793 
        5.71773         4.13884         0.37919 
        5.73344         4.11481         0.37661 
        5.74916         4.08891        0.374052 
        5.76486         4.05748        0.371521 
        5.78054         4.04036        0.369017 
        5.79626         4.00856         0.36653 
          5.812         3.98464        0.364063 
         5.8277         3.95958        0.361627 
        5.84339         3.94151        0.359213 
        5.85911         3.90948        0.356816 
        5.87484         3.89108        0.354442 
        5.89053         3.86586        0.352094 
        5.90623         3.84248        0.349767 
        5.92195         3.81849        0.347457 
        5.93767         3.79258        0.345169 
        5.95336         3.77612        0.342906 
        5.96905          3.7392        0.340664 
        5.98476         3.73178        0.338439 
        6.00048          3.6945        0.336233 
        6.01617         3.67743         0.33405 
        6.03185          3.6614         0.33189 
        6.04756         3.62547        0.329743 
        6.06331         3.61259        0.327611 
        6.07903          3.5864        0.325502 
        6.09473         3.57093        0.323414 
        6.11044         3.54641        0.321343 
        6.12616         3.52485         0.31929 
        6.14186         3.50716        0.317257 
        6.15755         3.47945        0.315242 
        6.17326         3.46276        0.313244 
        6.18898         3.44098        0.311261 
        6.20467         3.41928          0.3093 
        6.22036         3.39972        0.307356 
         6.2361         3.38318        0.305423 
         6.2518         3.36157         0.30351 
        6.26748         3.34215        0.301618 
        6.28319         3.31684        0.299737 
        6.29893         3.30748        0.297871 
        6.31463         3.28445        0.296024 
        6.33033         3.26895        0.294193 
        6.34604         3.24563        0.292376 
        6.36177          3.2318        0.290573 
        6.37747         3.20449        0.288789 
