# k  (h/Mpc)    Pcb(k)  (Mpc/h)^3    Pcb_linear(k) (Mpc/h)^3   ShotnoiseSubtracted = true
      0.0200456         8247.17         8370.99 
      0.0350414         6219.23         6069.48 
      0.0492313         4570.64         4604.67 
      0.0637834         3780.26         3914.51 
      0.0800726         2871.74         2967.42 
       0.096163         2239.87         2171.57 
       0.111083         1925.15         1857.42 
       0.126058         1610.14         1638.14 
       0.142273          1317.7         1302.26 
       0.158546         1098.85          1055.9 
        0.17375         996.847         950.184 
       0.188953          906.08         845.595 
       0.204907         751.742         710.804 
       0.220756         679.396         615.325 
        0.23588         615.385         561.655 
         0.2514          550.76         505.176 
       0.267535         523.813         442.037 
       0.283568         458.938         395.236 
       0.299022         438.129         362.705 
       0.314451         433.901         330.486 
       0.330372         373.663         297.878 
       0.346141         347.356         271.991 
       0.361624         330.494         251.313 
       0.377134         305.532         231.593 
       0.392932          297.68         212.701 
       0.408854         281.978         196.499 
       0.424564         271.003         182.699 
       0.440253         245.006         169.849 
       0.455999         232.643          157.94 
       0.471626         229.384         147.472 
        0.48727         219.716         138.086 
       0.502856          201.02         129.452 
       0.518488         200.206         121.453 
       0.534347         186.803         114.105 
       0.550082         182.778         107.456 
       0.565732         180.083         101.348 
       0.581496         167.238         95.6507 
       0.597222         163.641         90.4287 
       0.612804         158.652          85.655 
       0.628434         153.854          81.214 
       0.644267         146.538         77.0369 
       0.660051         142.463         73.1665 
       0.675724         140.968         69.5879 
       0.691403         137.306         66.2491 
       0.707174         132.738         63.1139 
       0.722871           130.5          60.197 
        0.73838         128.106         57.4983 
       0.754018         120.265         54.9471 
       0.769845         119.859         52.5249 
        0.78569         116.617         50.2485 
       0.801365         113.126          48.131 
       0.817031         109.703         46.1385 
       0.832809         107.813         44.2474 
       0.848511         105.361         42.4721 
       0.864097          103.62         40.8075 
       0.879701         101.922         39.2317 
       0.895507         98.2681         37.7214 
       0.911279          96.801         36.2946 
        0.92691         94.1327         34.9544 
       0.942635         92.2384         33.6752 
       0.958396         91.7042         32.4581 
       0.974128         89.6172         31.3042 
       0.989692         87.7282         30.2184 
        1.00528         86.1271         29.1832 
        1.02113         84.1258         28.1809 
        1.03692          83.962         27.2299 
        1.05264         82.5763         26.3278 
        1.06832         79.8269         25.4686 
        1.08405         79.1916         24.6458 
        1.09979         78.5367         23.8594 
        1.11537         76.4273         23.1156 
        1.13105         75.0515         22.3994 
        1.14679         74.0285         21.7112 
        1.16256         72.7086         21.0509 
        1.17828         71.9972         20.4207 
        1.19395         70.0809         19.8186 
         1.2097         70.3016         19.2381 
        1.22537         68.6144         18.6839 
          1.241          68.114         18.1535 
        1.25666         66.0798         17.6425 
        1.27241         66.0038         17.1491 
        1.28819         65.1108         16.6739 
        1.30392         63.9057         16.2184 
        1.31957         63.5753         15.7821 
        1.33529         62.5311         15.3604 
        1.35108         61.6548         14.9526 
        1.36674         60.8481         14.5627 
         1.3824         59.9516         14.1872 
        1.39811         58.9395         13.8239 
        1.41389         58.0927          13.472 
        1.42964         57.6742         13.1332 
        1.44531          56.708         12.8077 
        1.46101         56.2586         12.4927 
        1.47667         55.4298         12.1894 
        1.49229         54.7252         11.8971 
        1.50793         54.1343         11.6141 
        1.52367         53.5424         11.3386 
        1.53953         52.8663         11.0703 
        1.55526         52.0976         10.8129 
        1.57092         51.6917         10.5649 
        1.58662         50.9503         10.3241 
        1.60235         50.3371         10.0904 
        1.61809         49.6228         9.86396 
        1.63369         48.9926         9.64652 
        1.64941         48.5446         9.43416 
        1.66519         47.7029         9.22749 
        1.68085         47.3619         9.02855 
        1.69652         46.4805         8.83548 
        1.71228         46.3815         8.64701 
        1.72806         45.5931         8.46395 
        1.74368         45.0488         8.28809 
        1.75933         44.7462         8.11692 
        1.77505         44.3928         7.94983 
        1.79081         43.7982          7.7872 
         1.8065         43.0578         7.62986 
        1.82218         42.3433         7.47705 
        1.83797         42.1175         7.32743 
        1.85367         41.6532         7.18276 
        1.86928         41.5734         7.04291 
        1.88497         40.6479         6.90605 
        1.90073         40.2984         6.77237 
        1.91647         40.1418         6.64237 
        1.93218         39.9683          6.5161 
        1.94787         39.3276         6.39333 
        1.96363         38.5791         6.27326 
        1.97935         38.4072         6.15656 
        1.99499         37.9855         6.04351 
        2.01064         37.5076         5.93317 
         2.0264         37.1868         5.82491 
        2.04216         36.8743         5.71943 
        2.05781         36.4047         5.61726 
        2.07353         35.9701         5.51724 
        2.08928         35.8016         5.41946 
        2.10499         35.4365         5.32434 
        2.12065         34.9976          5.2318 
        2.13633         34.7587         5.14141 
        2.15211         34.1348         5.05259 
        2.16785         33.7999         4.96613 
        2.18349         33.4883         4.88226 
        2.19916         33.1781         4.80017 
        2.21489         32.8795         4.71971 
        2.23063         32.6907         4.64105 
         2.2463         32.3467         4.56456 
        2.26194         31.8893            4.49 
        2.27765         31.6013         4.41674 
        2.29341         31.2822         4.34494 
        2.30914         30.9416          4.2749 
        2.32486         30.6314         4.20645 
        2.34061         30.4033          4.1394 
        2.35635         30.0798         4.07389 
        2.37203          29.828         4.01003 
        2.38768          29.602         3.94769 
        2.40339         29.3666         3.88646 
        2.41914         29.0169         3.82639 
        2.43483         28.8936         3.76782 
         2.4505         28.3977         3.71059 
        2.46622         28.1023         3.65435 
        2.48195         27.8784         3.59929 
        2.49759         27.4659         3.54567 
        2.51328         27.3623         3.49301 
        2.52906         27.1509         3.44109 
        2.54479         26.8155         3.39044 
        2.56049         26.7599         3.34091 
        2.57618          26.431         3.29242 
        2.59189         26.0419         3.24483 
        2.60758         25.9225         3.19826 
        2.62325         25.5587         3.15267 
        2.63898         25.4298         3.10782 
        2.65468         25.1674         3.06395 
        2.67044         24.8878         3.02074 
        2.68618         24.5928         2.97847 
        2.70184         24.3767         2.93718 
        2.71755         24.1959         2.89658 
        2.73329         23.9103         2.85669 
        2.74897         23.7776         2.81769 
        2.76462         23.6087         2.77952 
        2.78034         23.2429         2.74189 
        2.79607         23.0358         2.70493 
        2.81179         22.8536          2.6687 
        2.82749         22.6611         2.63318 
        2.84321         22.5036         2.59827 
        2.85893         22.2149         2.56401 
        2.87462         22.0614         2.53043 
        2.89033         21.8884         2.49743 
        2.90605         21.5744         2.46499 
        2.92176         21.3324         2.43315 
        2.93747         21.2254         2.40189 
        2.95318         21.1003         2.37118 
        2.96891         20.7994           2.341 
        2.98456         20.7418         2.31148 
        3.00023         20.4042         2.28243 
        3.01596         20.2068         2.25379 
        3.03164         20.0633         2.22574 
        3.04738         19.9036         2.19808 
         3.0631         19.7281          2.1709 
        3.07883         19.5386         2.14419 
        3.09456         19.3767         2.11793 
        3.11026         19.2121         2.09216 
        3.12596         18.9902         2.06682 
        3.14163         18.8632         2.04196 
        3.15734         18.6915         2.01746 
        3.17308         18.5789          1.9933 
        3.18879         18.2847         1.96961 
        3.20447         18.2119         1.94634 
         3.2202          18.007         1.92338 
         3.2359         17.8823         1.90083 
        3.25157         17.7502         1.87871 
        3.26729         17.5454         1.85686 
        3.28304         17.4576         1.83533 
        3.29877         17.3583         1.81417 
        3.31446         17.1383         1.79339 
        3.33014         16.9681         1.77296 
        3.34585         16.8819         1.75281 
        3.36158          16.693         1.73296 
        3.37727         16.5213         1.71347 
        3.39294         16.3981          1.6943 
        3.40867         16.2668         1.67537 
        3.42439         16.1269         1.65673 
        3.44008         15.9803         1.63841 
        3.45578         15.8174         1.62036 
        3.47153         15.7143         1.60255 
        3.48724         15.5937         1.58504 
        3.50292         15.4852         1.56783 
        3.51859         15.3282         1.55088 
        3.53431         15.1648         1.53414 
        3.55007         15.0514          1.5176 
        3.56577         14.9572         1.50138 
        3.58146         14.8047          1.4854 
        3.59719         14.6789         1.46962 
        3.61292         14.5458         1.45407 
        3.62859         14.4176         1.43881 
        3.64429         14.3028         1.42375 
        3.66003         14.1935         1.40885 
        3.67578         14.0803         1.39417 
        3.69146         13.9936         1.37976 
        3.70712         13.8224         1.36558 
        3.72284         13.7053         1.35155 
        3.73853          13.618         1.33775 
        3.75422         13.4706         1.32413 
        3.76993         13.3623         1.31069 
        3.78564         13.2824         1.29744 
        3.80137         13.1554         1.28436 
        3.81707         13.0363         1.27149 
        3.83279          12.968         1.25878 
        3.84853         12.8072         1.24623 
        3.86424         12.7334         1.23387 
        3.87992         12.6232         1.22171 
        3.89561         12.5346          1.2097 
        3.91134         12.4301         1.19784 
        3.92704         12.3407         1.18615 
        3.94273         12.2367         1.17463 
        3.95845         12.1186         1.16324 
        3.97418          12.008           1.152 
        3.98988         11.9505         1.14092 
        4.00554         11.8371         1.13003 
        4.02125         11.7329         1.11924 
        4.03698         11.6504         1.10858 
        4.05268         11.5654         1.09809 
        4.06839         11.4319         1.08772 
         4.0841         11.3659         1.07749 
        4.09983         11.2787         1.06738 
        4.11555         11.1756          1.0574 
        4.13124         11.0794         1.04758 
        4.14693         10.9742         1.03788 
        4.16266         10.9198         1.02828 
        4.17839         10.8089         1.01881 
        4.19408         10.7392         1.00948 
        4.20977         10.6194         1.00026 
        4.22551         10.5654        0.991136 
        4.24123         10.5053        0.982136 
        4.25691         10.3828        0.973274 
        4.27259         10.3095        0.964519 
        4.28831          10.216        0.955855 
        4.30404         10.1828        0.947289 
        4.31974         10.0638        0.938849 
        4.33543         9.99538        0.930516 
        4.35116         9.90411        0.922266 
        4.36688         9.83295        0.914119 
        4.38255         9.76504        0.906102 
        4.39825         9.65853        0.898165 
        4.41398         9.59138        0.890307 
         4.4297         9.52653        0.882553 
        4.44541          9.4583        0.874893 
        4.46111         9.36729         0.86733 
        4.47683         9.32199        0.859852 
        4.49251         9.22696        0.852478 
        4.50819         9.17531        0.845193 
         4.5239         9.10315        0.837984 
        4.53962          9.0029         0.83085 
        4.55535         8.97057        0.823796 
        4.57106         8.87707        0.816835 
        4.58678         8.83593        0.809954 
         4.6025         8.74331         0.80315 
        4.61821         8.67707        0.796427 
        4.63391         8.62295         0.78979 
         4.6496         8.54853        0.783232 
        4.66532         8.49279        0.776738 
        4.68103         8.40875        0.770322 
        4.69673         8.36315        0.763985 
        4.71241         8.28849        0.757726 
        4.72811         8.21447        0.751527 
        4.74384         8.19772         0.74539 
        4.75955          8.1242        0.739332 
        4.77525         8.07072        0.733345 
        4.79096         8.00821        0.727417 
        4.80669         7.92866        0.721553 
         4.8224         7.87888         0.71576 
        4.83809          7.8304        0.710037 
        4.85379         7.76966        0.704374 
         4.8695         7.73767        0.698769 
        4.88521         7.64973        0.693227 
        4.90093         7.59798        0.687745 
        4.91663         7.55041        0.682328 
        4.93234         7.49241        0.676964 
        4.94807         7.42905        0.671654 
        4.96377         7.38704        0.666412 
        4.97943         7.30525        0.661237 
        4.99514         7.26771        0.656104 
        5.01086         7.22716        0.651022 
        5.02654         7.16252        0.646007 
        5.04227         7.11599        0.641031 
          5.058         7.04646        0.636105 
        5.07371          7.0487        0.631241 
        5.08942         6.97384        0.626427 
        5.10513         6.92728        0.621664 
        5.12084         6.85928        0.616948 
        5.13656         6.80926        0.612283 
        5.15225         6.75394        0.607673 
        5.16796         6.72415        0.603104 
        5.18369         6.67763        0.598579 
         5.1994         6.62932        0.594108 
        5.21509         6.57309        0.589688 
        5.23079         6.54206        0.585307 
        5.24649         6.48155        0.580975 
        5.26217         6.45634         0.57669 
        5.27788           6.393        0.572442 
        5.29359         6.36905        0.568237 
        5.30933         6.30916        0.564068 
        5.32504         6.26451        0.559949 
        5.34073         6.23044        0.555875 
        5.35646          6.1819        0.551834 
        5.37218         6.13888        0.547833 
        5.38789         6.08979        0.543878 
        5.40357         6.04221        0.539967 
        5.41929         6.00267        0.536086 
        5.43502         5.96812        0.532243 
         5.4507         5.93405        0.528447 
        5.46639          5.8819        0.524688 
        5.48212          5.8627        0.520956 
        5.49786         5.81688        0.517257 
        5.51353         5.77893        0.513613 
        5.52921         5.73129            0.51 
        5.54495         5.69481        0.506412 
        5.56066         5.65105        0.502862 
        5.57637         5.61958        0.499347 
        5.59207         5.57523        0.495869 
        5.60778         5.54263        0.492424 
        5.62346         5.50584        0.489015 
        5.63916         5.46032        0.485636 
        5.65487         5.42675        0.482288 
         5.6706          5.3999        0.478967 
        5.68633         5.36766        0.475677 
        5.70203         5.31902        0.472425 
        5.71773         5.29118        0.469204 
        5.73344         5.24947        0.466011 
        5.74916          5.2194        0.462845 
        5.76486          5.1875        0.459714 
        5.78054         5.15305        0.456616 
        5.79626         5.11041        0.453538 
          5.812         5.08838        0.450486 
         5.8277         5.05468        0.447471 
        5.84339         5.02316        0.444484 
        5.85911         4.98748        0.441519 
        5.87484         4.94427        0.438581 
        5.89053         4.92263        0.435676 
        5.90623         4.89118        0.432796 
        5.92195         4.86958        0.429938 
        5.93767         4.81906        0.427107 
        5.95336         4.80761        0.424306 
        5.96905         4.77225        0.421532 
        5.98476          4.7448        0.418779 
        6.00048         4.71003         0.41605 
        6.01617         4.67321        0.413349 
        6.03185         4.64957        0.410675 
        6.04756         4.61754        0.408019 
        6.06331          4.5913         0.40538 
        6.07903         4.56331        0.402771 
        6.09473         4.53706        0.400187 
        6.11044         4.49644        0.397624 
        6.12616          4.4863        0.395084 
        6.14186          4.4446        0.392569 
        6.15755         4.41746        0.390076 
        6.17326         4.38661        0.387603 
        6.18898         4.35762         0.38515 
        6.20467         4.32727        0.382723 
        6.22036         4.31508        0.380317 
         6.2361         4.28671        0.377926 
         6.2518         4.25481        0.375559 
        6.26748         4.22562        0.373218 
        6.28319         4.20964         0.37089 
        6.29893         4.18495        0.368581 
        6.31463         4.15368        0.366295 
        6.33033         4.12719        0.364029 
        6.34604         4.10736        0.361782 
        6.36177         4.08711        0.359551 
        6.37747         4.06697        0.357343 
