# k  (h/Mpc)    Pcb(k)  (Mpc/h)^3    Pcb_linear(k) (Mpc/h)^3   ShotnoiseSubtracted = true
      0.0200456         10376.9         10585.8 
      0.0350414         7463.23         7675.39 
      0.0492313         5761.14         5823.01 
      0.0637834         5013.69         4950.23 
      0.0800726         3824.37         3752.56 
       0.096163          2692.5         2746.14 
       0.111083         2262.16         2348.87 
       0.126058         2079.82         2071.57 
       0.142273         1717.25         1646.82 
       0.158546         1456.79         1335.27 
        0.17375         1218.94         1201.59 
       0.188953          1163.8         1069.33 
       0.204907         1066.85         898.873 
       0.220756         915.305         778.133 
        0.23588         819.797         710.262 
         0.2514         716.705         638.839 
       0.267535         689.102         558.995 
       0.283568         628.448         499.811 
       0.299022         588.857         458.673 
       0.314451         552.146         417.928 
       0.330372         509.157         376.692 
       0.346141         463.157         343.956 
       0.361624         445.944         317.807 
       0.377134         415.845         292.869 
       0.392932         393.446         268.979 
       0.408854         378.229          248.49 
       0.424564           360.6         231.038 
       0.440253         347.852         214.789 
       0.455999         327.536         199.729 
       0.471626         305.092         186.491 
        0.48727         297.281         174.621 
       0.502856         287.375         163.703 
       0.518488         283.852         153.588 
       0.534347         267.421         144.295 
       0.550082         251.404         135.887 
       0.565732         247.745         128.163 
       0.581496         235.336         120.959 
       0.597222         229.652         114.355 
       0.612804         221.452         108.318 
       0.628434         214.222         102.702 
       0.644267         207.346         97.4199 
       0.660051         204.742         92.5255 
       0.675724         200.542         87.9999 
       0.691403         194.684         83.7778 
       0.707174         186.485          79.813 
       0.722871         184.994         76.1243 
        0.73838         181.028         72.7116 
       0.754018         175.425         69.4853 
       0.769845         170.787         66.4224 
        0.78569         168.344         63.5436 
       0.801365         163.776         60.8659 
       0.817031         158.336         58.3462 
       0.832809         155.913         55.9547 
       0.848511         152.244         53.7097 
       0.864097         149.511         51.6047 
       0.879701         146.428         49.6119 
       0.895507         142.838         47.7019 
       0.911279         140.387         45.8977 
        0.92691         138.906         44.2029 
       0.942635         135.496         42.5853 
       0.958396         135.297         41.0462 
       0.974128         131.345         39.5868 
       0.989692         128.052         38.2138 
        1.00528         125.932         36.9047 
        1.02113         125.021         35.6372 
        1.03692         120.306         34.4346 
        1.05264         119.791         33.2939 
        1.06832         117.141         32.2072 
        1.08405         115.604         31.1668 
        1.09979         115.042         30.1723 
        1.11537         111.237         29.2317 
        1.13105         111.077          28.326 
        1.14679         109.827         27.4557 
        1.16256         108.158         26.6208 
        1.17828         105.374         25.8237 
        1.19395         104.295         25.0624 
         1.2097         101.915         24.3282 
        1.22537          101.94         23.6274 
          1.241         99.5916         22.9566 
        1.25666         97.6647         22.3105 
        1.27241         96.5864         21.6866 
        1.28819         95.0447         21.0857 
        1.30392         93.8814         20.5096 
        1.31957         92.4678         19.9578 
        1.33529         90.9496         19.4245 
        1.35108         90.1129         18.9089 
        1.36674         89.1493         18.4158 
         1.3824         87.5551          17.941 
        1.39811         86.6201         17.4815 
        1.41389         85.2944         17.0366 
        1.42964         84.3711          16.608 
        1.44531         82.6154         16.1965 
        1.46101         81.5518         15.7982 
        1.47667         81.4035         15.4146 
        1.49229         79.7048         15.0449 
        1.50793         79.1105          14.687 
        1.52367          78.052         14.3387 
        1.53953         76.9565         13.9994 
        1.55526         76.2154         13.6739 
        1.57092         75.8997         13.3602 
        1.58662          74.299         13.0557 
        1.60235         73.7291         12.7602 
        1.61809         72.7521         12.4738 
        1.63369         71.5419         12.1989 
        1.64941         70.9178         11.9303 
        1.66519         69.6829          11.669 
        1.68085         69.1157         11.4174 
        1.69652         67.9308         11.1732 
        1.71228         67.5617         10.9349 
        1.72806         66.9109         10.7034 
        1.74368         66.0181          10.481 
        1.75933         65.3481         10.2646 
        1.77505         64.6732         10.0533 
        1.79081         63.6493          9.8476 
         1.8065         63.2492         9.64863 
        1.82218         62.2856         9.45539 
        1.83797         61.7326         9.26617 
        1.85367         60.9301         9.08323 
        1.86928         60.4655         8.90637 
        1.88497         59.5693         8.73331 
        1.90073         58.8555         8.56425 
        1.91647          58.565         8.39986 
        1.93218         57.6754         8.24018 
        1.94787         57.0931         8.08492 
        1.96363         56.2989         7.93309 
        1.97935         55.9525         7.78551 
        1.99499         55.1204         7.64255 
        2.01064         54.9849         7.50301 
         2.0264         53.6654         7.36611 
        2.04216         53.3374         7.23272 
        2.05781         52.7288         7.10352 
        2.07353         52.1945         6.97703 
        2.08928          51.574         6.85338 
        2.10499         51.1663         6.73309 
        2.12065         50.5939         6.61607 
        2.13633         50.3689         6.50176 
        2.15211         49.8204         6.38944 
        2.16785         48.8763         6.28011 
        2.18349         48.5802         6.17405 
        2.19916         48.1181         6.07023 
        2.21489         47.5897         5.96848 
        2.23063         46.9342         5.86902 
         2.2463         46.4391         5.77229 
        2.26194         45.7725           5.678 
        2.27765         45.2904         5.58536 
        2.29341         44.8096         5.49456 
        2.30914         44.3451         5.40598 
        2.32486         43.7972         5.31942 
        2.34061         43.4659         5.23463 
        2.35635         43.0409         5.15179 
        2.37203         42.5092         5.07103 
        2.38768         42.1176          4.9922 
        2.40339          41.839         4.91476 
        2.41914         41.4111         4.83881 
        2.43483         40.7152         4.76474 
         2.4505         40.4069         4.69236 
        2.46622         40.0968         4.62125 
        2.48195          39.724         4.55162 
        2.49759         39.2095         4.48381 
        2.51328         38.6974         4.41722 
        2.52906         38.5113         4.35156 
        2.54479         37.8894         4.28751 
        2.56049         37.5996         4.22487 
        2.57618         37.1817         4.16355 
        2.59189         36.9001         4.10337 
        2.60758         36.5808         4.04448 
        2.62325         36.0962         3.98683 
        2.63898          35.825         3.93011 
        2.65468         35.3522         3.87463 
        2.67044         35.0543         3.81998 
        2.68618         34.7372         3.76653 
        2.70184         34.3028         3.71432 
        2.71755         34.1855         3.66298 
        2.73329         33.7355         3.61254 
        2.74897         33.3856         3.56322 
        2.76462         32.9631         3.51494 
        2.78034         32.7458         3.46736 
        2.79607         32.3971         3.42062 
        2.81179         32.1643         3.37481 
        2.82749         31.8911         3.32989 
        2.84321         31.3875         3.28574 
        2.85893         31.1199         3.24242 
        2.87462         30.8189         3.19995 
        2.89033          30.588         3.15822 
        2.90605         30.3453          3.1172 
        2.92176         30.1469         3.07693 
        2.93747         29.7201          3.0374 
        2.95318         29.2949         2.99857 
        2.96891         29.1827          2.9604 
        2.98456          28.776         2.92307 
        3.00023         28.5805         2.88633 
        3.01596         28.2512         2.85012 
        3.03164         28.0548         2.81464 
        3.04738          27.879         2.77966 
         3.0631         27.5259         2.74529 
        3.07883         27.2502         2.71151 
        3.09456         26.9297         2.67831 
        3.11026          26.707         2.64571 
        3.12596         26.5042         2.61367 
        3.14163         26.2377         2.58224 
        3.15734         25.9867         2.55125 
        3.17308         25.7431         2.52071 
        3.18879         25.5133         2.49075 
        3.20447          25.282         2.46132 
         3.2202          25.035         2.43228 
         3.2359         24.7417         2.40377 
        3.25157          24.707         2.37579 
        3.26729         24.4223         2.34817 
        3.28304         24.1515         2.32093 
        3.29877         23.8249         2.29417 
        3.31446         23.7008          2.2679 
        3.33014         23.4525         2.24206 
        3.34585         23.2628         2.21659 
        3.36158         23.0391         2.19147 
        3.37727         22.7949         2.16683 
        3.39294         22.6563          2.1426 
        3.40867         22.4524         2.11865 
        3.42439         22.2109         2.09508 
        3.44008         21.9948         2.07192 
        3.45578         21.8244         2.04909 
        3.47153         21.5666         2.02656 
        3.48724         21.4022         2.00442 
        3.50292         21.2373         1.98265 
        3.51859         21.0606         1.96123 
        3.53431         20.8547         1.94005 
        3.55007         20.6516         1.91914 
        3.56577         20.4423         1.89862 
        3.58146         20.2952         1.87842 
        3.59719         20.0715         1.85846 
        3.61292         19.8901          1.8388 
        3.62859         19.7461         1.81951 
        3.64429         19.5942         1.80045 
        3.66003         19.4364         1.78161 
        3.67578         19.2131         1.76305 
        3.69146         19.0695         1.74483 
        3.70712         18.8685          1.7269 
        3.72284         18.8282         1.70916 
        3.73853         18.5753          1.6917 
        3.75422         18.3557         1.67447 
        3.76993         18.2529         1.65748 
        3.78564         18.0854         1.64073 
        3.80137         17.8959         1.62419 
        3.81707         17.7503         1.60791 
        3.83279         17.6005         1.59184 
        3.84853         17.4287         1.57596 
        3.86424          17.318         1.56034 
        3.87992         17.1431         1.54495 
        3.89561         16.9711         1.52978 
        3.91134         16.8558         1.51477 
        3.92704         16.7127         1.49999 
        3.94273         16.5911         1.48542 
        3.95845         16.4028         1.47101 
        3.97418         16.3014          1.4568 
        3.98988           16.14          1.4428 
        4.00554         16.0243         1.42902 
        4.02125         15.8602         1.41538 
        4.03698         15.8003          1.4019 
        4.05268         15.5909         1.38863 
        4.06839         15.4616         1.37552 
         4.0841         15.3531         1.36258 
        4.09983         15.1955          1.3498 
        4.11555         15.0531         1.33718 
        4.13124         14.9724         1.32476 
        4.14693         14.8333         1.31249 
        4.16266         14.7244         1.30035 
        4.17839         14.5704         1.28837 
        4.19408         14.4414         1.27657 
        4.20977         14.3834         1.26492 
        4.22551         14.2307         1.25338 
        4.24123         14.1272           1.242 
        4.25691         13.9788         1.23079 
        4.27259          13.871         1.21972 
        4.28831           13.74         1.20876 
        4.30404         13.6479         1.19793 
        4.31974         13.5136         1.18726 
        4.33543         13.4111         1.17672 
        4.35116         13.3326         1.16629 
        4.36688         13.1763         1.15598 
        4.38255         13.0836         1.14585 
        4.39825         12.9723         1.13581 
        4.41398         12.9411         1.12587 
         4.4297         12.7719         1.11606 
        4.44541         12.6414         1.10638 
        4.46111         12.5668         1.09681 
        4.47683         12.4772         1.08736 
        4.49251         12.3721         1.07803 
        4.50819         12.2831         1.06882 
         4.5239         12.1969          1.0597 
        4.53962         12.0801         1.05068 
        4.55535         11.9856         1.04176 
        4.57106         11.8837         1.03296 
        4.58678         11.7738         1.02426 
         4.6025         11.6948         1.01565 
        4.61821         11.6041         1.00715 
        4.63391         11.4955        0.998758 
         4.6496         11.4262        0.990465 
        4.66532         11.3308        0.982254 
        4.68103         11.2604         0.97414 
        4.69673         11.1596        0.966126 
        4.71241         11.0324        0.958211 
        4.72811         10.9614        0.950372 
        4.74384         10.9002        0.942611 
        4.75955         10.8082         0.93495 
        4.77525         10.7023        0.927379 
        4.79096         10.6563        0.919882 
        4.80669         10.5614        0.912466 
         4.8224         10.4829        0.905141 
        4.83809         10.4063        0.897904 
        4.85379         10.3213        0.890743 
         4.8695         10.2628        0.883654 
        4.88521         10.1625        0.876646 
        4.90093          10.069        0.869714 
        4.91663         10.0223        0.862864 
        4.93234           9.952         0.85608 
        4.94807          9.8579        0.849365 
        4.96377         9.77131        0.842736 
        4.97943          9.7061        0.836192 
        4.99514         9.64005        0.829701 
        5.01086         9.56678        0.823274 
        5.02654         9.50842        0.816932 
        5.04227         9.43078        0.810639 
          5.058         9.32975         0.80441 
        5.07371         9.29091        0.798259 
        5.08942         9.22662        0.792172 
        5.10513         9.13939        0.786148 
        5.12084         9.08765        0.780185 
        5.13656         9.02999        0.774285 
        5.15225         8.95122        0.768456 
        5.16796         8.89467        0.762678 
        5.18369          8.8398        0.756955 
         5.1994          8.7316        0.751302 
        5.21509          8.6865        0.745712 
        5.23079         8.62177        0.740172 
        5.24649         8.55946        0.734694 
        5.26217         8.50975        0.729275 
        5.27788         8.43184        0.723903 
        5.29359         8.37628        0.718585 
        5.30933         8.31578        0.713314 
        5.32504          8.2567        0.708104 
        5.34073         8.21624        0.702952 
        5.35646         8.13653        0.697842 
        5.37218         8.08939        0.692782 
        5.38789         8.03119        0.687781 
        5.40357         7.97939        0.682835 
        5.41929         7.92108        0.677927 
        5.43502         7.86428        0.673067 
         5.4507         7.80586        0.668267 
        5.46639         7.76852        0.663513 
        5.48212         7.70576        0.658795 
        5.49786         7.66254        0.654117 
        5.51353         7.59427        0.649509 
        5.52921         7.53972         0.64494 
        5.54495         7.48579        0.640402 
        5.56066         7.42865        0.635913 
        5.57637         7.36923        0.631468 
        5.59207         7.34182         0.62707 
        5.60778         7.25323        0.622713 
        5.62346         7.22879        0.618403 
        5.63916         7.16697         0.61413 
        5.65487         7.13414        0.609895 
         5.6706         7.07577        0.605696 
        5.68633          7.0251        0.601535 
        5.70203         6.98629        0.597422 
        5.71773          6.9479        0.593349 
        5.73344         6.88474        0.589312 
        5.74916         6.84992        0.585308 
        5.76486         6.81386        0.581348 
        5.78054         6.75611        0.577431 
        5.79626         6.70395        0.573539 
          5.812         6.65961        0.569679 
         5.8277         6.61549        0.565866 
        5.84339         6.57375        0.562089 
        5.85911         6.53042        0.558339 
        5.87484         6.49117        0.554624 
        5.89053         6.44355         0.55095 
        5.90623          6.3948        0.547309 
        5.92195         6.34647        0.543694 
        5.93767         6.31887        0.540114 
        5.95336         6.26265        0.536572 
        5.96905         6.23988        0.533064 
        5.98476         6.19483        0.529583 
        6.00048         6.15318        0.526131 
        6.01617         6.11794        0.522715 
        6.03185         6.07685        0.519334 
        6.04756         6.03327        0.515975 
        6.06331         5.98557        0.512639 
        6.07903         5.96539        0.509339 
        6.09473         5.91313        0.506072 
        6.11044         5.87395        0.502831 
        6.12616         5.84385        0.499618 
        6.14186         5.80284        0.496438 
        6.15755         5.75801        0.493285 
        6.17326         5.72595        0.490157 
        6.18898         5.67926        0.487056 
        6.20467         5.65092        0.483986 
        6.22036         5.61975        0.480944 
         6.2361         5.58053         0.47792 
         6.2518         5.54613        0.474927 
        6.26748         5.51481        0.471967 
        6.28319         5.46984        0.469023 
        6.29893         5.44204        0.466103 
        6.31463         5.41817        0.463212 
        6.33033         5.36956        0.460347 
        6.34604         5.34926        0.457504 
        6.36177         5.31503        0.454683 
        6.37747         5.28623        0.451891 
