# k  (h/Mpc)    Pcb(k)  (Mpc/h)^3    Pcb_linear(k) (Mpc/h)^3   ShotnoiseSubtracted = true
      0.0200456         19413.1         19762.2 
      0.0350414         14773.4         14328.8 
      0.0492313         10630.9         10870.7 
      0.0637834         8733.73         9241.35 
      0.0800726         6620.08         7005.48 
       0.096163         5319.08         5126.64 
       0.111083         4559.83            4385 
       0.126058         3763.22          3867.3 
       0.142273         3173.71         3074.37 
       0.158546         2643.54         2492.75 
        0.17375          2420.1         2243.19 
       0.188953         2271.47         1996.28 
       0.204907         1929.55         1678.06 
       0.220756         1751.37         1452.66 
        0.23588         1582.02         1325.95 
         0.2514         1430.25         1192.62 
       0.267535         1378.63         1043.56 
       0.283568         1227.59         933.071 
       0.299022         1176.91         856.273 
       0.314451          1221.8         780.209 
       0.330372         1073.73         703.228 
       0.346141         989.708         642.115 
       0.361624         951.915         593.298 
       0.377134          910.49         546.742 
       0.392932         873.809         502.143 
       0.408854         836.405         463.894 
       0.424564          818.99         431.314 
       0.440253         757.514         400.978 
       0.455999         726.008         372.865 
       0.471626         740.085          348.15 
        0.48727          699.23         325.992 
       0.502856         665.409         305.609 
       0.518488         652.864         286.725 
       0.534347         621.846         269.377 
       0.550082         595.376         253.681 
       0.565732          589.27         239.261 
       0.581496         577.204         225.812 
       0.597222         563.281         213.484 
       0.612804         551.831         202.214 
       0.628434         529.786          191.73 
       0.644267         514.022         181.868 
       0.660051         508.267         172.731 
       0.675724         498.408         164.283 
       0.691403         487.112         156.401 
       0.707174         470.559         148.999 
       0.722871         463.482         142.113 
        0.73838         457.558         135.742 
       0.754018         444.282         129.719 
       0.769845          440.16         124.001 
        0.78569         431.379         118.626 
       0.801365         417.324         113.628 
       0.817031         414.321         108.924 
       0.832809         408.852         104.459 
       0.848511         400.468         100.268 
       0.864097         391.508         96.3383 
       0.879701         389.091         92.6179 
       0.895507          375.44         89.0524 
       0.911279         370.069         85.6842 
        0.92691         366.696         82.5202 
       0.942635         364.235         79.5003 
       0.958396         351.591          76.627 
       0.974128         348.618         73.9027 
       0.989692         336.389         71.3394 
        1.00528         335.812         68.8955 
        1.02113          330.44         66.5292 
        1.03692         324.953         64.2843 
        1.05264         319.692         62.1546 
        1.06832         316.098          60.126 
        1.08405         311.973         58.1838 
        1.09979         307.182         56.3272 
        1.11537         299.295         54.5712 
        1.13105         296.355         52.8804 
        1.14679         292.491         51.2557 
        1.16256             290          49.697 
        1.17828          285.65          48.209 
        1.19395         278.412         46.7877 
         1.2097         278.374         45.4172 
        1.22537         274.146         44.1088 
          1.241         268.206         42.8566 
        1.25666         265.923         41.6504 
        1.27241         261.757         40.4855 
        1.28819         257.174         39.3638 
        1.30392         255.881         38.2883 
        1.31957         249.137         37.2582 
        1.33529         246.169         36.2627 
        1.35108         245.091            35.3 
        1.36674         238.954         34.3796 
         1.3824         237.711         33.4931 
        1.39811         235.352         32.6354 
        1.41389         229.039         31.8047 
        1.42964         227.041         31.0047 
        1.44531         224.586         30.2364 
        1.46101         221.311         29.4928 
        1.47667         218.523         28.7767 
        1.49229         215.725         28.0866 
        1.50793         212.744         27.4185 
        1.52367         210.468         26.7681 
        1.53953         205.712         26.1347 
        1.55526         205.292         25.5271 
        1.57092         203.442         24.9415 
        1.58662         198.463          24.373 
        1.60235         197.015         23.8214 
        1.61809         193.956         23.2868 
        1.63369         190.832         22.7735 
        1.64941         189.149         22.2721 
        1.66519         186.623         21.7842 
        1.68085         183.794         21.3146 
        1.69652         181.675         20.8588 
        1.71228         179.088         20.4138 
        1.72806          177.27         19.9817 
        1.74368         175.412         19.5665 
        1.75933         173.908         19.1624 
        1.77505         171.395         18.7679 
        1.79081         167.753          18.384 
         1.8065         166.108         18.0125 
        1.82218         163.557         17.6518 
        1.83797         162.705         17.2986 
        1.85367         160.522          16.957 
        1.86928         158.265         16.6269 
        1.88497         156.955         16.3038 
        1.90073         155.267         15.9882 
        1.91647         152.275         15.6813 
        1.93218         151.061         15.3832 
        1.94787         148.795         15.0933 
        1.96363         148.139         14.8099 
        1.97935         146.275         14.5344 
        1.99499         144.641         14.2675 
        2.01064         141.708          14.007 
         2.0264          140.58         13.7514 
        2.04216           138.7         13.5024 
        2.05781         136.999         13.2612 
        2.07353         135.259         13.0251 
        2.08928         133.584         12.7942 
        2.10499          132.46         12.5697 
        2.12065         131.165         12.3512 
        2.13633         129.983         12.1378 
        2.15211         127.731         11.9281 
        2.16785         126.122          11.724 
        2.18349         124.547          11.526 
        2.19916         123.619         11.3322 
        2.21489         122.448         11.1423 
        2.23063         120.101         10.9566 
         2.2463         119.233          10.776 
        2.26194         117.981            10.6 
        2.27765         116.328          10.427 
        2.29341         115.365         10.2575 
        2.30914         114.203         10.0922 
        2.32486         111.998         9.93056 
        2.34061         111.468         9.77228 
        2.35635         110.135         9.61761 
        2.37203         108.454         9.46686 
        2.38768         107.588         9.31968 
        2.40339         106.606         9.17513 
        2.41914         104.771         9.03333 
        2.43483         104.026         8.89505 
         2.4505         102.937         8.75993 
        2.46622         101.682         8.62718 
        2.48195         100.685         8.49719 
        2.49759          99.296          8.3706 
        2.51328         98.6755         8.24628 
        2.52906         96.7838         8.12372 
        2.54479          95.975         8.00413 
        2.56049         94.8438          7.8872 
        2.57618         93.5131         7.77273 
        2.59189          93.337         7.66038 
        2.60758         91.4264         7.55044 
        2.62325         91.2555         7.44282 
        2.63898         90.0899         7.33693 
        2.65468         89.0438         7.23335 
        2.67044         87.7428         7.13134 
        2.68618         87.2263         7.03155 
        2.70184         85.8712         6.93408 
        2.71755         85.1463         6.83824 
        2.73329         83.8387         6.74407 
        2.74897         83.5586           6.652 
        2.76462           82.43         6.56187 
        2.78034         81.2327         6.47305 
        2.79607         80.5872         6.38579 
        2.81179         80.0082         6.30026 
        2.82749           79.18          6.2164 
        2.84321         78.3708         6.13398 
        2.85893         77.4691          6.0531 
        2.87462         76.6105         5.97383 
        2.89033          75.925         5.89592 
        2.90605         75.4542         5.81934 
        2.92176         74.2406         5.74417 
        2.93747         73.7473         5.67038 
        2.95318         72.7543         5.59788 
        2.96891         72.0494         5.52662 
        2.98456         71.3268         5.45693 
        3.00023         70.5685         5.38835 
        3.01596         70.1253         5.32075 
        3.03164         69.2369         5.25451 
        3.04738         68.7159         5.18921 
         3.0631         67.7721         5.12505 
        3.07883          67.075         5.06198 
        3.09456         66.3872               5 
        3.11026         65.7354         4.93915 
        3.12596         65.1939         4.87933 
        3.14163         64.4107         4.82065 
        3.15734         63.7713         4.76281 
        3.17308         63.2107         4.70578 
        3.18879         62.3413         4.64985 
        3.20447         62.0885         4.59492 
         3.2202         61.2586         4.54071 
         3.2359         60.6188         4.48748 
        3.25157         60.2199         4.43524 
        3.26729         59.4431         4.38367 
        3.28304         58.9564         4.33284 
        3.29877         58.2944         4.28288 
        3.31446          57.849         4.23382 
        3.33014         57.3352         4.18559 
        3.34585         56.5857         4.13803 
        3.36158         56.1527         4.09115 
        3.37727         55.6815         4.04515 
        3.39294         55.2576         3.99991 
        3.40867          54.703         3.95519 
        3.42439         54.1141          3.9112 
        3.44008          53.485         3.86796 
        3.45578         53.1025         3.82535 
        3.47153         52.5441         3.78329 
        3.48724         51.9554         3.74194 
        3.50292         51.4901         3.70132 
        3.51859         51.1393         3.66132 
        3.53431         50.3606         3.62179 
        3.55007         50.0532         3.58275 
        3.56577          49.686         3.54445 
        3.58146         48.9782         3.50672 
        3.59719         48.5416         3.46947 
        3.61292         48.1279         3.43277 
        3.62859         47.8127         3.39675 
        3.64429         47.3952         3.36117 
        3.66003         46.9462         3.32601 
        3.67578         46.5676         3.29136 
        3.69146         46.1846         3.25734 
        3.70712         45.7136         3.22386 
        3.72284         45.2616         3.19074 
        3.73853         44.9027         3.15814 
        3.75422         44.4828         3.12599 
        3.76993          44.127         3.09427 
        3.78564         43.7935           3.063 
        3.80137         43.3328         3.03211 
        3.81707         42.8283         3.00172 
        3.83279         42.4697         2.97172 
        3.84853          42.128         2.94209 
        3.86424         41.8462         2.91292 
        3.87992         41.4991          2.8842 
        3.89561         41.1463         2.85586 
        3.91134         40.8135         2.82785 
        3.92704         40.3184         2.80025 
        3.94273         40.0651         2.77305 
        3.95845         39.6994         2.74616 
        3.97418         39.2948         2.71963 
        3.98988         38.8707         2.69349 
        4.00554         38.5966         2.66776 
        4.02125         38.3209          2.6423 
        4.03698         37.9819         2.61713 
        4.05268         37.6762         2.59236 
        4.06839         37.2179         2.56788 
         4.0841         37.0659         2.54373 
        4.09983          36.666         2.51987 
        4.11555         36.3583         2.49632 
        4.13124         36.0698         2.47313 
        4.14693         35.8097         2.45023 
        4.16266         35.3531         2.42756 
        4.17839         35.1711          2.4052 
        4.19408         34.8814         2.38317 
        4.20977         34.5653         2.36141 
        4.22551         34.3277         2.33987 
        4.24123         33.9979         2.31862 
        4.25691         33.7646          2.2977 
        4.27259          33.459         2.27703 
        4.28831         33.1324         2.25658 
        4.30404         32.8358         2.23636 
        4.31974         32.5876         2.21643 
        4.33543         32.3969         2.19676 
        4.35116         32.0907         2.17728 
        4.36688         31.8419         2.15805 
        4.38255         31.6428         2.13912 
        4.39825         31.2692         2.12038 
        4.41398         31.0636         2.10183 
         4.4297         30.7473         2.08353 
        4.44541         30.6278         2.06544 
        4.46111         30.3774         2.04759 
        4.47683         30.0068         2.02993 
        4.49251         29.8315         2.01253 
        4.50819         29.5915         1.99533 
         4.5239         29.2957         1.97831 
        4.53962         29.1187         1.96147 
        4.55535         28.8559         1.94481 
        4.57106          28.628         1.92838 
        4.58678         28.3994         1.91213 
         4.6025          28.147         1.89607 
        4.61821         27.9701          1.8802 
        4.63391         27.6898         1.86453 
         4.6496         27.4681         1.84905 
        4.66532           27.29         1.83372 
        4.68103         26.9818         1.81857 
        4.69673         26.8372         1.80361 
        4.71241         26.6274         1.78884 
        4.72811         26.4372          1.7742 
        4.74384         26.2342         1.75971 
        4.75955         26.0535         1.74541 
        4.77525          25.857         1.73128 
        4.79096         25.5941         1.71728 
        4.80669          25.453         1.70344 
         4.8224         25.2803         1.68976 
        4.83809         25.0128         1.67625 
        4.85379         24.8161         1.66288 
         4.8695         24.6546         1.64965 
        4.88521         24.4454         1.63657 
        4.90093         24.2837         1.62363 
        4.91663         24.0554         1.61084 
        4.93234         23.8508         1.59817 
        4.94807         23.7448         1.58564 
        4.96377         23.5361         1.57326 
        4.97943         23.3089         1.56104 
        4.99514         23.1518         1.54893 
        5.01086         22.9722         1.53693 
        5.02654          22.844         1.52509 
        5.04227         22.6624         1.51334 
          5.058         22.4685         1.50171 
        5.07371         22.3414         1.49023 
        5.08942          22.145         1.47887 
        5.10513         21.9459         1.46762 
        5.12084         21.8122         1.45649 
        5.13656         21.6171         1.44547 
        5.15225         21.4566         1.43459 
        5.16796         21.3098         1.42381 
        5.18369         21.1919         1.41312 
         5.1994          21.029         1.40257 
        5.21509          20.869         1.39213 
        5.23079         20.7356         1.38179 
        5.24649         20.6202         1.37156 
        5.26217         20.3916         1.36145 
        5.27788          20.239         1.35142 
        5.29359         20.1276         1.34149 
        5.30933         19.9402         1.33165 
        5.32504         19.7422         1.32192 
        5.34073         19.6538         1.31231 
        5.35646         19.4982         1.30277 
        5.37218         19.3369         1.29332 
        5.38789         19.2608         1.28398 
        5.40357         19.1009         1.27475 
        5.41929         18.9561         1.26559 
        5.43502         18.7868         1.25652 
         5.4507         18.6978         1.24755 
        5.46639         18.5676         1.23868 
        5.48212         18.4149         1.22987 
        5.49786         18.2616         1.22114 
        5.51353         18.1483         1.21254 
        5.52921         17.9876         1.20401 
        5.54495         17.8823         1.19553 
        5.56066         17.7772         1.18715 
        5.57637         17.6244         1.17886 
        5.59207         17.5011         1.17065 
        5.60778         17.3757         1.16251 
        5.62346         17.2758         1.15446 
        5.63916          17.122         1.14649 
        5.65487         17.0249         1.13858 
         5.6706         16.8852         1.13074 
        5.68633          16.776         1.12298 
        5.70203         16.6522          1.1153 
        5.71773         16.5337         1.10769 
        5.73344         16.4292         1.10016 
        5.74916         16.3064         1.09268 
        5.76486         16.2029         1.08529 
        5.78054         16.0832         1.07798 
        5.79626         15.9725         1.07071 
          5.812         15.8439         1.06351 
         5.8277         15.7786         1.05639 
        5.84339          15.627         1.04934 
        5.85911          15.542         1.04233 
        5.87484         15.4325          1.0354 
        5.89053         15.3253         1.02854 
        5.90623         15.1922         1.02174 
        5.92195         15.0874         1.01499 
        5.93767         15.0061         1.00831 
        5.95336         14.9444          1.0017 
        5.96905         14.7984        0.995151 
        5.98476         14.7493        0.988651 
        6.00048         14.6215        0.982208 
        6.01617          14.509        0.975831 
        6.03185         14.4221        0.969519 
        6.04756           14.33        0.963248 
        6.06331         14.2032         0.95702 
        6.07903         14.1028         0.95086 
        6.09473         14.0526         0.94476 
        6.11044         13.9206        0.938709 
        6.12616         13.8218        0.932713 
        6.14186         13.7533        0.926775 
        6.15755         13.6734        0.920889 
        6.17326         13.5407         0.91505 
        6.18898         13.4639         0.90926 
        6.20467         13.3826         0.90353 
        6.22036         13.3027        0.897851 
         6.2361         13.1958        0.892205 
         6.2518         13.1584        0.886618 
        6.26748         13.0358        0.881091 
        6.28319         12.9658        0.875596 
        6.29893         12.8685        0.870144 
        6.31463         12.7854        0.864747 
        6.33033         12.6863        0.859399 
        6.34604         12.6072        0.854092 
        6.36177         12.5238        0.848826 
        6.37747         12.4532        0.843613 
