# k  (h/Mpc)    Pcb(k)  (Mpc/h)^3    Pcb_linear(k) (Mpc/h)^3   ShotnoiseSubtracted = true
      0.0200456         344.419         349.444 
      0.0350414         253.384         253.369 
      0.0492313         192.762         192.221 
      0.0637834         163.616          163.41 
      0.0800726         124.723         123.874 
       0.096163         90.8845         90.6516 
       0.111083         77.0164         77.5375 
       0.126058         68.3051         68.3834 
       0.142273         54.8574         54.3625 
       0.158546         44.4681          44.078 
        0.17375         39.4192         39.6651 
       0.188953         35.3187         35.2991 
       0.204907         30.3454         29.6723 
       0.220756         25.9663         25.6866 
        0.23588          23.588         23.4461 
         0.2514         21.1194         21.0884 
       0.267535         18.5947         18.4527 
       0.283568         16.6588          16.499 
       0.299022         15.3055          15.141 
       0.314451         13.7705          13.796 
       0.330372         12.5265         12.4348 
       0.346141         11.4344         11.3542 
       0.361624         10.5976          10.491 
       0.377134          9.8285         9.66775 
       0.392932         8.82177         8.87912 
       0.408854          8.3333          8.2028 
       0.424564         7.70229          7.6267 
       0.440253         7.16192         7.09028 
       0.455999         6.71128         6.59317 
       0.471626          6.2933         6.15615 
        0.48727         5.85696         5.76434 
       0.502856         5.47087         5.40392 
       0.518488         5.20569         5.07001 
       0.534347         4.93197         4.76326 
       0.550082         4.55263          4.4857 
       0.565732         4.23125         4.23072 
       0.581496         4.08594         3.99291 
       0.597222           3.883         3.77492 
       0.612804         3.64641         3.57564 
       0.628434         3.50027         3.39025 
       0.644267         3.30603         3.21588 
       0.660051         3.12554         3.05431 
       0.675724         2.98284         2.90492 
       0.691403         2.86044         2.76555 
       0.707174          2.7094         2.63467 
       0.722871         2.57786          2.5129 
        0.73838         2.48329         2.40025 
       0.754018         2.39266         2.29375 
       0.769845         2.27274         2.19264 
        0.78569         2.17872         2.09761 
       0.801365         2.08111         2.00921 
       0.817031         2.00488         1.92604 
       0.832809         1.92239         1.84709 
       0.848511         1.83273         1.77298 
       0.864097         1.75406          1.7035 
       0.879701         1.68865         1.63771 
       0.895507         1.63433         1.57467 
       0.911279         1.58419         1.51511 
        0.92691         1.52073         1.45916 
       0.942635         1.46247         1.40576 
       0.958396         1.40509         1.35495 
       0.974128         1.35822         1.30678 
       0.989692         1.32007         1.26146 
        1.00528          1.2708         1.21824 
        1.02113          1.2177          1.1764 
        1.03692         1.19065          1.1367 
        1.05264         1.14825         1.09905 
        1.06832         1.11485         1.06318 
        1.08405         1.06574         1.02883 
        1.09979         1.03604        0.996004 
        1.11537         1.01207        0.964952 
        1.13105        0.981982        0.935056 
        1.14679        0.956682        0.906327 
        1.16256        0.916864        0.878765 
        1.17828        0.892645        0.852453 
        1.19395        0.864446        0.827321 
         1.2097        0.832638        0.803087 
        1.22537        0.818015        0.779952 
          1.241        0.794507         0.75781 
        1.25666        0.780882        0.736482 
        1.27241        0.749033        0.715884 
        1.28819           0.728        0.696048 
        1.30392        0.712919        0.677031 
        1.31957        0.693893        0.658817 
        1.33529        0.673451        0.641213 
        1.35108        0.654608        0.624191 
        1.36674         0.63198        0.607915 
         1.3824        0.624399        0.592241 
        1.39811        0.605352        0.577074 
        1.41389        0.591904        0.562386 
        1.42964        0.578915        0.548239 
        1.44531        0.559594        0.534654 
        1.46101         0.55036        0.521505 
        1.47667        0.529308        0.508843 
        1.49229        0.523111         0.49664 
        1.50793        0.507334        0.484827 
        1.52367        0.498042        0.473327 
        1.53953        0.484423        0.462126 
        1.55526        0.474521        0.451381 
        1.57092        0.461099        0.441027 
        1.58662        0.453174        0.430975 
        1.60235        0.443664        0.421221 
        1.61809        0.429289        0.411768 
        1.63369        0.426428        0.402691 
        1.64941        0.413878        0.393826 
        1.66519        0.403995        0.385199 
        1.68085        0.393282        0.376894 
        1.69652        0.385525        0.368834 
        1.71228        0.379539        0.360967 
        1.72806        0.368237        0.353325 
        1.74368        0.364389        0.345983 
        1.75933        0.354927        0.338838 
        1.77505        0.347231        0.331863 
        1.79081        0.341475        0.325074 
         1.8065        0.331121        0.318506 
        1.82218        0.326796        0.312127 
        1.83797        0.319334        0.305881 
        1.85367        0.315194        0.299842 
        1.86928        0.308429        0.294004 
        1.88497        0.302218        0.288291 
        1.90073        0.295505         0.28271 
        1.91647        0.290665        0.277284 
        1.93218         0.28373        0.272012 
        1.94787        0.278631        0.266887 
        1.96363        0.273646        0.261875 
        1.97935        0.267154        0.257003 
        1.99499        0.263283        0.252284 
        2.01064        0.258575        0.247678 
         2.0264        0.252232        0.243159 
        2.04216        0.250153        0.238756 
        2.05781        0.244756        0.234491 
        2.07353        0.238535        0.230315 
        2.08928        0.234467        0.226234 
        2.10499        0.230796        0.222263 
        2.12065        0.227921          0.2184 
        2.13633        0.222937        0.214626 
        2.15211        0.219888        0.210919 
        2.16785        0.215231         0.20731 
        2.18349         0.21026        0.203808 
        2.19916        0.208646        0.200381 
        2.21489         0.20423        0.197023 
        2.23063        0.201509        0.193739 
         2.2463        0.197475        0.190546 
        2.26194         0.19343        0.187434 
        2.27765        0.190454        0.184375 
        2.29341        0.187787        0.181378 
        2.30914        0.184396        0.178454 
        2.32486        0.181085        0.175597 
        2.34061        0.178349        0.172798 
        2.35635        0.175085        0.170063 
        2.37203         0.17254        0.167397 
        2.38768         0.16949        0.164795 
        2.40339        0.167269        0.162239 
        2.41914        0.164974        0.159731 
        2.43483        0.161766        0.157286 
         2.4505        0.158391        0.154897 
        2.46622          0.1562         0.15255 
        2.48195         0.15383        0.150251 
        2.49759        0.152501        0.148013 
        2.51328        0.149846        0.145815 
        2.52906         0.14736        0.143647 
        2.54479        0.144596        0.141533 
        2.56049        0.142166        0.139465 
        2.57618        0.140236        0.137441 
        2.59189        0.138621        0.135454 
        2.60758        0.137058         0.13351 
        2.62325        0.134213        0.131607 
        2.63898        0.132501        0.129735 
        2.65468        0.129864        0.127903 
        2.67044        0.128663          0.1261 
        2.68618        0.126799        0.124335 
        2.70184         0.12454        0.122612 
        2.71755        0.122365        0.120917 
        2.73329        0.121265        0.119252 
        2.74897        0.119853        0.117624 
        2.76462        0.117659         0.11603 
        2.78034        0.116145        0.114459 
        2.79607        0.114023        0.112916 
        2.81179        0.113214        0.111404 
        2.82749        0.111257        0.109921 
        2.84321        0.109672        0.108464 
        2.85893        0.108556        0.107034 
        2.87462        0.107266        0.105632 
        2.89033        0.105557        0.104254 
        2.90605        0.103605          0.1029 
        2.92176        0.102689        0.101571 
        2.93747        0.101059        0.100266 
        2.95318       0.0997264       0.0989842 
        2.96891       0.0984414       0.0977242 
        2.98456       0.0973283        0.096492 
        3.00023       0.0959258       0.0952793 
        3.01596       0.0946941       0.0940839 
        3.03164       0.0938642       0.0929126 
        3.04738       0.0922283        0.091758 
         3.0631         0.09112       0.0906235 
        3.07883       0.0898868       0.0895083 
        3.09456       0.0887923       0.0884122 
        3.11026        0.087531       0.0873363 
        3.12596       0.0867825       0.0862786 
        3.14163       0.0854596        0.085241 
        3.15734       0.0846817       0.0842182 
        3.17308       0.0837168       0.0832098 
        3.18879       0.0825018       0.0822208 
        3.20447       0.0814893       0.0812495 
         3.2202       0.0808666       0.0802909 
         3.2359       0.0797192       0.0793497 
        3.25157       0.0785469       0.0784259 
        3.26729       0.0775987       0.0775142 
        3.28304       0.0771342       0.0766152 
        3.29877       0.0760134       0.0757318 
        3.31446       0.0751889       0.0748644 
        3.33014       0.0746446       0.0740115 
        3.34585       0.0735772       0.0731706 
        3.36158       0.0727488       0.0723417 
        3.37727       0.0720387       0.0715282 
        3.39294       0.0712234       0.0707282 
        3.40867       0.0703445       0.0699376 
        3.42439       0.0696196       0.0691596 
        3.44008       0.0686868        0.068395 
        3.45578        0.068293       0.0676416 
        3.47153       0.0673769       0.0668979 
        3.48724       0.0669867       0.0661668 
        3.50292       0.0659682       0.0654484 
        3.51859       0.0651946       0.0647411 
        3.53431       0.0647344       0.0640421 
        3.55007       0.0640909       0.0633518 
        3.56577        0.063415       0.0626745 
        3.58146       0.0629228       0.0620075 
        3.59719       0.0624127       0.0613487 
        3.61292       0.0616832       0.0606998 
        3.62859       0.0609537       0.0600628 
        3.64429       0.0604623       0.0594338 
        3.66003       0.0598551        0.058812 
        3.67578       0.0592582       0.0581993 
        3.69146       0.0586527       0.0575977 
        3.70712       0.0583318       0.0570058 
        3.72284       0.0579045       0.0564201 
        3.73853       0.0571597       0.0558437 
        3.75422       0.0568358       0.0552752 
        3.76993       0.0560396       0.0547142 
        3.78564       0.0557152       0.0541613 
        3.80137       0.0550766       0.0536152 
        3.81707        0.054621       0.0530778 
        3.83279       0.0542609       0.0525474 
        3.84853       0.0537855       0.0520234 
        3.86424       0.0533415       0.0515077 
        3.87992       0.0527735       0.0509997 
        3.89561        0.052329       0.0504987 
        3.91134       0.0518708       0.0500034 
        3.92704       0.0514239       0.0495153 
        3.94273       0.0509435       0.0490344 
        3.95845       0.0505703       0.0485589 
        3.97418        0.050122       0.0480898 
        3.98988       0.0496094       0.0476275 
        4.00554       0.0491806       0.0471726 
        4.02125       0.0485554       0.0467224 
        4.03698       0.0478776       0.0462774 
        4.05268       0.0473617       0.0458392 
        4.06839       0.0467117       0.0454065 
         4.0841       0.0461149       0.0449795 
        4.09983       0.0454953       0.0445574 
        4.11555       0.0448408        0.044141 
        4.13124       0.0443292       0.0437311 
        4.14693       0.0436396        0.043326 
        4.16266       0.0432299       0.0429252 
        4.17839       0.0427558       0.0425298 
        4.19408       0.0422818       0.0421403 
        4.20977       0.0417358       0.0417555 
        4.22551       0.0411243       0.0413746 
        4.24123       0.0408102       0.0409989 
        4.25691       0.0402814        0.040629 
        4.27259       0.0399003       0.0402635 
        4.28831       0.0395192       0.0399018 
        4.30404       0.0391797       0.0395443 
        4.31974       0.0388355       0.0391919 
        4.33543       0.0385386       0.0388441 
        4.35116       0.0382015       0.0384997 
        4.36688        0.037873       0.0381596 
        4.38255       0.0375338       0.0378249 
        4.39825       0.0372826       0.0374936 
        4.41398        0.037182       0.0371656 
         4.4297       0.0369428       0.0368419 
        4.44541       0.0366517       0.0365221 
        4.46111       0.0364189       0.0362064 
        4.47683       0.0363145       0.0358942 
        4.49251        0.036001       0.0355864 
        4.50819        0.035792       0.0352823 
         4.5239       0.0356417       0.0349813 
        4.53962       0.0355533       0.0346835 
        4.55535       0.0354809       0.0343891 
        4.57106       0.0354118       0.0340985 
        4.58678       0.0351416       0.0338112 
         4.6025       0.0351854       0.0335272 
        4.61821       0.0351684       0.0332466 
        4.63391       0.0351452       0.0329695 
         4.6496       0.0350044       0.0326957 
        4.66532       0.0350706       0.0324247 
        4.68103       0.0350134       0.0321568 
        4.69673       0.0350489       0.0318923 
        4.71241       0.0350974        0.031631 
        4.72811       0.0350469       0.0313723 
        4.74384       0.0351572       0.0311161 
        4.75955       0.0352299       0.0308632 
        4.77525       0.0353259       0.0306132 
        4.79096       0.0353477       0.0303658 
        4.80669       0.0355307        0.030121 
         4.8224       0.0357334       0.0298792 
        4.83809       0.0358616       0.0296403 
        4.85379       0.0359485       0.0294039 
         4.8695       0.0361889       0.0291699 
        4.88521       0.0362658       0.0289385 
        4.90093       0.0366555       0.0287097 
        4.91663       0.0368518       0.0284836 
        4.93234       0.0368285       0.0282596 
        4.94807        0.037082        0.028038 
        4.96377       0.0375089       0.0278191 
        4.97943       0.0378872       0.0276031 
        4.99514        0.037971       0.0273888 
        5.01086       0.0384399       0.0271767 
        5.02654       0.0386163       0.0269674 
        5.04227       0.0389796       0.0267596 
          5.058       0.0393871        0.026554 
        5.07371       0.0395893       0.0263509 
        5.08942       0.0401278         0.02615 
        5.10513       0.0407162       0.0259512 
        5.12084       0.0409452       0.0257543 
        5.13656       0.0414078       0.0255595 
        5.15225       0.0420024       0.0253671 
        5.16796       0.0423691       0.0251764 
        5.18369       0.0428551       0.0249875 
         5.1994       0.0434515       0.0248009 
        5.21509       0.0439225       0.0246163 
        5.23079       0.0444176       0.0244335 
        5.24649       0.0450273       0.0242526 
        5.26217       0.0456867       0.0240737 
        5.27788       0.0462525       0.0238964 
        5.29359       0.0470238       0.0237209 
        5.30933       0.0475682       0.0235468 
        5.32504       0.0482476       0.0233749 
        5.34073       0.0490366       0.0232048 
        5.35646       0.0497974       0.0230361 
        5.37218       0.0504214       0.0228691 
        5.38789       0.0515962        0.022704 
        5.40357       0.0520804       0.0225407 
        5.41929        0.053015       0.0223787 
        5.43502       0.0536819       0.0222183 
         5.4507       0.0545258       0.0220598 
        5.46639       0.0556706       0.0219029 
        5.48212       0.0565356       0.0217472 
        5.49786       0.0575843       0.0215927 
        5.51353       0.0588012       0.0214406 
        5.52921       0.0595324       0.0212898 
        5.54495       0.0606729         0.02114 
        5.56066       0.0618579       0.0209918 
        5.57637        0.062661       0.0208451 
        5.59207       0.0641757       0.0206999 
        5.60778       0.0652642       0.0205561 
        5.62346       0.0665836       0.0204138 
        5.63916        0.067718       0.0202727 
        5.65487       0.0688684        0.020133 
         5.6706        0.069928       0.0199943 
        5.68633       0.0718594        0.019857 
        5.70203       0.0727582       0.0197212 
        5.71773       0.0744334       0.0195867 
        5.73344       0.0757108       0.0194535 
        5.74916        0.077593       0.0193213 
        5.76486       0.0790742       0.0191906 
        5.78054       0.0803851       0.0190613 
        5.79626       0.0820454       0.0189328 
          5.812       0.0839367       0.0188054 
         5.8277       0.0852197       0.0186795 
        5.84339       0.0870053       0.0185548 
        5.85911       0.0891057        0.018431 
        5.87484       0.0906139       0.0183084 
        5.89053       0.0928008       0.0181871 
        5.90623       0.0950437       0.0180669 
        5.92195       0.0971203       0.0179476 
        5.93767       0.0990988       0.0178294 
        5.95336        0.100827       0.0177125 
        5.96905        0.103637       0.0175967 
        5.98476        0.105481       0.0174818 
        6.00048        0.107109       0.0173679 
        6.01617        0.110144       0.0172551 
        6.03185        0.112333       0.0171435 
        6.04756        0.115041       0.0170326 
        6.06331        0.117032       0.0169225 
        6.07903        0.119611       0.0168135 
        6.09473        0.122585       0.0167057 
        6.11044        0.125534       0.0165987 
        6.12616        0.128247       0.0164927 
        6.14186        0.131353       0.0163877 
        6.15755        0.133817       0.0162836 
        6.17326        0.137227       0.0161803 
        6.18898         0.14011        0.016078 
        6.20467        0.143401       0.0159766 
        6.22036        0.145942       0.0158762 
         6.2361        0.149471       0.0157764 
         6.2518        0.152606       0.0156776 
        6.26748        0.155435       0.0155799 
        6.28319        0.159691       0.0154827 
        6.29893        0.163235       0.0153863 
        6.31463        0.166617       0.0152909 
        6.33033        0.169961       0.0151963 
        6.34604        0.175141       0.0151025 
        6.36177        0.177535       0.0150093 
        6.37747        0.182731       0.0149172 
