# k  (h/Mpc)    Pcb(k)  (Mpc/h)^3    Pcb_linear(k) (Mpc/h)^3   ShotnoiseSubtracted = true
      0.0200456         17539.4         17951.4 
      0.0350414         12500.4         13015.8 
      0.0492313          9675.9         9874.61 
      0.0637834         8493.55         8394.56 
      0.0800726         6475.42         6363.56 
       0.096163         4524.59         4656.88 
       0.111083         3808.31          3983.2 
       0.126058         3509.64         3512.94 
       0.142273         2923.06         2792.67 
       0.158546         2559.29         2264.34 
        0.17375          2111.2         2037.64 
       0.188953         2046.28         1813.36 
       0.204907         1894.48          1524.3 
       0.220756         1646.98         1319.55 
        0.23588         1478.59         1204.46 
         0.2514         1288.61         1083.34 
       0.267535         1275.95         947.938 
       0.283568         1161.51         847.574 
       0.299022         1097.88         777.812 
       0.314451         1046.23         708.718 
       0.330372         963.554         638.791 
       0.346141         907.251         583.278 
       0.361624         873.176         538.934 
       0.377134         812.144         496.644 
       0.392932         783.261         456.131 
       0.408854         762.555         421.388 
       0.424564         712.487         391.793 
       0.440253         700.816         364.236 
       0.455999         667.963         338.699 
       0.471626         638.992         316.249 
        0.48727          616.54         296.121 
       0.502856         600.084         277.606 
       0.518488         593.704         260.453 
       0.534347         555.298         244.694 
       0.550082         537.107         230.436 
       0.565732         537.746         217.337 
       0.581496         506.279          205.12 
       0.597222         499.387         193.922 
       0.612804         487.064         183.685 
       0.628434         471.226         174.161 
       0.644267         459.763         165.204 
       0.660051         445.365         156.904 
       0.675724         442.417         149.229 
       0.691403         428.396          142.07 
       0.707174         414.229         135.346 
       0.722871         410.464         129.091 
        0.73838          404.34         123.304 
       0.754018         392.858         117.833 
       0.769845         383.206         112.638 
        0.78569         380.669         107.757 
       0.801365         369.499         103.216 
       0.817031         358.895         98.9428 
       0.832809         356.558         94.8875 
       0.848511         347.484         91.0803 
       0.864097          340.45         87.5107 
       0.879701         336.023         84.1313 
       0.895507         330.694         80.8925 
       0.911279         320.083         77.8329 
        0.92691         318.448         74.9588 
       0.942635         311.165         72.2157 
       0.958396         305.205         69.6056 
       0.974128         300.163          67.131 
       0.989692         295.846         64.8026 
        1.00528         291.277         62.5826 
        1.02113         288.991         60.4331 
        1.03692          281.96         58.3939 
        1.05264         278.512         56.4594 
        1.06832         272.375         54.6167 
        1.08405         268.235         52.8523 
        1.09979         264.392         51.1659 
        1.11537         259.815         49.5708 
        1.13105         254.181          48.035 
        1.14679         253.296         46.5591 
        1.16256         248.414         45.1432 
        1.17828         244.389         43.7916 
        1.19395         240.458         42.5005 
         1.2097         239.909         41.2556 
        1.22537          233.87         40.0671 
          1.241         232.843         38.9296 
        1.25666         227.598          37.834 
        1.27241          224.94         36.7758 
        1.28819         221.849         35.7568 
        1.30392         217.516         34.7799 
        1.31957         217.658         33.8442 
        1.33529         212.836         32.9399 
        1.35108         208.661         32.0654 
        1.36674         207.862         31.2293 
         1.3824         205.109         30.4241 
        1.39811         203.978          29.645 
        1.41389          199.66         28.8904 
        1.42964         196.838         28.1637 
        1.44531         194.355         27.4658 
        1.46101         192.576         26.7904 
        1.47667         188.286         26.1399 
        1.49229         186.674          25.513 
        1.50793         184.023         24.9061 
        1.52367          182.59         24.3154 
        1.53953         179.236           23.74 
        1.55526         176.288          23.188 
        1.57092         175.191         22.6561 
        1.58662         172.515         22.1397 
        1.60235         170.271         21.6387 
        1.61809         168.842          21.153 
        1.63369         165.678         20.6867 
        1.64941         162.838         20.2313 
        1.66519         161.991         19.7881 
        1.68085         160.528         19.3615 
        1.69652         157.429         18.9475 
        1.71228         155.454         18.5433 
        1.72806         153.518         18.1507 
        1.74368         152.563         17.7736 
        1.75933         150.115         17.4065 
        1.77505         148.371         17.0482 
        1.79081         147.385         16.6995 
         1.8065         145.371          16.362 
        1.82218         142.637         16.0344 
        1.83797         141.462         15.7135 
        1.85367         139.863         15.4032 
        1.86928         137.862         15.1033 
        1.88497         135.513         14.8099 
        1.90073         134.438         14.5232 
        1.91647          132.71         14.2444 
        1.93218         131.094         13.9736 
        1.94787         129.671         13.7103 
        1.96363         127.932         13.4529 
        1.97935         125.811         13.2026 
        1.99499         124.686         12.9602 
        2.01064         123.272         12.7235 
         2.0264          121.63         12.4914 
        2.04216         120.599         12.2652 
        2.05781         119.243         12.0461 
        2.07353         118.155         11.8316 
        2.08928         115.787         11.6219 
        2.10499         114.265         11.4179 
        2.12065         113.472         11.2195 
        2.13633          112.58         11.0256 
        2.15211         110.657         10.8351 
        2.16785          109.03         10.6497 
        2.18349         108.051         10.4699 
        2.19916         107.052         10.2938 
        2.21489         105.823         10.1213 
        2.23063         104.121         9.95262 
         2.2463         103.076         9.78859 
        2.26194         102.549          9.6287 
        2.27765          100.76         9.47159 
        2.29341         100.013         9.31761 
        2.30914         98.5734          9.1674 
        2.32486         97.9165         9.02062 
        2.34061         96.5937         8.87684 
        2.35635         95.0175         8.73634 
        2.37203         93.8276         8.59941 
        2.38768         92.9737         8.46571 
        2.40339         92.1391          8.3344 
        2.41914         90.6016          8.2056 
        2.43483         89.9687         8.07999 
         2.4505         88.9052         7.95725 
        2.46622         87.7347         7.83666 
        2.48195         86.9426         7.71859 
        2.49759         86.0049          7.6036 
        2.51328         85.1061         7.49067 
        2.52906         83.9304         7.37934 
        2.54479         83.3536         7.27071 
        2.56049         82.3945         7.16449 
        2.57618         81.6364         7.06051 
        2.59189         80.4588         6.95845 
        2.60758         79.6757         6.85859 
        2.62325         78.8391         6.76083 
        2.63898         78.0136         6.66465 
        2.65468         76.9414         6.57055 
        2.67044         76.0997         6.47789 
        2.68618         75.5034         6.38724 
        2.70184         75.0285         6.29871 
        2.71755         74.2117         6.21164 
        2.73329         73.1899         6.12611 
        2.74897         72.5851         6.04247 
        2.76462         71.6647          5.9606 
        2.78034         70.7303         5.87992 
        2.79607         69.8315         5.80066 
        2.81179         69.3971         5.72296 
        2.82749         68.5981         5.64679 
        2.84321          67.855         5.57192 
        2.85893          67.096         5.49845 
        2.87462         66.4116         5.42645 
        2.89033         65.6396         5.35567 
        2.90605         64.8522         5.28611 
        2.92176         64.6526         5.21783 
        2.93747         63.9564          5.1508 
        2.95318         63.1238         5.08494 
        2.96891         62.3594         5.02021 
        2.98456         61.7799         4.95691 
        3.00023         60.9505         4.89461 
        3.01596         60.5649          4.8332 
        3.03164         59.8034         4.77303 
        3.04738         59.1626         4.71372 
         3.0631         58.6053         4.65544 
        3.07883         57.9021         4.59815 
        3.09456         57.6635         4.54184 
        3.11026         56.7229         4.48657 
        3.12596         56.3077         4.43224 
        3.14163         55.6728         4.37893 
        3.15734         55.3137         4.32639 
        3.17308         54.6802         4.27459 
        3.18879         54.2162         4.22378 
        3.20447          53.254         4.17388 
         3.2202          53.234         4.12464 
         3.2359         52.6016         4.07629 
        3.25157         52.1249         4.02883 
        3.26729         51.6414           3.982 
        3.28304         50.9604         3.93582 
        3.29877         50.5639         3.89044 
        3.31446         49.9066         3.84588 
        3.33014         49.6524         3.80206 
        3.34585          49.297         3.75886 
        3.36158         48.7324         3.71628 
        3.37727         48.1313         3.67449 
        3.39294         47.7161         3.63339 
        3.40867         47.1287         3.59278 
        3.42439          46.787         3.55281 
        3.44008         46.2212         3.51354 
        3.45578         45.7718         3.47483 
        3.47153         45.4084         3.43662 
        3.48724         45.1453         3.39907 
        3.50292         44.7237         3.36216 
        3.51859         44.0688         3.32583 
        3.53431         43.5996         3.28992 
        3.55007         43.2751         3.25446 
        3.56577         42.9111         3.21967 
        3.58146         42.3969          3.1854 
        3.59719         42.0317         3.15156 
        3.61292         41.7425         3.11822 
        3.62859         41.4574          3.0855 
        3.64429         40.9707         3.05319 
        3.66003         40.5474         3.02124 
        3.67578         40.1293         2.98977 
        3.69146         39.8098         2.95887 
        3.70712         39.5105         2.92846 
        3.72284         39.0562         2.89837 
        3.73853         38.7961         2.86876 
        3.75422         38.4703         2.83956 
        3.76993           38.12         2.81074 
        3.78564         37.7506         2.78233 
        3.80137         37.3584         2.75428 
        3.81707         36.9183         2.72667 
        3.83279         36.7432         2.69942 
        3.84853         36.4639          2.6725 
        3.86424         36.0033         2.64601 
        3.87992         35.7606         2.61992 
        3.89561         35.3875         2.59418 
        3.91134         35.1363         2.56873 
        3.92704         34.7915         2.54366 
        3.94273         34.3964         2.51895 
        3.95845         34.1048         2.49453 
        3.97418         33.9072         2.47043 
        3.98988         33.5504         2.44668 
        4.00554         33.2437         2.42331 
        4.02125         33.0611         2.40018 
        4.03698         32.6598         2.37732 
        4.05268         32.5379         2.35482 
        4.06839         32.1405         2.33258 
         4.0841          31.865         2.31065 
        4.09983         31.6003         2.28897 
        4.11555         31.3656         2.26758 
        4.13124           31.04         2.24652 
        4.14693         30.7871         2.22571 
        4.16266         30.5365         2.20512 
        4.17839         30.2221         2.18481 
        4.19408         30.0429          2.1648 
        4.20977         29.7329         2.14503 
        4.22551          29.534         2.12546 
        4.24123         29.2797         2.10617 
        4.25691         29.0229         2.08716 
        4.27259         28.7716         2.06839 
        4.28831         28.4852         2.04981 
        4.30404         28.2699         2.03144 
        4.31974           28.07         2.01334 
        4.33543         27.8047         1.99547 
        4.35116         27.6333         1.97778 
        4.36688         27.3128         1.96031 
        4.38255         27.1567         1.94311 
        4.39825         26.8969         1.92609 
        4.41398          26.652         1.90924 
         4.4297         26.4677         1.89261 
        4.44541         26.3178         1.87618 
        4.46111         26.0409         1.85997 
        4.47683          25.808         1.84393 
        4.49251         25.6017         1.82812 
        4.50819         25.3871         1.81249 
         4.5239         25.2071         1.79703 
        4.53962         25.0046         1.78174 
        4.55535          24.786         1.76661 
        4.57106         24.6262         1.75168 
        4.58678         24.4584         1.73692 
         4.6025         24.2341         1.72234 
        4.61821         24.0278         1.70792 
        4.63391         23.8062         1.69368 
         4.6496         23.7056         1.67962 
        4.66532         23.4474          1.6657 
        4.68103         23.2318         1.65194 
        4.69673           23.09         1.63835 
        4.71241         22.8627         1.62492 
        4.72811         22.6802         1.61163 
        4.74384         22.5126         1.59847 
        4.75955         22.3395         1.58548 
        4.77525         22.1819         1.57264 
        4.79096         22.0245         1.55993 
        4.80669         21.8578         1.54735 
         4.8224         21.6004         1.53493 
        4.83809         21.4938         1.52266 
        4.85379         21.3256         1.51051 
         4.8695         21.1544         1.49849 
        4.88521         21.0092         1.48661 
        4.90093         20.8435         1.47485 
        4.91663         20.6932         1.46324 
        4.93234         20.4922         1.45173 
        4.94807         20.3479         1.44035 
        4.96377         20.1961          1.4291 
        4.97943         20.0675         1.41801 
        4.99514         19.9202           1.407 
        5.01086          19.766          1.3961 
        5.02654         19.5966         1.38535 
        5.04227         19.4524         1.37467 
          5.058         19.2942         1.36411 
        5.07371         19.1982         1.35368 
        5.08942         19.0358         1.34336 
        5.10513         18.8845         1.33314 
        5.12084         18.7216         1.32303 
        5.13656         18.5577         1.31302 
        5.15225         18.4521         1.30314 
        5.16796         18.2864         1.29334 
        5.18369         18.2047         1.28364 
         5.1994         18.0497         1.27405 
        5.21509         17.8951         1.26457 
        5.23079         17.8052         1.25518 
        5.24649         17.6454         1.24589 
        5.26217          17.546          1.2367 
        5.27788         17.3999         1.22759 
        5.29359         17.2165         1.21857 
        5.30933         17.1406         1.20963 
        5.32504         16.9921          1.2008 
        5.34073         16.9009         1.19206 
        5.35646         16.7816         1.18339 
        5.37218         16.6238         1.17481 
        5.38789         16.4948         1.16633 
        5.40357         16.4078         1.15794 
        5.41929         16.2574         1.14962 
        5.43502         16.1443         1.14138 
         5.4507         16.0409         1.13324 
        5.46639         15.9108         1.12518 
        5.48212         15.8202         1.11718 
        5.49786         15.7458         1.10925 
        5.51353         15.5786         1.10143 
        5.52921         15.4845         1.09368 
        5.54495         15.3777         1.08599 
        5.56066         15.2614         1.07838 
        5.57637         15.1486         1.07084 
        5.59207         15.0175         1.06338 
        5.60778         14.9483         1.05599 
        5.62346         14.8291         1.04868 
        5.63916         14.7146         1.04143 
        5.65487         14.6153         1.03425 
         5.6706         14.5135         1.02713 
        5.68633         14.3902         1.02008 
        5.70203         14.3401          1.0131 
        5.71773         14.2042         1.00619 
        5.73344         14.1007        0.999348 
        5.74916         13.9898         0.99256 
        5.76486         13.9044        0.985844 
        5.78054         13.8221        0.979201 
        5.79626         13.6783        0.972601 
          5.812         13.6149        0.966056 
         5.8277          13.535         0.95959 
        5.84339         13.4242        0.953184 
        5.85911         13.3188        0.946825 
        5.87484         13.2501        0.940525 
        5.89053         13.1607        0.934296 
        5.90623         13.0479         0.92812 
        5.92195          12.986         0.92199 
        5.93767         12.9017         0.91592 
        5.95336         12.8082        0.909914 
        5.96905         12.7132        0.903965 
        5.98476         12.6374        0.898061 
        6.00048         12.5464        0.892208 
        6.01617          12.478        0.886415 
        6.03185         12.3604        0.880682 
        6.04756          12.264        0.874985 
        6.06331         12.2062        0.869328 
        6.07903         12.1403        0.863732 
        6.09473         12.0396        0.858191 
        6.11044         11.9868        0.852695 
        6.12616         11.8791        0.847248 
        6.14186         11.8005        0.841854 
        6.15755         11.7301        0.836507 
        6.17326         11.6581        0.831204 
        6.18898         11.5887        0.825944 
        6.20467         11.4857        0.820739 
        6.22036         11.4262         0.81558 
         6.2361         11.3397        0.810452 
         6.2518          11.267        0.805376 
        6.26748         11.2002        0.800356 
        6.28319         11.1159        0.795365 
        6.29893         11.0602        0.790412 
        6.31463         10.9748         0.78551 
        6.33033         10.9029        0.780652 
        6.34604         10.8311        0.775831 
        6.36177         10.7766        0.771047 
        6.37747         10.7104        0.766313 
