# k  (h/Mpc)    Pcb(k)  (Mpc/h)^3    Pcb_linear(k) (Mpc/h)^3   ShotnoiseSubtracted = true
      0.0200456         9330.19         9472.81 
      0.0350414         7043.97         6868.37 
      0.0492313         5164.66         5210.76 
      0.0637834         4267.38         4429.75 
      0.0800726         3240.91         3358.01 
       0.096163         2537.06          2457.4 
       0.111083         2180.71          2101.9 
       0.126058         1819.92         1853.75 
       0.142273         1494.27         1473.67 
       0.158546         1246.91         1194.88 
        0.17375          1131.7         1075.25 
       0.188953         1032.38         956.895 
       0.204907         858.887         804.363 
       0.220756         776.552         696.317 
        0.23588         703.274         635.583 
         0.2514         629.362          571.67 
       0.267535         601.316          500.22 
       0.283568         526.937         447.259 
       0.299022         503.977         410.446 
       0.314451         502.901         373.986 
       0.330372         432.391         337.086 
       0.346141          402.11         307.792 
       0.361624         383.544         284.392 
       0.377134         356.088         262.076 
       0.392932         346.708         240.697 
       0.408854         329.068         222.363 
       0.424564         317.008         206.746 
       0.440253         286.539         192.205 
       0.455999         273.294         178.729 
       0.471626          271.26         166.882 
        0.48727         258.909         156.261 
       0.502856         237.102         146.491 
       0.518488          237.26         137.439 
       0.534347         220.861         129.123 
       0.550082         216.011         121.599 
       0.565732         213.649         114.687 
       0.581496         199.622         108.241 
       0.597222         195.172         102.331 
       0.612804         189.453         96.9293 
       0.628434         183.264         91.9038 
       0.644267         174.894         87.1769 
       0.660051         170.676          82.797 
       0.675724          169.19         78.7473 
       0.691403         164.595         74.9691 
       0.707174         159.128         71.4212 
       0.722871         156.617         68.1203 
        0.73838         154.665         65.0665 
       0.754018          145.29         62.1794 
       0.769845         145.031         59.4385 
        0.78569         141.219         56.8624 
       0.801365         137.112         54.4662 
       0.817031         133.266         52.2115 
       0.832809          131.04         50.0715 
       0.848511         128.012         48.0625 
       0.864097          125.82         46.1788 
       0.879701         124.085         44.3955 
       0.895507         120.111         42.6864 
       0.911279         117.789         41.0719 
        0.92691         115.039         39.5552 
       0.942635          112.83         38.1077 
       0.958396         111.722         36.7304 
       0.974128         109.236         35.4245 
       0.989692         106.963         34.1959 
        1.00528         105.305         33.0244 
        1.02113         102.655         31.8901 
        1.03692         102.411         30.8141 
        1.05264         101.021         29.7932 
        1.06832         97.6116         28.8208 
        1.08405         96.9971         27.8898 
        1.09979         96.1685         26.9999 
        1.11537         93.5903         26.1582 
        1.13105         92.3302         25.3477 
        1.14679         90.7879         24.5689 
        1.16256         89.0581         23.8218 
        1.17828         88.1671         23.1085 
        1.19395         85.8177         22.4272 
         1.2097         85.9063         21.7703 
        1.22537         83.8999         21.1431 
          1.241         83.5963         20.5429 
        1.25666         80.7618         19.9647 
        1.27241         80.5167         19.4064 
        1.28819         79.7653         18.8686 
        1.30392         78.1569         18.3531 
        1.31957         77.6174         17.8594 
        1.33529          76.475         17.3822 
        1.35108         75.7505         16.9207 
        1.36674         74.6758         16.4795 
         1.3824         73.7541         16.0546 
        1.39811         72.1415         15.6435 
        1.41389           71.19         15.2453 
        1.42964         70.5206         14.8618 
        1.44531         69.7357         14.4935 
        1.46101         69.0245         14.1371 
        1.47667         68.0165         13.7938 
        1.49229         67.1874          13.463 
        1.50793         66.4009         13.1428 
        1.52367         65.8806          12.831 
        1.53953         64.7364         12.5274 
        1.55526         63.8101         12.2362 
        1.57092         63.6091         11.9555 
        1.58662         62.5759          11.683 
        1.60235         61.7619         11.4186 
        1.61809         60.8165         11.1623 
        1.63369         60.0835         10.9162 
        1.64941         59.7406         10.6759 
        1.66519         58.4483         10.4421 
        1.68085         58.2161         10.2169 
        1.69652          56.919         9.99844 
        1.71228         56.8535         9.78517 
        1.72806          56.021         9.57802 
        1.74368          55.286           9.379 
        1.75933          54.887          9.1853 
        1.77505         54.3895         8.99622 
        1.79081         53.6139         8.81219 
         1.8065         53.0232         8.63414 
        1.82218         51.6994         8.46122 
        1.83797         51.4714         8.29189 
        1.85367         51.0889         8.12819 
        1.86928          50.749         7.96993 
        1.88497         49.7356         7.81506 
        1.90073         49.1566         7.66377 
        1.91647         48.9819         7.51667 
        1.93218         48.7689         7.37378 
        1.94787         47.9157         7.23484 
        1.96363         47.0908         7.09898 
        1.97935         46.7971         6.96691 
        1.99499         46.1829         6.83898 
        2.01064         45.7142         6.71412 
         2.0264           45.45         6.59161 
        2.04216         44.7821         6.47225 
        2.05781         44.2266         6.35663 
        2.07353         43.5832         6.24344 
        2.08928         43.5717          6.1328 
        2.10499         43.0933         6.02515 
        2.12065         42.5216         5.92044 
        2.13633         42.2782         5.81814 
        2.15211         41.5114         5.71763 
        2.16785         40.9579          5.6198 
        2.18349         40.5855         5.52488 
        2.19916         40.1918         5.43199 
        2.21489         39.9012         5.34094 
        2.23063         39.4952         5.25193 
         2.2463         39.1874         5.16537 
        2.26194         38.5763           5.081 
        2.27765         38.1941         4.99809 
        2.29341         37.8464         4.91684 
        2.30914         37.4393         4.83758 
        2.32486         36.8825         4.76012 
        2.34061         36.7021         4.68425 
        2.35635         36.3373         4.61011 
        2.37203         36.0352         4.53785 
        2.38768          35.711          4.4673 
        2.40339         35.4252         4.39801 
        2.41914         35.0101         4.33004 
        2.43483          34.746         4.26376 
         2.4505          34.324         4.19899 
        2.46622         33.9377         4.13535 
        2.48195         33.7068         4.07305 
        2.49759         33.1502         4.01236 
        2.51328         32.9343         3.95277 
        2.52906          32.748         3.89403 
        2.54479         32.3398          3.8367 
        2.56049         32.2221         3.78065 
        2.57618         31.7532         3.72578 
        2.59189         31.3812         3.67193 
        2.60758         31.1793         3.61923 
        2.62325         30.8157         3.56764 
        2.63898         30.7063         3.51689 
        2.65468         30.2072         3.46724 
        2.67044          29.977         3.41834 
        2.68618           29.72          3.3705 
        2.70184         29.3676         3.32378 
        2.71755         29.1333         3.27784 
        2.73329         28.7968          3.2327 
        2.74897         28.5562         3.18857 
        2.76462         28.3551         3.14537 
        2.78034         27.9904         3.10279 
        2.79607          27.765         3.06097 
        2.81179         27.5128         3.01997 
        2.82749         27.2417         2.97977 
        2.84321         27.0115         2.94027 
        2.85893         26.8087          2.9015 
        2.87462         26.5452          2.8635 
        2.89033          26.325         2.82615 
        2.90605         25.9693         2.78944 
        2.92176         25.7383         2.75341 
        2.93747         25.5352         2.71804 
        2.95318         25.4119         2.68329 
        2.96891         25.1088         2.64913 
        2.98456          24.894         2.61573 
        3.00023         24.5473         2.58285 
        3.01596         24.2702         2.55045 
        3.03164         24.1296          2.5187 
        3.04738         23.9582          2.4874 
         3.0631         23.7246         2.45664 
        3.07883         23.4487         2.42641 
        3.09456          23.241          2.3967 
        3.11026         22.9966         2.36753 
        3.12596         22.7465         2.33886 
        3.14163         22.5715         2.31073 
        3.15734         22.4112         2.28301 
        3.17308         22.2225         2.25567 
        3.18879         21.9978         2.22886 
        3.20447         21.8532         2.20253 
         3.2202         21.5546         2.17655 
         3.2359         21.3876         2.15103 
        3.25157         21.1971         2.12599 
        3.26729         21.0375         2.10127 
        3.28304         20.8488          2.0769 
        3.29877         20.6728         2.05296 
        3.31446         20.4559         2.02944 
        3.33014         20.2303         2.00632 
        3.34585         20.1792         1.98353 
        3.36158         19.9007         1.96105 
        3.37727         19.7561           1.939 
        3.39294         19.6081         1.91732 
        3.40867         19.4256         1.89588 
        3.42439         19.2077         1.87479 
        3.44008         19.0455         1.85407 
        3.45578         18.8665         1.83364 
        3.47153         18.7245         1.81348 
        3.48724         18.5684         1.79366 
        3.50292         18.4144         1.77419 
        3.51859         18.2293         1.75502 
        3.53431         18.0687         1.73607 
        3.55007         17.8871         1.71736 
        3.56577         17.7887           1.699 
        3.58146         17.5985         1.68091 
        3.59719         17.4587         1.66306 
        3.61292         17.3101         1.64547 
        3.62859         17.1081          1.6282 
        3.64429         16.9907         1.61115 
        3.66003         16.8793         1.59429 
        3.67578         16.7774         1.57768 
        3.69146         16.5746         1.56137 
        3.70712         16.4293         1.54533 
        3.72284         16.2537         1.52945 
        3.73853         16.1984         1.51383 
        3.75422         15.9579         1.49841 
        3.76993         15.8677         1.48321 
        3.78564         15.7303         1.46822 
        3.80137         15.6022         1.45341 
        3.81707         15.4134         1.43884 
        3.83279         15.3713         1.42447 
        3.84853         15.1887         1.41026 
        3.86424         15.0317         1.39628 
        3.87992         14.9549         1.38251 
        3.89561         14.8298         1.36893 
        3.91134          14.707          1.3555 
        3.92704         14.5808         1.34227 
        3.94273         14.4603         1.32924 
        3.95845         14.3429         1.31635 
        3.97418         14.1784         1.30363 
        3.98988         14.0982          1.2911 
        4.00554          13.964         1.27877 
        4.02125         13.8563         1.26656 
        4.03698         13.7839          1.2545 
        4.05268         13.6256         1.24262 
        4.06839         13.4971         1.23089 
         4.0841         13.4035         1.21931 
        4.09983         13.2716         1.20787 
        4.11555         13.1684         1.19658 
        4.13124         13.0336         1.18547 
        4.14693         12.9637         1.17449 
        4.16266         12.8537         1.16363 
        4.17839         12.7377         1.15291 
        4.19408         12.6578         1.14235 
        4.20977         12.5338         1.13192 
        4.22551         12.4543         1.12159 
        4.24123         12.3573         1.11141 
        4.25691         12.2346         1.10138 
        4.27259         12.1289         1.09147 
        4.28831         12.0527         1.08167 
        4.30404         11.9621         1.07198 
        4.31974          11.855         1.06242 
        4.33543         11.7231         1.05299 
        4.35116          11.678         1.04366 
        4.36688         11.5512         1.03444 
        4.38255         11.4548         1.02537 
        4.39825          11.373         1.01638 
        4.41398         11.2956         1.00749 
         4.4297         11.1934        0.998718 
        4.44541         11.1379         0.99005 
        4.46111         11.0035        0.981492 
        4.47683         10.9085        0.973029 
        4.49251         10.8378        0.964685 
        4.50819         10.7653        0.956441 
         4.5239         10.6942        0.948282 
        4.53962         10.5731         0.94021 
        4.55535         10.5155        0.932228 
        4.57106         10.4357         0.92435 
        4.58678         10.3614        0.916563 
         4.6025         10.2772        0.908864 
        4.61821          10.205        0.901256 
        4.63391          10.107        0.893745 
         4.6496         10.0306        0.886324 
        4.66532         9.96325        0.878976 
        4.68103          9.8536        0.871715 
        4.69673         9.80121        0.864544 
        4.71241         9.71222        0.857461 
        4.72811          9.6508        0.850446 
        4.74384          9.5917        0.843502 
        4.75955         9.49891        0.836646 
        4.77525         9.43885        0.829871 
        4.79096         9.36343        0.823163 
        4.80669         9.28585        0.816526 
         4.8224         9.21251        0.809971 
        4.83809         9.14722        0.803495 
        4.85379           9.094        0.797087 
         4.8695         9.01842        0.790744 
        4.88521         8.93723        0.784473 
        4.90093         8.89294        0.778269 
        4.91663         8.81527        0.772139 
        4.93234         8.74693        0.766069 
        4.94807          8.6886         0.76006 
        4.96377         8.62678        0.754128 
        4.97943         8.55125        0.748272 
        4.99514         8.48845        0.742463 
        5.01086         8.42637        0.736712 
        5.02654         8.35725        0.731037 
        5.04227         8.28628        0.725406 
          5.058         8.23134        0.719832 
        5.07371         8.19944        0.714328 
        5.08942         8.10509         0.70888 
        5.10513         8.05603         0.70349 
        5.12084         7.98943        0.698153 
        5.13656         7.94276        0.692874 
        5.15225         7.86804        0.687658 
        5.16796         7.83039        0.682488 
        5.18369         7.77035        0.677366 
         5.1994         7.72283        0.672307 
        5.21509         7.65592        0.667305 
        5.23079         7.58516        0.662348 
        5.24649          7.5595        0.657445 
        5.26217         7.50086        0.652596 
        5.27788         7.43125         0.64779 
        5.29359         7.39765        0.643031 
        5.30933         7.31813        0.638313 
        5.32504         7.28209        0.633651 
        5.34073          7.2328        0.629041 
        5.35646         7.18227        0.624469 
        5.37218         7.14442        0.619941 
        5.38789         7.07461        0.615465 
        5.40357         7.02189        0.611039 
        5.41929         6.98673        0.606647 
        5.43502         6.93067        0.602299 
         5.4507         6.88166        0.598003 
        5.46639         6.82101        0.593749 
        5.48212         6.77933        0.589527 
        5.49786         6.74541        0.585341 
        5.51353         6.69836        0.581217 
        5.52921         6.64603        0.577129 
        5.54495         6.60555        0.573068 
        5.56066         6.55299        0.569051 
        5.57637          6.5149        0.565074 
        5.59207         6.45275        0.561138 
        5.60778         6.43374        0.557238 
        5.62346         6.37799        0.553382 
        5.63916         6.34135        0.549558 
        5.65487         6.28749        0.545769 
         5.6706         6.25266        0.542011 
        5.68633         6.20896        0.538288 
        5.70203         6.16985        0.534607 
        5.71773         6.12174        0.530962 
        5.73344         6.08264        0.527349 
        5.74916         6.04627        0.523767 
        5.76486         6.01118        0.520223 
        5.78054         5.95888        0.516717 
        5.79626         5.92205        0.513235 
          5.812         5.87339        0.509781 
         5.8277          5.8399        0.506369 
        5.84339         5.79894        0.502989 
        5.85911         5.76399        0.499633 
        5.87484         5.72575        0.496309 
        5.89053         5.67933        0.493021 
        5.90623         5.65798        0.489763 
        5.92195         5.62367        0.486528 
        5.93767         5.56599        0.483324 
        5.95336         5.54538        0.480155 
        5.96905         5.49651        0.477016 
        5.98476         5.46942          0.4739 
        6.00048         5.43278        0.470812 
        6.01617           5.396        0.467755 
        6.03185          5.3701         0.46473 
        6.04756         5.34121        0.461724 
        6.06331         5.29234        0.458738 
        6.07903         5.25546        0.455786 
        6.09473           5.218        0.452862 
        6.11044         5.18731        0.449961 
        6.12616         5.15681        0.447087 
        6.14186         5.11907         0.44424 
        6.15755         5.09125        0.441419 
        6.17326         5.06497         0.43862 
        6.18898         5.03066        0.435845 
        6.20467         4.99572        0.433098 
        6.22036         4.96415        0.430376 
         6.2361         4.93144         0.42767 
         6.2518         4.90465        0.424992 
        6.26748         4.87124        0.422342 
        6.28319         4.84862        0.419708 
        6.29893         4.80362        0.417095 
        6.31463         4.78553        0.414508 
        6.33033         4.75096        0.411945 
        6.34604         4.71922        0.409401 
        6.36177          4.6946        0.406876 
        6.37747         4.66548        0.404378 
