# k  (h/Mpc)    Pcb(k)  (Mpc/h)^3    Pcb_linear(k) (Mpc/h)^3   ShotnoiseSubtracted = true
      0.0200456         2901.93         2934.91 
      0.0350414         2091.43         2052.88 
      0.0492313         1493.33         1491.75 
      0.0637834         1199.71          1219.7 
      0.0800726         908.051         922.607 
       0.096163         681.617         664.892 
       0.111083         561.475          545.07 
       0.126058         472.892         475.569 
       0.142273         383.669         382.921 
       0.158546         310.272         303.048 
        0.17375         272.903         263.857 
       0.188953         243.433         235.459 
       0.204907         201.003         199.638 
       0.220756         176.636         168.855 
        0.23588          157.36         150.762 
         0.2514         141.441         136.037 
       0.267535         128.559         119.381 
       0.283568         112.171         104.846 
       0.299022         103.661         94.8445 
       0.314451         97.7543         86.5134 
       0.330372         85.9778         77.8861 
       0.346141         78.3154         70.2551 
       0.361624         72.2348         64.2948 
       0.377134         65.9768         59.1555 
       0.392932         63.3764         54.1729 
       0.408854           57.88         49.6287 
       0.424564         55.0847         45.8188 
       0.440253         50.1532          42.466 
       0.455999         45.6825         39.3437 
       0.471626         43.2466         36.5186 
        0.48727         41.8556         34.0106 
       0.502856         38.8927         31.7656 
       0.518488         36.4306         29.6938 
       0.534347         34.2084         27.7633 
       0.550082         32.8351         26.0293 
       0.565732         31.5021         24.4577 
       0.581496         29.4316              23 
       0.597222         27.8544         21.6576 
       0.612804         26.4858         20.4348 
       0.628434         25.9231         19.3061 
       0.644267         24.4571         18.2488 
       0.660051         23.2006         17.2724 
       0.675724         22.1075         16.3726 
       0.691403         21.6011         15.5357 
       0.707174         20.6634         14.7524 
       0.722871         19.9405         14.0258 
        0.73838         18.8803         13.3556 
       0.754018         17.8545         12.7239 
       0.769845         17.4008         12.1259 
        0.78569         16.8198         11.5656 
       0.801365           16.16         11.0461 
       0.817031          15.519         10.5586 
       0.832809          15.036         10.0973 
       0.848511         14.5369         9.66552 
       0.864097         14.0374          9.2618 
       0.879701         13.7748         8.88065 
       0.895507         13.2267         8.51635 
       0.911279         12.6762         8.17314 
        0.92691         12.3986         7.85158 
       0.942635         12.0597         7.54546 
       0.958396         11.6362         7.25493 
       0.974128          11.335         6.98015 
       0.989692         10.7907         6.72223 
        1.00528         10.7086         6.47689 
        1.02113         10.3223          6.2399 
        1.03692         10.0839         6.01559 
        1.05264          9.8315         5.80328 
        1.06832         9.59844         5.60149 
        1.08405         9.32331         5.40871 
        1.09979         9.07474         5.22485 
        1.11537          8.8243          5.0513 
        1.13105          8.6581         4.88457 
        1.14679         8.45297         4.72468 
        1.16256         8.25117          4.5716 
        1.17828         8.06058         4.42577 
        1.19395         7.89194         4.28675 
         1.2097         7.63467         4.15297 
        1.22537         7.49041         4.02552 
          1.241         7.28393         3.90376 
        1.25666         7.23841         3.78671 
        1.27241         7.07185         3.67389 
        1.28819         6.77748         3.56545 
        1.30392          6.7398         3.46167 
        1.31957         6.55381         3.36246 
        1.33529         6.45973         3.26676 
        1.35108         6.31493         3.17438 
        1.36674         6.15072         3.08621 
         1.3824         6.07033         3.00145 
        1.39811         5.95273         2.91957 
        1.41389         5.80457         2.84042 
        1.42964         5.71864         2.76431 
        1.44531         5.60453         2.69135 
        1.46101         5.54036         2.62085 
        1.47667         5.41276         2.55307 
        1.49229         5.25537         2.48786 
        1.50793         5.19622         2.42483 
        1.52367         5.09206         2.36357 
        1.53953         5.00563           2.304 
        1.55526         4.94533         2.24695 
        1.57092         4.84485         2.19205 
        1.58662         4.75884         2.13884 
        1.60235          4.6984         2.08729 
        1.61809         4.61858          2.0374 
        1.63369         4.52039         1.98957 
        1.64941         4.43983         1.94292 
        1.66519         4.38845         1.89759 
        1.68085         4.30447         1.85402 
        1.69652         4.25284          1.8118 
        1.71228         4.20612         1.77064 
        1.72806         4.11902         1.73072 
        1.74368          4.0667         1.69243 
        1.75933         3.99921          1.6552 
        1.77505         3.91851         1.61892 
        1.79081         3.88141         1.58365 
         1.8065         3.83979         1.54957 
        1.82218         3.77511         1.51652 
        1.83797         3.69675         1.48421 
        1.85367         3.64937           1.453 
        1.86928         3.61641         1.42287 
        1.88497         3.54603         1.39343 
        1.90073         3.50576         1.36471 
        1.91647         3.44166         1.33681 
        1.93218         3.40423         1.30975 
        1.94787         3.36158         1.28347 
        1.96363         3.32143         1.25781 
        1.97935         3.28173         1.23289 
        1.99499         3.23722         1.20878 
        2.01064         3.19372         1.18528 
         2.0264         3.15433         1.16225 
        2.04216         3.10847         1.13984 
        2.05781         3.07128         1.11816 
        2.07353         3.04307         1.09696 
        2.08928         2.98611         1.07626 
        2.10499         2.94968         1.05615 
        2.12065         2.94931          1.0366 
        2.13633         2.90223         1.01753 
        2.15211         2.84678        0.998815 
        2.16785         2.81448        0.980618 
        2.18349         2.79434        0.962984 
        2.19916         2.75973        0.945744 
        2.21489         2.73136        0.928865 
        2.23063         2.68912        0.912384 
         2.2463          2.6535        0.896374 
        2.26194          2.6223        0.880785 
        2.27765         2.57698        0.865483 
        2.29341         2.55557        0.850503 
        2.30914         2.52939        0.835906 
        2.32486         2.51243        0.821656 
        2.34061         2.48456        0.807713 
        2.35635         2.45497        0.794103 
        2.37203         2.44205        0.780851 
        2.38768          2.4162        0.767926 
        2.40339         2.37122        0.755245 
        2.41914         2.35236        0.742819 
        2.43483         2.32294        0.730714 
         2.4505         2.30108        0.718897 
        2.46622         2.27935        0.707299 
        2.48195         2.26375        0.695953 
        2.49759         2.22947        0.684915 
        2.51328         2.21395        0.674086 
        2.52906         2.18671        0.663421 
        2.54479          2.1672        0.653024 
        2.56049         2.14419        0.642868 
        2.57618         2.12382        0.632936 
        2.59189         2.11816        0.623196 
        2.60758         2.09492        0.613676 
        2.62325         2.05317        0.604364 
        2.63898         2.03895        0.595211 
        2.65468         2.01838        0.586266 
        2.67044         2.01349        0.577464 
        2.68618         1.99361        0.568862 
        2.70184         1.97141        0.560468 
        2.71755         1.94685        0.552222 
        2.73329         1.93037        0.544127 
        2.74897         1.91336        0.536219 
        2.76462         1.89467        0.528485 
        2.78034         1.88376         0.52087 
        2.79607         1.86313        0.513397 
        2.81179         1.84642        0.506076 
        2.82749         1.82589        0.498906 
        2.84321         1.81289        0.491866 
        2.85893         1.79121        0.484962 
        2.87462         1.78443        0.478202 
        2.89033         1.77191        0.471563 
        2.90605         1.75464        0.465043 
        2.92176         1.73408        0.458649 
        2.93747          1.7234        0.452377 
        2.95318          1.7071        0.446221 
        2.96891         1.69896        0.440175 
        2.98456         1.68295        0.434267 
        3.00023         1.67044        0.428458 
        3.01596         1.64979        0.422736 
        3.03164         1.63869        0.417134 
        3.04738         1.63072        0.411616 
         3.0631          1.6156          0.4062 
        3.07883         1.60319        0.400879 
        3.09456         1.58563        0.395654 
        3.11026         1.57625         0.39053 
        3.12596         1.56264        0.385495 
        3.14163          1.5564        0.380561 
        3.15734         1.53885          0.3757 
        3.17308         1.53017        0.370912 
        3.18879         1.52094         0.36622 
        3.20447         1.50256        0.361616 
         3.2202          1.4994        0.357075 
         3.2359         1.48698         0.35262 
        3.25157         1.47256         0.34825 
        3.26729         1.46003        0.343941 
        3.28304         1.45084        0.339696 
        3.29877         1.43632        0.335527 
        3.31446          1.4293        0.331437 
        3.33014         1.42115        0.327418 
        3.34585         1.40754        0.323459 
        3.36158         1.39591        0.319559 
        3.37727         1.39289        0.315735 
        3.39294          1.3798        0.311976 
        3.40867         1.37459        0.308264 
        3.42439         1.36099        0.304615 
        3.44008         1.34966        0.301031 
        3.45578          1.3409        0.297501 
        3.47153         1.33433         0.29402 
        3.48724         1.32361          0.2906 
        3.50292          1.3104        0.287243 
        3.51859         1.30759        0.283939 
        3.53431         1.29516        0.280676 
        3.55007         1.29122        0.277457 
        3.56577          1.2805          0.2743 
        3.58146         1.27221        0.271193 
        3.59719         1.26459        0.268127 
        3.61292         1.25612        0.265108 
        3.62859         1.24753        0.262148 
        3.64429         1.24069        0.259226 
        3.66003         1.23186        0.256339 
        3.67578         1.22324        0.253497 
        3.69146         1.21349        0.250709 
        3.70712         1.20801        0.247967 
        3.72284         1.19905        0.245256 
        3.73853         1.19107        0.242589 
        3.75422         1.18455        0.239961 
        3.76993         1.17633        0.237369 
        3.78564         1.16743        0.234817 
        3.80137         1.16099        0.232297 
        3.81707         1.15176        0.229819 
        3.83279         1.15217        0.227375 
        3.84853         1.14146        0.224962 
        3.86424          1.1325        0.222589 
        3.87992         1.12676        0.220253 
        3.89561         1.11863         0.21795 
        3.91134          1.1123        0.215676 
        3.92704          1.1058        0.213435 
        3.94273          1.1008        0.211229 
        3.95845         1.08983         0.20905 
        3.97418         1.08455          0.2069 
        3.98988         1.08054        0.204784 
        4.00554         1.07232        0.202702 
        4.02125         1.06504        0.200644 
        4.03698         1.05831         0.19861 
        4.05268         1.05052        0.196609 
        4.06839          1.0419        0.194634 
         4.0841          1.0359        0.192686 
        4.09983          1.0282        0.190762 
        4.11555         1.02132        0.188865 
        4.13124          1.0147        0.186999 
        4.14693         1.00676        0.185156 
        4.16266         1.00247        0.183333 
        4.17839        0.995405        0.181536 
        4.19408        0.988826        0.179767 
        4.20977        0.983249         0.17802 
        4.22551        0.977182        0.176292 
        4.24123        0.970035        0.174589 
        4.25691        0.963426        0.172913 
        4.27259        0.956451        0.171257 
        4.28831        0.954535         0.16962 
        4.30404        0.945419        0.168003 
        4.31974        0.939433         0.16641 
        4.33543        0.934552        0.164839 
        4.35116        0.928749        0.163284 
        4.36688        0.924031        0.161749 
        4.38255        0.920098        0.160239 
        4.39825        0.914028        0.158746 
        4.41398         0.90893        0.157268 
         4.4297        0.905197         0.15581 
        4.44541        0.897667        0.154372 
        4.46111         0.89256        0.152952 
        4.47683        0.890202        0.151548 
        4.49251        0.884249        0.150166 
        4.50819        0.880821          0.1488 
         4.5239        0.875692         0.14745 
        4.53962        0.869901        0.146114 
        4.55535        0.867818        0.144794 
        4.57106        0.861699        0.143492 
        4.58678        0.861257        0.142206 
         4.6025        0.855963        0.140935 
        4.61821        0.852989         0.13968 
        4.63391        0.849796        0.138441 
         4.6496        0.841419        0.137218 
        4.66532        0.842077        0.136008 
        4.68103        0.835887        0.134812 
        4.69673        0.833899        0.133632 
        4.71241        0.828521        0.132467 
        4.72811        0.827642        0.131314 
        4.74384        0.824695        0.130174 
        4.75955         0.82151        0.129048 
        4.77525        0.816232        0.127936 
        4.79096        0.812776        0.126836 
        4.80669        0.810204        0.125748 
         4.8224         0.80775        0.124674 
        4.83809        0.806709        0.123613 
        4.85379        0.803645        0.122564 
         4.8695        0.798213        0.121526 
        4.88521        0.796815        0.120501 
        4.90093        0.795478        0.119487 
        4.91663        0.792143        0.118486 
        4.93234        0.788395        0.117495 
        4.94807        0.784985        0.116514 
        4.96377         0.78426        0.115547 
        4.97943         0.78284        0.114592 
        4.99514        0.782568        0.113646 
        5.01086        0.776834        0.112709 
        5.02654        0.773998        0.111786 
        5.04227        0.771596        0.110869 
          5.058        0.772022        0.109963 
        5.07371        0.769033        0.109068 
        5.08942        0.766733        0.108184 
        5.10513        0.767368        0.107308 
        5.12084        0.763071        0.106442 
        5.13656        0.760918        0.105586 
        5.15225        0.757001         0.10474 
        5.16796        0.755976        0.103903 
        5.18369        0.756273        0.103073 
         5.1994        0.753949        0.102254 
        5.21509        0.750955        0.101445 
        5.23079        0.750361        0.100643 
        5.24649        0.748935       0.0998505 
        5.26217        0.747541        0.099067 
        5.27788        0.743996       0.0982907 
        5.29359        0.744584       0.0975225 
        5.30933        0.743761       0.0967614 
        5.32504        0.741334       0.0960096 
        5.34073        0.741255       0.0952665 
        5.35646        0.737527       0.0945297 
        5.37218        0.737165       0.0938005 
        5.38789        0.737789       0.0930801 
        5.40357        0.735138       0.0923681 
        5.41929        0.736047       0.0916618 
        5.43502        0.731767       0.0909628 
         5.4507        0.729816       0.0902726 
        5.46639        0.731669       0.0895895 
        5.48212        0.728442       0.0889118 
        5.49786        0.728226       0.0882402 
        5.51353        0.729119       0.0875788 
        5.52921        0.725046       0.0869234 
        5.54495         0.72502       0.0862728 
        5.56066         0.72571       0.0856295 
        5.57637        0.725527       0.0849928 
        5.59207        0.723676       0.0843631 
        5.60778        0.723792       0.0837394 
        5.62346        0.722949       0.0831229 
        5.63916        0.722276       0.0825119 
        5.65487        0.720561       0.0819067 
         5.6706        0.718936       0.0813068 
        5.68633        0.718548       0.0807126 
        5.70203        0.717342       0.0801255 
        5.71773        0.717126       0.0795444 
        5.73344        0.715754       0.0789686 
        5.74916        0.715606       0.0783979 
        5.76486        0.714862       0.0778337 
        5.78054        0.714912       0.0772757 
        5.79626        0.713823       0.0767217 
          5.812        0.712488       0.0761725 
         5.8277        0.712871       0.0756301 
        5.84339        0.713948       0.0750931 
        5.85911        0.710568       0.0745602 
        5.87484        0.711578       0.0740324 
        5.89053        0.708945       0.0735108 
        5.90623        0.709811        0.072994 
        5.92195        0.708449       0.0724811 
        5.93767        0.708755       0.0719735 
        5.95336        0.707582       0.0714714 
        5.96905        0.707806       0.0709744 
        5.98476        0.705778       0.0704813 
        6.00048        0.708029       0.0699926 
        6.01617        0.704839       0.0695093 
        6.03185        0.705033        0.069031 
        6.04756        0.706412       0.0685561 
        6.06331        0.704488       0.0680845 
        6.07903        0.704814       0.0676184 
        6.09473        0.704488        0.067157 
        6.11044        0.704578       0.0666994 
        6.12616        0.703071       0.0662462 
        6.14186        0.701839       0.0657976 
        6.15755        0.701667       0.0653531 
        6.17326        0.701256       0.0649123 
        6.18898        0.701321       0.0644754 
        6.20467        0.699278       0.0640432 
        6.22036        0.698473        0.063615 
         6.2361        0.699245       0.0631895 
         6.2518        0.699385       0.0627686 
        6.26748        0.697915       0.0623524 
        6.28319        0.698311       0.0619388 
        6.29893        0.695762       0.0615285 
        6.31463          0.6977       0.0611226 
        6.33033        0.696702       0.0607205 
        6.34604        0.696771       0.0603217 
        6.36177        0.696201        0.059926 
        6.37747        0.694671       0.0595346 
