# k  (h/Mpc)    Pcb(k)  (Mpc/h)^3    Pcb_linear(k) (Mpc/h)^3   ShotnoiseSubtracted = true
      0.0200456          8540.7         8676.53 
      0.0350414         5933.05         6068.98 
      0.0492313         4389.68          4410.1 
      0.0637834         3678.93         3605.83 
      0.0800726         2794.89         2727.52 
       0.096163         1943.95         1965.63 
       0.111083         1579.12          1611.4 
       0.126058         1431.24         1405.93 
       0.142273         1189.21         1132.04 
       0.158546         979.257         895.906 
        0.17375         805.029         780.045 
       0.188953         762.298          696.09 
       0.204907         695.908         590.193 
       0.220756         585.561         499.189 
        0.23588          518.14         445.701 
         0.2514          453.31         402.167 
       0.267535         428.439          352.93 
       0.283568         386.584         309.959 
       0.299022         358.904          280.39 
       0.314451         331.204         255.761 
       0.330372          304.43         230.256 
       0.346141         272.903         207.697 
       0.361624         261.139         190.076 
       0.377134         243.357         174.883 
       0.392932         225.003         160.152 
       0.408854         215.102         146.718 
       0.424564         205.402         135.455 
       0.440253         194.814         125.543 
       0.455999         182.659         116.313 
       0.471626         168.996         107.961 
        0.48727         163.405         100.546 
       0.502856         156.909         93.9092 
       0.518488         153.279         87.7844 
       0.534347         145.352         82.0771 
       0.550082         134.798          76.951 
       0.565732         130.474         72.3048 
       0.581496         124.588         67.9954 
       0.597222         120.572         64.0268 
       0.612804         115.216         60.4119 
       0.628434         112.071          57.075 
       0.644267          108.14         53.9493 
       0.660051         105.985         51.0628 
       0.675724         102.553         48.4026 
       0.691403         99.2007         45.9286 
       0.707174         95.1798         43.6127 
       0.722871         93.7438         41.4647 
        0.73838         91.6495         39.4834 
       0.754018         87.4125         37.6159 
       0.769845         85.5617         35.8481 
        0.78569          83.471         34.1917 
       0.801365         80.8075         32.6556 
       0.817031         77.8905         31.2146 
       0.832809         76.9281         29.8509 
       0.848511         74.1579         28.5743 
       0.864097         72.2434         27.3808 
       0.879701         71.0264          26.254 
       0.895507         69.6608          25.177 
       0.911279         68.2245         24.1624 
        0.92691         66.7306         23.2118 
       0.942635         64.5196         22.3068 
       0.958396         64.2667         21.4479 
       0.974128         62.5195         20.6355 
       0.989692         61.0918          19.873 
        1.00528         59.8043         19.1478 
        1.02113         58.7031         18.4471 
        1.03692         56.8457          17.784 
        1.05264         56.7186         17.1563 
        1.06832         54.9958         16.5598 
        1.08405         54.3237         15.9899 
        1.09979          53.858         15.4463 
        1.11537         51.7391         14.9333 
        1.13105          52.111         14.4403 
        1.14679         50.8492         13.9677 
        1.16256         50.0227         13.5151 
        1.17828         48.7454          13.084 
        1.19395         48.1966          12.673 
         1.2097         47.1702         12.2775 
        1.22537         47.1621         11.9007 
          1.241         45.8197         11.5408 
        1.25666         44.9085         11.1947 
        1.27241         44.4588         10.8612 
        1.28819         43.5082         10.5406 
        1.30392         42.8614         10.2338 
        1.31957          42.458         9.94051 
        1.33529         41.7472         9.65757 
        1.35108         41.4309         9.38447 
        1.36674         40.7871         9.12381 
         1.3824         39.7537         8.87323 
        1.39811           39.56         8.63118 
        1.41389         38.9394         8.39717 
        1.42964         38.2982         8.17219 
        1.44531         37.7437         7.95649 
        1.46101         37.0101         7.74808 
        1.47667         36.9414          7.5477 
        1.49229         36.4442          7.3549 
        1.50793         35.8536         7.16858 
        1.52367         35.2941         6.98747 
        1.53953         35.1076         6.81137 
        1.55526         34.4863          6.6427 
        1.57092         34.1183          6.4804 
        1.58662         33.6813         6.32311 
        1.60235         33.2766         6.17069 
        1.61809         32.7597          6.0232 
        1.63369         32.2998          5.8818 
        1.64941         31.8889          5.7439 
        1.66519         31.4292         5.60989 
        1.68085         31.2192         5.48109 
        1.69652         30.7494         5.35626 
        1.71228         30.5554         5.23459 
        1.72806         30.0878         5.11657 
        1.74368         29.6107         5.00335 
        1.75933         29.2963         4.89331 
        1.77505         29.1424         4.78604 
        1.79081         28.6473         4.68177 
         1.8065         28.3527         4.58103 
        1.82218         28.0943         4.48333 
        1.83797         27.6468         4.38779 
        1.85367         27.2908         4.29554 
        1.86928         27.1184         4.20647 
        1.88497         26.7782         4.11943 
        1.90073         26.5509         4.03451 
        1.91647         26.1983         3.95204 
        1.93218         26.0129         3.87204 
        1.94787         25.6285         3.79435 
        1.96363         25.4591         3.71848 
        1.97935         25.1141         3.64481 
        1.99499         24.8308         3.57355 
        2.01064         24.7007         3.50407 
         2.0264          24.236         3.43599 
        2.04216         24.0118         3.36974 
        2.05781         23.7203         3.30564 
        2.07353         23.5184         3.24297 
        2.08928         23.4862         3.18177 
        2.10499         23.1986         3.12231 
        2.12065         22.8013         3.06453 
        2.13633         22.7061         3.00815 
        2.15211         22.2871         2.95282 
        2.16785         22.1012         2.89902 
        2.18349         21.9199         2.84689 
        2.19916         21.7499         2.79592 
        2.21489         21.4386         2.74602 
        2.23063         21.2786          2.6973 
         2.2463         21.1076         2.64997 
        2.26194         20.9382         2.60388 
        2.27765         20.6593         2.55864 
        2.29341         20.4378         2.51436 
        2.30914          20.318          2.4712 
        2.32486         20.0484         2.42908 
        2.34061         19.9115         2.38786 
        2.35635         19.6708         2.34762 
        2.37203         19.5314         2.30844 
        2.38768         19.2783         2.27023 
        2.40339         19.1646         2.23275 
        2.41914         18.9599         2.19601 
        2.43483         18.7838         2.16022 
         2.4505         18.5906         2.12529 
        2.46622         18.3867           2.091 
        2.48195         18.2187         2.05746 
        2.49759         18.0109         2.02483 
        2.51328         17.8155         1.99281 
        2.52906         17.7561         1.96128 
        2.54479         17.5174         1.93055 
        2.56049          17.321         1.90052 
        2.57618         17.1533         1.87116 
        2.59189         17.0888         1.84237 
        2.60758         16.9125         1.81422 
        2.62325         16.7486         1.78669 
        2.63898         16.6377         1.75963 
        2.65468         16.4308         1.73319 
        2.67044         16.2944         1.70717 
        2.68618         16.1182         1.68174 
        2.70184         16.0373         1.65692 
        2.71755         15.8755         1.63254 
        2.73329          15.703         1.60861 
        2.74897         15.5079         1.58524 
        2.76462         15.5111         1.56237 
        2.78034         15.2946         1.53986 
        2.79607         15.1904         1.51776 
        2.81179         15.0405         1.49612 
        2.82749         14.8987         1.47493 
        2.84321         14.8284         1.45411 
        2.85893         14.6318          1.4337 
        2.87462          14.493         1.41372 
        2.89033         14.3858         1.39409 
        2.90605         14.3082         1.37482 
        2.92176         14.0812         1.35591 
        2.93747         14.0361         1.33737 
        2.95318         13.8687         1.31917 
        2.96891         13.7715          1.3013 
        2.98456         13.6521         1.28383 
        3.00023         13.4799         1.26666 
        3.01596         13.4662         1.24974 
        3.03164         13.3229         1.23318 
        3.04738           13.14         1.21687 
         3.0631         13.0358         1.20086 
        3.07883         12.9166         1.18513 
        3.09456         12.8266         1.16968 
        3.11026         12.7338         1.15453 
        3.12596         12.5954         1.13965 
        3.14163          12.509         1.12506 
        3.15734         12.3778         1.11069 
        3.17308         12.2936         1.09654 
        3.18879         12.1846         1.08266 
        3.20447         12.0944         1.06905 
         3.2202         11.9492         1.05563 
         3.2359         11.8934         1.04246 
        3.25157         11.7855         1.02954 
        3.26729          11.675          1.0168 
        3.28304         11.5808         1.00425 
        3.29877         11.4673        0.991926 
        3.31446         11.3656        0.979834 
        3.33014         11.2734        0.967952 
        3.34585         11.1811        0.956247 
        3.36158         11.1119        0.944717 
        3.37727         10.9717        0.933412 
        3.39294         10.8945          0.9223 
        3.40867         10.8142        0.911328 
        3.42439          10.725        0.900538 
        3.44008         10.6533        0.889943 
        3.45578         10.5714        0.879509 
        3.47153         10.5046        0.869217 
        3.48724         10.3812        0.859107 
        3.50292         10.3039         0.84918 
        3.51859          10.229        0.839413 
        3.53431         10.1456        0.829768 
        3.55007         10.0596         0.82025 
        3.56577         9.97976        0.810918 
        3.58146         9.93737        0.801733 
        3.59719         9.81835        0.792668 
        3.61292         9.73045        0.783745 
        3.62859          9.6384        0.774992 
        3.64429          9.5956        0.766354 
        3.66003         9.49099        0.757821 
        3.67578         9.42482        0.749419 
        3.69146         9.34218        0.741176 
        3.70712         9.28376         0.73307 
        3.72284         9.19855        0.725054 
        3.73853         9.09521        0.717172 
        3.75422         9.07963        0.709402 
        3.76993         9.01074         0.70174 
        3.78564         8.90616        0.694193 
        3.80137         8.84404        0.686744 
        3.81707         8.78325        0.679418 
        3.83279         8.69576        0.672193 
        3.84853         8.62345         0.66506 
        3.86424          8.5478        0.658044 
        3.87992         8.48633        0.651138 
        3.89561         8.42584        0.644331 
        3.91134         8.35778        0.637606 
        3.92704         8.28159        0.630983 
        3.94273         8.23585        0.624461 
        3.95845          8.1716        0.618018 
        3.97418         8.09759        0.611664 
        3.98988         8.03691        0.605406 
        4.00554         7.98292        0.599253 
        4.02125         7.89842        0.593167 
        4.03698         7.85648        0.587155 
        4.05268         7.79952        0.581239 
        4.06839         7.72498          0.5754 
         4.0841          7.6797        0.569642 
        4.09983         7.61355        0.563954 
        4.11555         7.55194        0.558346 
        4.13124         7.49344        0.552828 
        4.14693         7.42657         0.54738 
        4.16266         7.39372        0.541992 
        4.17839         7.31623        0.536678 
        4.19408         7.27365        0.531448 
        4.20977         7.21312        0.526284 
        4.22551         7.15796        0.521176 
        4.24123         7.09616         0.51614 
        4.25691          7.0518        0.511185 
        4.27259         6.96671        0.506292 
        4.28831         6.92015        0.501452 
        4.30404         6.89021        0.496671 
        4.31974         6.83791        0.491962 
        4.33543         6.77143        0.487316 
        4.35116         6.71538        0.482718 
        4.36688         6.66342        0.478181 
        4.38255         6.62147        0.473719 
        4.39825         6.55221        0.469303 
        4.41398         6.53055        0.464934 
         4.4297         6.46968        0.460625 
        4.44541         6.43275        0.456371 
        4.46111          6.3773        0.452174 
        4.47683         6.32745        0.448026 
        4.49251         6.27599        0.443937 
        4.50819         6.22902        0.439901 
         4.5239         6.18633        0.435908 
        4.53962         6.14424        0.431959 
        4.55535         6.08767        0.428057 
        4.57106         6.05777        0.424209 
        4.58678         6.01099        0.420406 
         4.6025         5.95902        0.416649 
        4.61821         5.90876        0.412938 
        4.63391         5.88912        0.409277 
         4.6496         5.83415         0.40566 
        4.66532          5.8035        0.402082 
        4.68103         5.73257        0.398548 
        4.69673         5.70398         0.39506 
        4.71241         5.66384        0.391616 
        4.72811         5.60136        0.388207 
        4.74384         5.58387        0.384835 
        4.75955          5.5301        0.381507 
        4.77525         5.50325        0.378219 
        4.79096         5.45416        0.374967 
        4.80669         5.42431         0.37175 
         4.8224         5.38061        0.368575 
        4.83809         5.33964         0.36544 
        4.85379         5.29912        0.362339 
         4.8695         5.26959        0.359271 
        4.88521         5.23001        0.356239 
        4.90093         5.17423        0.353242 
        4.91663         5.15355        0.350282 
        4.93234         5.12406        0.347352 
        4.94807         5.08678        0.344453 
        4.96377         5.05715        0.341593 
        4.97943         5.00039        0.338771 
        4.99514         4.96375        0.335973 
        5.01086         4.94032        0.333204 
        5.02654          4.9107        0.330474 
        5.04227         4.87126        0.327765 
          5.058         4.83756        0.325086 
        5.07371          4.8107        0.322441 
        5.08942         4.76818        0.319825 
        5.10513         4.74322        0.317238 
        5.12084         4.70942        0.314678 
        5.13656         4.67607        0.312146 
        5.15225         4.65564        0.309646 
        5.16796         4.61531        0.307169 
        5.18369         4.58415        0.304717 
         5.1994         4.55705        0.302296 
        5.21509         4.52167        0.299903 
        5.23079         4.49249        0.297533 
        5.24649         4.46129         0.29519 
        5.26217         4.44038        0.292873 
        5.27788         4.40759        0.290579 
        5.29359         4.37292        0.288308 
        5.30933         4.34874        0.286057 
        5.32504         4.31498        0.283835 
        5.34073         4.28355        0.281638 
        5.35646         4.25331         0.27946 
        5.37218         4.22543        0.277304 
        5.38789         4.20733        0.275175 
        5.40357         4.17498        0.273069 
        5.41929         4.14283        0.270981 
        5.43502         4.11561        0.268915 
         5.4507         4.09343        0.266875 
        5.46639         4.05881        0.264855 
        5.48212          4.0289        0.262851 
        5.49786         4.01589        0.260866 
        5.51353         3.98434        0.258911 
        5.52921         3.95742        0.256973 
        5.54495         3.94136         0.25505 
        5.56066         3.90756        0.253148 
        5.57637          3.8797        0.251266 
        5.59207         3.85902        0.249404 
        5.60778         3.83978         0.24756 
        5.62346         3.81563        0.245738 
        5.63916         3.78281        0.243931 
        5.65487         3.75891        0.242142 
         5.6706         3.74023        0.240369 
        5.68633         3.71179        0.238612 
        5.70203         3.68735        0.236877 
        5.71773         3.66551        0.235158 
        5.73344         3.64917        0.233456 
        5.74916         3.62224        0.231769 
        5.76486         3.60658        0.230101 
        5.78054         3.57573        0.228452 
        5.79626         3.55309        0.226814 
          5.812          3.5381         0.22519 
         5.8277         3.50434        0.223587 
        5.84339         3.49207        0.221999 
        5.85911         3.47362        0.220424 
        5.87484         3.45152        0.218863 
        5.89053         3.42592        0.217321 
        5.90623         3.41243        0.215793 
        5.92195         3.38247        0.214277 
        5.93767         3.36637        0.212776 
        5.95336         3.34709        0.211292 
        5.96905         3.31804        0.209823 
        5.98476         3.30018        0.208365 
        6.00048         3.28195        0.206921 
        6.01617          3.2638        0.205492 
        6.03185         3.24694        0.204078 
        6.04756         3.22599        0.202674 
        6.06331          3.2035         0.20128 
        6.07903         3.18192        0.199901 
        6.09473         3.16947        0.198537 
        6.11044         3.14515        0.197185 
        6.12616         3.13437        0.195845 
        6.14186         3.11329        0.194519 
        6.15755         3.09499        0.193205 
        6.17326         3.07393        0.191902 
        6.18898         3.05847         0.19061 
        6.20467         3.04529        0.189332 
        6.22036          3.0226        0.188066 
         6.2361         3.00725        0.186808 
         6.2518         2.98611        0.185564 
        6.26748         2.97579        0.184333 
        6.28319         2.95123        0.183111 
        6.29893         2.93551        0.181898 
        6.31463         2.91429        0.180698 
        6.33033         2.90545        0.179509 
        6.34604         2.88344         0.17833 
        6.36177         2.87036         0.17716 
        6.37747         2.85254        0.176003 
