# k  (h/Mpc)    Pcb(k)  (Mpc/h)^3    Pcb_linear(k) (Mpc/h)^3   ShotnoiseSubtracted = true
      0.0200456         842.241         852.619 
      0.0350414         594.926         596.382 
      0.0492313         434.707         433.369 
      0.0637834         356.778         354.335 
      0.0800726         270.638         268.026 
       0.096163         193.043         193.157 
       0.111083         157.127         158.348 
       0.126058         138.499         138.157 
       0.142273         112.638         111.242 
       0.158546         89.4051         88.0382 
        0.17375         76.3956         76.6529 
       0.188953         68.9133         68.4029 
       0.204907         60.1471         57.9967 
       0.220756         50.2033         49.0539 
        0.23588         44.6108         43.7978 
         0.2514         39.8985         39.5199 
       0.267535         35.3793         34.6814 
       0.283568         31.2476         30.4588 
       0.299022         28.4113         27.5532 
       0.314451         25.4233         25.1329 
       0.330372         23.1842         22.6266 
       0.346141         20.9331         20.4098 
       0.361624          19.268         18.6782 
       0.377134          17.906         17.1852 
       0.392932         15.8876         15.7377 
       0.408854         15.0344         14.4176 
       0.424564         13.8512         13.3108 
       0.440253         12.7959         12.3368 
       0.455999         11.9673         11.4297 
       0.471626         11.1881          10.609 
        0.48727         10.3996         9.88039 
       0.502856         9.66907          9.2282 
       0.518488         9.18784         8.62633 
       0.534347         8.71061         8.06549 
       0.550082         7.95228         7.56176 
       0.565732         7.33498          7.1052 
       0.581496         7.12367         6.68172 
       0.597222         6.77915         6.29174 
       0.612804         6.31243         5.93651 
       0.628434         6.05989          5.6086 
       0.644267         5.73979         5.30145 
       0.660051         5.39597          5.0178 
       0.675724         5.12121         4.75639 
       0.691403         4.92094         4.51328 
       0.707174         4.64642          4.2857 
       0.722871         4.42682         4.07463 
        0.73838         4.24149         3.87993 
       0.754018         4.09207         3.69641 
       0.769845         3.86502          3.5227 
        0.78569         3.71455         3.35992 
       0.801365         3.53897         3.20898 
       0.817031         3.40688         3.06737 
       0.832809         3.27035         2.93336 
       0.848511         3.09192         2.80792 
       0.864097         2.96331         2.69064 
       0.879701         2.85473         2.57991 
       0.895507         2.73268         2.47408 
       0.911279         2.67424         2.37437 
        0.92691         2.56258         2.28096 
       0.942635         2.44882         2.19203 
       0.958396         2.35109         2.10762 
       0.974128         2.27649          2.0278 
       0.989692         2.21765         1.95287 
        1.00528         2.11597          1.8816 
        1.02113         2.03224         1.81275 
        1.03692         1.98922         1.74758 
        1.05264          1.9118         1.68591 
        1.06832         1.85932         1.62728 
        1.08405         1.76574         1.57128 
        1.09979         1.72513         1.51787 
        1.11537         1.67398         1.46745 
        1.13105         1.62717         1.41901 
        1.14679         1.58035         1.37256 
        1.16256         1.51715         1.32809 
        1.17828         1.47827         1.28573 
        1.19395         1.43536         1.24534 
         1.2097         1.37046         1.20648 
        1.22537         1.34019         1.16945 
          1.241         1.30724         1.13408 
        1.25666         1.29092         1.10008 
        1.27241         1.22636          1.0673 
        1.28819         1.19745          1.0358 
        1.30392         1.17223         1.00565 
        1.31957          1.1408        0.976827 
        1.33529         1.10334        0.949023 
        1.35108         1.07505        0.922186 
        1.36674         1.03663        0.896572 
         1.3824         1.01543        0.871948 
        1.39811        0.987301        0.848162 
        1.41389         0.96751        0.825167 
        1.42964        0.943365        0.803058 
        1.44531        0.916212        0.781863 
        1.46101        0.896636        0.761382 
        1.47667        0.861892        0.741692 
        1.49229        0.854138        0.722746 
        1.50793        0.827971        0.704436 
        1.52367          0.8113        0.686639 
        1.53953        0.784797        0.669334 
        1.55526        0.768768         0.65276 
        1.57092        0.750087        0.636811 
        1.58662         0.73585        0.621354 
        1.60235        0.716457        0.606377 
        1.61809        0.696374        0.591883 
        1.63369        0.691461        0.577988 
        1.64941        0.668492        0.564437 
        1.66519        0.654752        0.551269 
        1.68085        0.635246        0.538611 
        1.69652        0.623117        0.526345 
        1.71228        0.613482        0.514388 
        1.72806        0.594073        0.502791 
        1.74368        0.587045        0.491666 
        1.75933        0.570839        0.480852 
        1.77505        0.560187        0.470311 
        1.79081        0.548718        0.460065 
         1.8065         0.53294        0.450166 
        1.82218        0.526304        0.440565 
        1.83797        0.514999        0.431176 
        1.85367        0.509099         0.42211 
        1.86928        0.496537        0.413358 
        1.88497        0.483773        0.404805 
        1.90073        0.472468         0.39646 
        1.91647        0.467907        0.388357 
        1.93218        0.456519        0.380495 
        1.94787        0.447402        0.372861 
        1.96363        0.437407        0.365404 
        1.97935        0.429063        0.358166 
        1.99499        0.421402        0.351163 
        2.01064         0.41252        0.344335 
         2.0264        0.404909        0.337645 
        2.04216        0.398975        0.331135 
        2.05781        0.390334        0.324836 
        2.07353        0.382189        0.318677 
        2.08928        0.373453        0.312664 
        2.10499        0.369342         0.30682 
        2.12065        0.364485        0.301143 
        2.13633        0.356975        0.295603 
        2.15211         0.34958        0.290165 
        2.16785        0.342161        0.284879 
        2.18349        0.336654        0.279756 
        2.19916        0.331408        0.274747 
        2.21489        0.324535        0.269844 
        2.23063        0.319225        0.265056 
         2.2463        0.315182        0.260405 
        2.26194         0.30566        0.255876 
        2.27765        0.302183        0.251431 
        2.29341        0.298456        0.247079 
        2.30914        0.294653        0.242838 
        2.32486         0.28819        0.238699 
        2.34061        0.283203        0.234648 
        2.35635        0.276968        0.230694 
        2.37203        0.273278        0.226844 
        2.38768        0.269034         0.22309 
        2.40339        0.265273        0.219406 
        2.41914        0.261302        0.215796 
        2.43483        0.256427        0.212279 
         2.4505        0.251386        0.208846 
        2.46622        0.248101        0.205477 
        2.48195        0.245068        0.202181 
        2.49759        0.240624        0.198974 
        2.51328        0.235906        0.195828 
        2.52906        0.233097         0.19273 
        2.54479        0.228718         0.18971 
        2.56049        0.224857        0.186759 
        2.57618        0.221875        0.183874 
        2.59189        0.219105        0.181044 
        2.60758        0.216191        0.178278 
        2.62325        0.212066        0.175573 
        2.63898         0.20928        0.172914 
        2.65468        0.205649        0.170316 
        2.67044        0.202585        0.167759 
        2.68618        0.199348         0.16526 
        2.70184        0.196724        0.162821 
        2.71755        0.193294        0.160426 
        2.73329        0.190913        0.158074 
        2.74897        0.188466        0.155777 
        2.76462        0.185602         0.15353 
        2.78034        0.182889        0.151318 
        2.79607        0.180225        0.149146 
        2.81179        0.178124         0.14702 
        2.82749        0.175129        0.144937 
        2.84321         0.17321        0.142892 
        2.85893        0.170584        0.140886 
        2.87462        0.167702        0.138922 
        2.89033        0.165676        0.136993 
        2.90605        0.163757        0.135099 
        2.92176        0.161219        0.133242 
        2.93747        0.158974         0.13142 
        2.95318          0.1572        0.129631 
        2.96891        0.155004        0.127875 
        2.98456        0.152716        0.126159 
        3.00023         0.15121        0.124471 
        3.01596         0.14894        0.122809 
        3.03164        0.147417        0.121181 
        3.04738        0.144566        0.119578 
         3.0631        0.143471        0.118005 
        3.07883        0.140901        0.116459 
        3.09456        0.139537        0.114941 
        3.11026        0.138111        0.113452 
        3.12596        0.135704         0.11199 
        3.14163        0.134382        0.110556 
        3.15734        0.133157        0.109144 
        3.17308        0.131352        0.107754 
        3.18879        0.130063         0.10639 
        3.20447        0.127547        0.105053 
         3.2202         0.12665        0.103734 
         3.2359        0.125142        0.102439 
        3.25157        0.123694         0.10117 
        3.26729        0.121994       0.0999181 
        3.28304        0.121197       0.0986849 
        3.29877        0.119508       0.0974738 
        3.31446        0.118175       0.0962856 
        3.33014        0.116966        0.095118 
        3.34585         0.11638       0.0939678 
        3.36158        0.114575       0.0928348 
        3.37727        0.113526       0.0917238 
        3.39294        0.111981       0.0906319 
        3.40867        0.110686       0.0895537 
        3.42439        0.109834       0.0884934 
        3.44008        0.108262       0.0874523 
        3.45578        0.107763       0.0864269 
        3.47153        0.106291       0.0854156 
        3.48724        0.105477       0.0844221 
        3.50292        0.104416       0.0834466 
        3.51859        0.102993       0.0824869 
        3.53431        0.101963       0.0815391 
        3.55007        0.101342       0.0806038 
        3.56577       0.0999217       0.0796866 
        3.58146       0.0991093       0.0787841 
        3.59719       0.0983155       0.0778933 
        3.61292       0.0975557       0.0770165 
        3.62859       0.0963935       0.0761563 
        3.64429       0.0954351       0.0753075 
        3.66003       0.0948729        0.074469 
        3.67578       0.0937583       0.0736434 
        3.69146       0.0928433       0.0728333 
        3.70712       0.0923036       0.0720368 
        3.72284       0.0913936       0.0712491 
        3.73853        0.090782       0.0704745 
        3.75422       0.0900914        0.069711 
        3.76993       0.0890716        0.068958 
        3.78564       0.0881649       0.0682164 
        3.80137       0.0875558       0.0674844 
        3.81707       0.0868118       0.0667646 
        3.83279       0.0861744       0.0660546 
        3.84853       0.0851976       0.0653536 
        3.86424       0.0845133       0.0646642 
        3.87992       0.0839021       0.0639856 
        3.89561       0.0830803       0.0633166 
        3.91134       0.0826868       0.0626557 
        3.92704       0.0817368        0.062005 
        3.94273       0.0808265       0.0613641 
        3.95845       0.0801225       0.0607309 
        3.97418       0.0798074       0.0601065 
        3.98988       0.0786546       0.0594916 
        4.00554         0.07824        0.058887 
        4.02125       0.0772827       0.0582889 
        4.03698       0.0763088       0.0576981 
        4.05268       0.0754759       0.0571168 
        4.06839       0.0744813        0.056543 
         4.0841       0.0734055       0.0559772 
        4.09983       0.0725564       0.0554183 
        4.11555       0.0715058       0.0548671 
        4.13124       0.0704416       0.0543249 
        4.14693       0.0699796       0.0537895 
        4.16266       0.0690001         0.05326 
        4.17839       0.0682868       0.0527379 
        4.19408       0.0674653       0.0522239 
        4.20977       0.0667894       0.0517165 
        4.22551        0.066151       0.0512145 
        4.24123       0.0653549       0.0507197 
        4.25691       0.0647144       0.0502327 
        4.27259       0.0640956       0.0497519 
        4.28831       0.0634315       0.0492763 
        4.30404       0.0628573       0.0488065 
        4.31974       0.0626054       0.0483437 
        4.33543        0.061917       0.0478872 
        4.35116       0.0613348       0.0474354 
        4.36688       0.0608106       0.0469895 
        4.38255        0.060189        0.046551 
        4.39825       0.0600443       0.0461171 
        4.41398       0.0596567       0.0456878 
         4.4297       0.0592419       0.0452644 
        4.44541       0.0589931       0.0448464 
        4.46111       0.0585509       0.0444339 
        4.47683       0.0581573       0.0440262 
        4.49251       0.0578842       0.0436245 
        4.50819       0.0575643       0.0432278 
         4.5239       0.0573746       0.0428355 
        4.53962       0.0571542       0.0424475 
        4.55535        0.056978        0.042064 
        4.57106        0.056665       0.0416858 
        4.58678       0.0564423       0.0413122 
         4.6025       0.0565463        0.040943 
        4.61821       0.0565022       0.0405783 
        4.63391       0.0563801       0.0402185 
         4.6496       0.0561851       0.0398631 
        4.66532        0.056135       0.0395115 
        4.68103       0.0561714       0.0391642 
        4.69673       0.0559408       0.0388214 
        4.71241       0.0560784        0.038483 
        4.72811       0.0560382       0.0381481 
        4.74384       0.0561471       0.0378166 
        4.75955       0.0564834       0.0374896 
        4.77525       0.0565747       0.0371666 
        4.79096       0.0564204        0.036847 
        4.80669       0.0565465       0.0365309 
         4.8224       0.0568816       0.0362189 
        4.83809       0.0569072       0.0359108 
        4.85379       0.0570887        0.035606 
         4.8695       0.0572909       0.0353046 
        4.88521       0.0577128       0.0350067 
        4.90093       0.0578712       0.0347121 
        4.91663       0.0580916       0.0344212 
        4.93234       0.0584212       0.0341333 
        4.94807       0.0589828       0.0338485 
        4.96377       0.0593233       0.0335674 
        4.97943       0.0598195       0.0332901 
        4.99514       0.0598848       0.0330152 
        5.01086       0.0606184       0.0327431 
        5.02654       0.0608501       0.0324747 
        5.04227       0.0614351       0.0322086 
          5.058        0.062006       0.0319453 
        5.07371       0.0625802       0.0316854 
        5.08942       0.0630425       0.0314283 
        5.10513       0.0636708       0.0311741 
        5.12084        0.064047       0.0309225 
        5.13656       0.0646465       0.0306737 
        5.15225       0.0658288        0.030428 
        5.16796       0.0664045       0.0301847 
        5.18369       0.0668404       0.0299437 
         5.1994       0.0680326       0.0297058 
        5.21509       0.0685603       0.0294706 
        5.23079       0.0695741       0.0292377 
        5.24649        0.070398       0.0290075 
        5.26217       0.0713942       0.0287799 
        5.27788       0.0721481       0.0285544 
        5.29359       0.0730148       0.0283312 
        5.30933       0.0740254       0.0281101 
        5.32504       0.0751918       0.0278917 
        5.34073       0.0760303       0.0276758 
        5.35646       0.0770696       0.0274618 
        5.37218       0.0783968       0.0272499 
        5.38789       0.0793944       0.0270406 
        5.40357       0.0803561       0.0268338 
        5.41929        0.081954       0.0266286 
        5.43502       0.0831337       0.0264255 
         5.4507       0.0844532        0.026225 
        5.46639       0.0856741       0.0260266 
        5.48212       0.0870569       0.0258297 
        5.49786       0.0886171       0.0256346 
        5.51353       0.0900223       0.0254425 
        5.52921        0.091175       0.0252521 
        5.54495       0.0931977       0.0250631 
        5.56066       0.0946539       0.0248762 
        5.57637       0.0964188       0.0246912 
        5.59207        0.098382       0.0245083 
        5.60778        0.100044       0.0243271 
        5.62346        0.102136        0.024148 
        5.63916        0.103472       0.0239705 
        5.65487        0.105279       0.0237946 
         5.6706        0.107396       0.0236204 
        5.68633        0.108771       0.0234478 
        5.70203        0.111047       0.0232772 
        5.71773        0.113366       0.0231084 
        5.73344        0.114883       0.0229411 
        5.74916        0.117869       0.0227753 
        5.76486        0.119779       0.0226114 
        5.78054        0.122003       0.0224493 
        5.79626        0.124142       0.0222884 
          5.812        0.126573       0.0221288 
         5.8277        0.129233       0.0219713 
        5.84339        0.131439       0.0218152 
        5.85911        0.134625       0.0216604 
        5.87484        0.136694       0.0215071 
        5.89053        0.140215       0.0213556 
        5.90623        0.142594       0.0212054 
        5.92195        0.144921       0.0210564 
        5.93767        0.147424        0.020909 
        5.95336        0.151786       0.0207631 
        5.96905        0.153464       0.0206187 
        5.98476        0.156014       0.0204755 
        6.00048        0.159712       0.0203335 
        6.01617        0.163019       0.0201931 
        6.03185        0.166061       0.0200541 
        6.04756        0.169927       0.0199162 
        6.06331        0.172005       0.0197792 
        6.07903        0.175892       0.0196438 
        6.09473        0.179453       0.0195097 
        6.11044         0.18315       0.0193768 
        6.12616         0.18574       0.0192451 
        6.14186        0.189604       0.0191148 
        6.15755        0.192763       0.0189857 
        6.17326        0.197842       0.0188576 
        6.18898        0.200898       0.0187307 
        6.20467        0.205475       0.0186052 
        6.22036        0.208108       0.0184808 
         6.2361        0.212034       0.0183571 
         6.2518        0.217189       0.0182349 
        6.26748        0.219166       0.0181139 
        6.28319        0.224792       0.0179938 
        6.29893        0.229639       0.0178746 
        6.31463        0.233972       0.0177567 
        6.33033        0.237927       0.0176399 
        6.34604          0.2407        0.017524 
        6.36177        0.246127       0.0174091 
        6.37747        0.250774       0.0172954 
