# k  (h/Mpc)    Pcb(k)  (Mpc/h)^3    Pcb_linear(k) (Mpc/h)^3   ShotnoiseSubtracted = true
      0.0200456         6454.71         6551.59 
      0.0350414         4498.78         4582.64 
      0.0492313         3321.95         3330.04 
      0.0637834         2772.87         2722.74 
      0.0800726         2106.27         2059.53 
       0.096163         1470.55         1484.23 
       0.111083         1194.11         1216.76 
       0.126058         1078.22         1061.61 
       0.142273         892.484         854.793 
       0.158546         727.238         676.492 
        0.17375         601.957         589.007 
       0.188953         564.964         525.613 
       0.204907         512.746         445.651 
       0.220756         429.231         376.934 
        0.23588         379.729         336.546 
         0.2514         333.653         303.674 
       0.267535         310.958         266.495 
       0.283568         279.948         234.048 
       0.299022         258.706         211.721 
       0.314451         235.924         193.123 
       0.330372          217.06         173.865 
       0.346141         194.428          156.83 
       0.361624         184.691         143.525 
       0.377134         172.841         132.053 
       0.392932         157.055          120.93 
       0.408854         150.231         110.786 
       0.424564         143.578         102.281 
       0.440253         134.517         94.7966 
       0.455999         126.063         87.8267 
       0.471626         116.433         81.5204 
        0.48727         112.459         75.9216 
       0.502856         107.289         70.9102 
       0.518488         103.761         66.2854 
       0.534347         99.0786         61.9759 
       0.550082         91.2535         58.1051 
       0.565732         87.2954         54.5969 
       0.581496         83.9396         51.3428 
       0.597222         80.9906         48.3462 
       0.612804         76.7928         45.6166 
       0.628434         74.8457         43.0969 
       0.644267         72.2802         40.7367 
       0.660051          70.102         38.5572 
       0.675724         67.2034         36.5484 
       0.691403         65.0722         34.6804 
       0.707174         62.7361         32.9316 
       0.722871         61.0711         31.3097 
        0.73838         59.5626         29.8137 
       0.754018          56.537         28.4035 
       0.769845         55.2876         27.0687 
        0.78569         53.8201         25.8179 
       0.801365         51.8542          24.658 
       0.817031         50.3225         23.5699 
       0.832809         49.5685         22.5402 
       0.848511          47.201         21.5763 
       0.864097         46.1205         20.6751 
       0.879701         45.2362         19.8242 
       0.895507         44.5553          19.011 
       0.911279         43.2702         18.2448 
        0.92691         42.2562          17.527 
       0.942635         40.6411         16.8437 
       0.958396         40.4364         16.1951 
       0.974128         39.2729         15.5817 
       0.989692         38.5754          15.006 
        1.00528         37.7016         14.4583 
        1.02113         36.5761         13.9293 
        1.03692         35.6959         13.4286 
        1.05264         35.3776         12.9546 
        1.06832         34.2918         12.5042 
        1.08405         33.8187         12.0738 
        1.09979         33.2477         11.6634 
        1.11537          32.059          11.276 
        1.13105         32.1645         10.9038 
        1.14679         31.5301         10.5469 
        1.16256         30.6885         10.2052 
        1.17828         30.0618         9.87962 
        1.19395         29.5234          9.5693 
         1.2097         29.1797         9.27066 
        1.22537         28.8522         8.98614 
          1.241         28.0665         8.71435 
        1.25666         27.4224         8.45306 
        1.27241         27.1476         8.20121 
        1.28819         26.4107         7.95913 
        1.30392         26.1088         7.72747 
        1.31957         25.9242         7.50601 
        1.33529         25.6261         7.29237 
        1.35108         25.0739         7.08614 
        1.36674         24.6196         6.88932 
         1.3824         24.0841         6.70011 
        1.39811         23.9695         6.51734 
        1.41389         23.6218         6.34065 
        1.42964         23.1259         6.17076 
        1.44531         22.9826         6.00789 
        1.46101         22.4049         5.85052 
        1.47667         22.2264         5.69921 
        1.49229         21.9927         5.55363 
        1.50793          21.666         5.41294 
        1.52367         21.3931         5.27619 
        1.53953         21.2156         5.14321 
        1.55526          20.774         5.01585 
        1.57092         20.4739          4.8933 
        1.58662         20.2406         4.77453 
        1.60235         20.0104         4.65945 
        1.61809          19.743         4.54807 
        1.63369          19.523          4.4413 
        1.64941         19.1506         4.33718 
        1.66519         19.0373         4.23599 
        1.68085         18.7327         4.13873 
        1.69652         18.5052         4.04447 
        1.71228         18.3611          3.9526 
        1.72806         18.0593         3.86349 
        1.74368         17.8092         3.77799 
        1.75933         17.6373          3.6949 
        1.77505         17.4934          3.6139 
        1.79081         17.2278         3.53517 
         1.8065         17.1147         3.45911 
        1.82218         16.8659         3.38533 
        1.83797          16.572         3.31319 
        1.85367         16.4417         3.24353 
        1.86928         16.2857         3.17628 
        1.88497         16.0277         3.11055 
        1.90073         16.0342         3.04643 
        1.91647         15.7455         2.98416 
        1.93218         15.5923         2.92375 
        1.94787         15.4692         2.86509 
        1.96363         15.3266         2.80779 
        1.97935         15.1552         2.75217 
        1.99499         14.9355         2.69836 
        2.01064          14.844          2.6459 
         2.0264         14.5982         2.59449 
        2.04216         14.4772         2.54447 
        2.05781         14.2771         2.49607 
        2.07353         14.1627         2.44874 
        2.08928         14.0476         2.40253 
        2.10499         13.8786         2.35763 
        2.12065         13.6446           2.314 
        2.13633         13.6332         2.27143 
        2.15211         13.4065         2.22965 
        2.16785         13.3427         2.18903 
        2.18349         13.2187         2.14966 
        2.19916         13.0681         2.11118 
        2.21489          12.941          2.0735 
        2.23063         12.8177         2.03671 
         2.2463         12.6718         2.00097 
        2.26194         12.5759         1.96617 
        2.27765         12.4617         1.93201 
        2.29341         12.3065         1.89857 
        2.30914         12.1873         1.86599 
        2.32486         12.1337         1.83418 
        2.34061         11.9864         1.80305 
        2.35635         11.8396         1.77267 
        2.37203         11.7641         1.74309 
        2.38768         11.6488         1.71424 
        2.40339         11.4876         1.68593 
        2.41914         11.4103         1.65819 
        2.43483          11.336         1.63117 
         2.4505         11.1867         1.60479 
        2.46622         11.1112          1.5789 
        2.48195         11.0152         1.55357 
        2.49759         10.9093         1.52893 
        2.51328         10.7979         1.50476 
        2.52906         10.7139         1.48095 
        2.54479         10.5998         1.45774 
        2.56049         10.5637         1.43507 
        2.57618         10.4701          1.4129 
        2.59189         10.3171         1.39116 
        2.60758         10.2674         1.36991 
        2.62325          10.213         1.34912 
        2.63898         10.0623         1.32869 
        2.65468         9.99324         1.30872 
        2.67044          9.8831         1.28907 
        2.68618         9.80334         1.26987 
        2.70184         9.71822         1.25113 
        2.71755         9.63105         1.23272 
        2.73329          9.5317         1.21465 
        2.74897         9.46611           1.197 
        2.76462         9.43377         1.17974 
        2.78034         9.26703         1.16274 
        2.79607         9.23163         1.14605 
        2.81179         9.13015         1.12971 
        2.82749         9.08987         1.11371 
        2.84321         8.98597         1.09799 
        2.85893         8.92279         1.08258 
        2.87462           8.863         1.06749 
        2.89033         8.74796         1.05267 
        2.90605         8.66461         1.03811 
        2.92176         8.64442         1.02384 
        2.93747         8.57141         1.00984 
        2.95318         8.47357        0.996096 
        2.96891         8.41317          0.9826 
        2.98456         8.33475        0.969412 
        3.00023         8.29124        0.956444 
        3.01596         8.20968        0.943671 
        3.03164         8.17415        0.931166 
        3.04738         8.08368        0.918849 
         3.0631         8.01223        0.906757 
        3.07883          7.9528        0.894881 
        3.09456         7.90534        0.883217 
        3.11026         7.80417        0.871777 
        3.12596         7.78798        0.860539 
        3.14163         7.69014        0.849524 
        3.15734         7.63629        0.838674 
        3.17308         7.59075        0.827986 
        3.18879         7.54101        0.817512 
        3.20447         7.45231        0.807232 
         3.2202         7.40309        0.797097 
         3.2359         7.35676        0.787151 
        3.25157         7.30046        0.777398 
        3.26729         7.25357        0.767778 
        3.28304         7.16676        0.758302 
        3.29877         7.10913        0.748996 
        3.31446         7.06772        0.739865 
        3.33014         7.00187        0.730894 
        3.34585         6.98984        0.722056 
        3.36158         6.92301        0.713349 
        3.37727         6.85876        0.704813 
        3.39294         6.82568        0.696422 
        3.40867         6.72729        0.688137 
        3.42439         6.70357         0.67999 
        3.44008         6.65679         0.67199 
        3.45578         6.59692        0.664111 
        3.47153         6.56899         0.65634 
        3.48724         6.50904        0.648706 
        3.50292         6.46495         0.64121 
        3.51859         6.41817        0.633835 
        3.53431         6.36622        0.626552 
        3.55007         6.32393        0.619365 
        3.56577         6.27752        0.612318 
        3.58146         6.23549        0.605383 
        3.59719         6.18324        0.598538 
        3.61292         6.14675          0.5918 
        3.62859         6.09615        0.585191 
        3.64429         6.04094        0.578668 
        3.66003         5.98515        0.572225 
        3.67578         5.94962        0.565881 
        3.69146         5.91298        0.559656 
        3.70712         5.88933        0.553536 
        3.72284         5.81444        0.547483 
        3.73853         5.78679        0.541531 
        3.75422         5.74668        0.535664 
        3.76993         5.71323        0.529879 
        3.78564         5.65122         0.52418 
        3.80137         5.62919        0.518555 
        3.81707         5.58346        0.513024 
        3.83279          5.5669        0.507568 
        3.84853         5.50783        0.502182 
        3.86424          5.4575        0.496884 
        3.87992         5.42132         0.49167 
        3.89561         5.37846        0.486529 
        3.91134         5.34295        0.481451 
        3.92704         5.31303        0.476451 
        3.94273          5.2722        0.471526 
        3.95845          5.2344        0.466661 
        3.97418         5.20086        0.461863 
        3.98988         5.16935        0.457138 
        4.00554         5.13008        0.452492 
        4.02125         5.07893        0.447896 
        4.03698         5.04795        0.443357 
        4.05268         5.02238         0.43889 
        4.06839         4.98379        0.434481 
         4.0841         4.94975        0.430133 
        4.09983          4.9135        0.425838 
        4.11555         4.88157        0.421603 
        4.13124         4.86609        0.417437 
        4.14693         4.79408        0.413322 
        4.16266         4.76485        0.409254 
        4.17839         4.72553        0.405242 
        4.19408         4.69128        0.401293 
        4.20977         4.66672        0.397393 
        4.22551         4.63023        0.393536 
        4.24123         4.59191        0.389734 
        4.25691         4.56404        0.385992 
        4.27259         4.54213        0.382297 
        4.28831         4.50461        0.378643 
        4.30404         4.45883        0.375033 
        4.31974         4.44011        0.371477 
        4.33543         4.41271        0.367969 
        4.35116         4.37361        0.364497 
        4.36688         4.34053        0.361071 
        4.38255         4.30947        0.357702 
        4.39825         4.28864        0.354367 
        4.41398         4.25805        0.351069 
         4.4297         4.22872        0.347815 
        4.44541         4.20098        0.344603 
        4.46111         4.18326        0.341433 
        4.47683         4.13385        0.338301 
        4.49251         4.11296        0.335214 
        4.50819         4.08131        0.332166 
         4.5239         4.05905        0.329151 
        4.53962         4.03937         0.32617 
        4.55535         4.00255        0.323223 
        4.57106         3.98098        0.320317 
        4.58678         3.96104        0.317446 
         4.6025         3.92555        0.314609 
        4.61821          3.9002        0.311807 
        4.63391         3.88146        0.309042 
         4.6496         3.84889        0.306311 
        4.66532         3.82795        0.303609 
        4.68103         3.79412        0.300941 
        4.69673         3.77503        0.298307 
        4.71241         3.75128        0.295706 
        4.72811         3.73149        0.293133 
        4.74384          3.7041        0.290586 
        4.75955         3.67165        0.288073 
        4.77525         3.64789        0.285591 
        4.79096         3.62311        0.283135 
        4.80669         3.60274        0.280706 
         4.8224         3.58784        0.278308 
        4.83809         3.56041        0.275941 
        4.85379         3.53849        0.273599 
         4.8695         3.51329        0.271283 
        4.88521         3.49406        0.268994 
        4.90093         3.47164        0.266731 
        4.91663         3.44765        0.264495 
        4.93234         3.42621        0.262283 
        4.94807         3.40679        0.260094 
        4.96377         3.38381        0.257935 
        4.97943         3.36475        0.255804 
        4.99514         3.34037        0.253691 
        5.01086         3.31991          0.2516 
        5.02654         3.30306        0.249538 
        5.04227         3.27899        0.247493 
          5.058         3.25588         0.24547 
        5.07371         3.23519        0.243473 
        5.08942         3.21594        0.241498 
        5.10513         3.20146        0.239544 
        5.12084         3.18282        0.237611 
        5.13656         3.16422        0.235699 
        5.15225         3.14783        0.233811 
        5.16796         3.12186        0.231941 
        5.18369         3.10619         0.23009 
         5.1994         3.08296        0.228261 
        5.21509         3.07162        0.226454 
        5.23079         3.05236        0.224665 
        5.24649         3.02754        0.222896 
        5.26217         3.01281        0.221147 
        5.27788         2.98876        0.219414 
        5.29359         2.97617        0.217699 
        5.30933         2.96098           0.216 
        5.32504         2.94476        0.214322 
        5.34073         2.92224        0.212663 
        5.35646         2.90823        0.211018 
        5.37218         2.88523         0.20939 
        5.38789         2.87646        0.207782 
        5.40357         2.85046        0.206193 
        5.41929         2.83779        0.204616 
        5.43502         2.82132        0.203056 
         5.4507         2.80673        0.201515 
        5.46639         2.78653         0.19999 
        5.48212          2.7767        0.198477 
        5.49786         2.75777        0.196978 
        5.51353         2.74291        0.195502 
        5.52921         2.72035        0.194039 
        5.54495         2.70542        0.192586 
        5.56066         2.69481         0.19115 
        5.57637         2.68238        0.189729 
        5.59207         2.66487        0.188323 
        5.60778          2.6464        0.186931 
        5.62346          2.6309        0.185555 
        5.63916         2.62008        0.184191 
        5.65487         2.60554         0.18284 
         5.6706         2.58846        0.181501 
        5.68633         2.57109        0.180174 
        5.70203         2.55624        0.178864 
        5.71773         2.54674        0.177566 
        5.73344         2.53197        0.176281 
        5.74916         2.51897        0.175007 
        5.76486         2.50124        0.173748 
        5.78054         2.48488        0.172502 
        5.79626         2.47507        0.171265 
          5.812         2.46301        0.170039 
         5.8277         2.45054        0.168829 
        5.84339         2.43427         0.16763 
        5.85911         2.42305         0.16644 
        5.87484         2.41351        0.165262 
        5.89053         2.38964        0.164098 
        5.90623         2.38316        0.162944 
        5.92195         2.36686        0.161799 
        5.93767          2.3577        0.160666 
        5.95336         2.34549        0.159545 
        5.96905         2.33341        0.158436 
        5.98476         2.32002        0.157335 
        6.00048         2.31075        0.156244 
        6.01617         2.29152        0.155165 
        6.03185         2.28089        0.154098 
        6.04756         2.27131        0.153037 
        6.06331         2.25471        0.151985 
        6.07903         2.24438        0.150944 
        6.09473          2.2358        0.149914 
        6.11044         2.22216        0.148893 
        6.12616          2.2063        0.147881 
        6.14186         2.20109         0.14688 
        6.15755         2.19085        0.145887 
        6.17326         2.17602        0.144903 
        6.18898         2.16436        0.143928 
        6.20467         2.15427        0.142963 
        6.22036         2.14013        0.142007 
         6.2361         2.13267        0.141058 
         6.2518         2.11914        0.140118 
        6.26748          2.1097        0.139189 
        6.28319         2.09764        0.138266 
        6.29893         2.08904         0.13735 
        6.31463         2.07781        0.136444 
        6.33033         2.06891        0.135546 
        6.34604         2.05629        0.134656 
        6.36177         2.04688        0.133773 
        6.37747         2.03772        0.132899 
