# k  (h/Mpc)    Pcb(k)  (Mpc/h)^3    Pcb_linear(k) (Mpc/h)^3   ShotnoiseSubtracted = true
      0.0200456         2533.67         2567.18 
      0.0350414         1779.98         1795.67 
      0.0492313         1306.83         1304.84 
      0.0637834         1079.95         1066.88 
      0.0800726         819.773         807.008 
       0.096163         578.937         581.583 
       0.111083         470.451         476.775 
       0.126058          419.35         415.982 
       0.142273         343.481         334.943 
       0.158546         274.501         265.077 
        0.17375         231.525         230.797 
       0.188953         212.138         205.957 
       0.204907         188.644         174.624 
       0.220756         156.921         147.698 
        0.23588         139.115         131.872 
         0.2514         123.577         118.992 
       0.267535          111.46         104.423 
       0.283568         99.2393         91.7093 
       0.299022         90.8371         82.9608 
       0.314451         81.1647         75.6736 
       0.330372          74.548         68.1273 
       0.346141         67.1726         61.4524 
       0.361624         62.4524         56.2389 
       0.377134         58.5324         51.7436 
       0.392932         51.6728         47.3852 
       0.408854         49.4776         43.4104 
       0.424564          46.436         40.0779 
       0.440253           42.73         37.1452 
       0.455999         40.0583         34.4141 
       0.471626         37.3934          31.943 
        0.48727         35.4398         29.7492 
       0.502856         33.1718         27.7855 
       0.518488         31.5799         25.9733 
       0.534347         30.2089         24.2847 
       0.550082         27.5052          22.768 
       0.565732         25.5809         21.3933 
       0.581496         24.9704         20.1182 
       0.597222         24.0323          18.944 
       0.612804         22.3553         17.8744 
       0.628434         21.5068         16.8871 
       0.644267         20.8319         15.9623 
       0.660051         19.6671         15.1083 
       0.675724         18.6012         14.3212 
       0.691403         17.9786         13.5892 
       0.707174         17.2411          12.904 
       0.722871         16.5261         12.2684 
        0.73838         15.8524         11.6822 
       0.754018         15.2485         11.1296 
       0.769845         14.6524         10.6066 
        0.78569         14.1456         10.1165 
       0.801365         13.5667         9.66203 
       0.817031         13.1386         9.23564 
       0.832809         12.8249         8.83216 
       0.848511         12.0233         8.45447 
       0.864097         11.7447         8.10134 
       0.879701         11.3776         7.76794 
       0.895507         10.9027         7.44928 
       0.911279         10.6633         7.14907 
        0.92691         10.3271         6.86781 
       0.942635         9.86577         6.60004 
       0.958396         9.60074         6.34592 
       0.974128          9.3193         6.10556 
       0.989692         9.19263         5.87996 
        1.00528         8.88335         5.66537 
        1.02113          8.5005         5.45807 
        1.03692         8.29313         5.26186 
        1.05264         8.10036         5.07615 
        1.06832         7.87717         4.89964 
        1.08405          7.6016         4.73102 
        1.09979         7.42192         4.57019 
        1.11537         7.28156          4.4184 
        1.13105         7.07004         4.27255 
        1.14679         6.93405          4.1327 
        1.16256         6.68472          3.9988 
        1.17828         6.61436         3.87124 
        1.19395         6.35628         3.74964 
         1.2097         6.22545         3.63262 
        1.22537         6.05584         3.52114 
          1.241         5.94774         3.41464 
        1.25666         5.84982         3.31225 
        1.27241         5.66541         3.21357 
        1.28819         5.52826         3.11871 
        1.30392         5.45249         3.02794 
        1.31957         5.32461         2.94116 
        1.33529         5.21525         2.85745 
        1.35108         5.07505         2.77664 
        1.36674         5.03473         2.69952 
         1.3824         4.84438         2.62538 
        1.39811         4.77582         2.55376 
        1.41389         4.69114         2.48452 
        1.42964         4.60261         2.41796 
        1.44531         4.50714         2.35414 
        1.46101          4.4113         2.29247 
        1.47667         4.32501         2.23318 
        1.49229         4.27465         2.17614 
        1.50793         4.15447         2.12101 
        1.52367         4.10443         2.06743 
        1.53953         4.00714         2.01532 
        1.55526         3.93957         1.96542 
        1.57092         3.88357          1.9174 
        1.58662         3.79171         1.87086 
        1.60235         3.74065         1.82576 
        1.61809         3.66911         1.78212 
        1.63369         3.60159         1.74028 
        1.64941         3.54062         1.69948 
        1.66519         3.49647         1.65983 
        1.68085         3.42016         1.62172 
        1.69652         3.35571         1.58479 
        1.71228         3.31156         1.54879 
        1.72806         3.25466         1.51387 
        1.74368         3.19383         1.48037 
        1.75933         3.15677         1.44781 
        1.77505         3.11211         1.41607 
        1.79081         3.04311         1.38522 
         1.8065         3.01066         1.35542 
        1.82218         2.96918         1.32651 
        1.83797         2.93427         1.29824 
        1.85367         2.86876         1.27095 
        1.86928          2.8386         1.24459 
        1.88497          2.7928         1.21884 
        1.90073         2.74074         1.19372 
        1.91647         2.70174         1.16932 
        1.93218         2.67597         1.14564 
        1.94787         2.64799         1.12266 
        1.96363          2.5954         1.10021 
        1.97935         2.55774         1.07841 
        1.99499         2.51335         1.05733 
        2.01064         2.48913         1.03677 
         2.0264         2.44904         1.01663 
        2.04216         2.42796        0.997025 
        2.05781         2.38632         0.97806 
        2.07353         2.36384        0.959517 
        2.08928         2.33532         0.94141 
        2.10499         2.29449        0.923816 
        2.12065         2.27882         0.90672 
        2.13633         2.23955        0.890039 
        2.15211         2.21088        0.873668 
        2.16785         2.18866         0.85775 
        2.18349         2.15783        0.842326 
        2.19916         2.11967        0.827246 
        2.21489         2.10893        0.812482 
        2.23063         2.06803        0.798066 
         2.2463         2.05179        0.784062 
        2.26194         2.02237        0.770426 
        2.27765         2.00819        0.757042 
        2.29341         1.97691        0.743939 
        2.30914          1.9504         0.73117 
        2.32486          1.9387        0.718706 
        2.34061         1.91069        0.706509 
        2.35635         1.88487        0.694605 
        2.37203         1.87379        0.683013 
        2.38768         1.84837        0.671708 
        2.40339         1.82506        0.660616 
        2.41914         1.80384        0.649747 
        2.43483         1.79051        0.639159 
         2.4505         1.76252        0.628822 
        2.46622         1.75365        0.618677 
        2.48195         1.72323        0.608753 
        2.49759         1.70792        0.599098 
        2.51328         1.68824        0.589626 
        2.52906         1.68062        0.580297 
        2.54479         1.65343        0.571203 
        2.56049         1.63938         0.56232 
        2.57618          1.6232        0.553631 
        2.59189         1.61427        0.545112 
        2.60758         1.58864        0.536785 
        2.62325         1.57326        0.528639 
        2.63898         1.55481        0.520634 
        2.65468         1.54173        0.512809 
        2.67044         1.53107         0.50511 
        2.68618          1.5096        0.497586 
        2.70184         1.49834        0.490244 
        2.71755          1.4843        0.483031 
        2.73329          1.4666         0.47595 
        2.74897         1.45658        0.469033 
        2.76462         1.44069        0.462268 
        2.78034         1.42714        0.455608 
        2.79607          1.4125         0.44907 
        2.81179         1.40212        0.442667 
        2.82749         1.38374        0.436395 
        2.84321          1.3771        0.430237 
        2.85893          1.3643        0.424198 
        2.87462          1.3491        0.418285 
        2.89033         1.33363        0.412478 
        2.90605         1.32272        0.406775 
        2.92176         1.31298        0.401182 
        2.93747         1.29897        0.395696 
        2.95318         1.28926        0.390311 
        2.96891         1.28083        0.385023 
        2.98456          1.2679        0.379855 
        3.00023         1.25595        0.374774 
        3.01596         1.24758        0.369769 
        3.03164         1.24059        0.364869 
        3.04738           1.222        0.360043 
         3.0631         1.21372        0.355304 
        3.07883         1.20507        0.350651 
        3.09456         1.19718         0.34608 
        3.11026         1.18523        0.341598 
        3.12596         1.17492        0.337194 
        3.14163         1.16708        0.332878 
        3.15734         1.15774        0.328627 
        3.17308         1.14443        0.324439 
        3.18879         1.14072        0.320334 
        3.20447         1.13205        0.316307 
         3.2202         1.11878        0.312335 
         3.2359         1.11044        0.308438 
        3.25157         1.10551        0.304616 
        3.26729          1.0918        0.300847 
        3.28304         1.09128        0.297133 
        3.29877         1.07496        0.293487 
        3.31446          1.0692        0.289909 
        3.33014          1.0661        0.286394 
        3.34585         1.05705        0.282931 
        3.36158         1.04584        0.279519 
        3.37727         1.04001        0.276174 
        3.39294         1.02939        0.272887 
        3.40867         1.01927         0.26964 
        3.42439         1.01662        0.266448 
        3.44008         1.01054        0.263313 
        3.45578         1.00304        0.260226 
        3.47153        0.994051        0.257181 
        3.48724         0.98636        0.254189 
        3.50292        0.981791        0.251252 
        3.51859        0.977697        0.248362 
        3.53431        0.968352        0.245509 
        3.55007        0.960821        0.242693 
        3.56577        0.955254        0.239931 
        3.58146        0.951243        0.237214 
        3.59719        0.941644        0.234531 
        3.61292        0.939032        0.231891 
        3.62859          0.9305        0.229301 
        3.64429        0.921941        0.226746 
        3.66003         0.91648        0.224221 
        3.67578        0.910501        0.221735 
        3.69146        0.906324        0.219296 
        3.70712        0.896715        0.216898 
        3.72284        0.894076        0.214526 
        3.73853        0.887457        0.212194 
        3.75422        0.883479        0.209895 
        3.76993        0.877449        0.207628 
        3.78564        0.871719        0.205395 
        3.80137        0.864619        0.203191 
        3.81707        0.861079        0.201024 
        3.83279         0.85322        0.198886 
        3.84853        0.849787        0.196775 
        3.86424        0.841708          0.1947 
        3.87992        0.841937        0.192656 
        3.89561        0.833234        0.190642 
        3.91134         0.82979        0.188652 
        3.92704        0.824124        0.186693 
        3.94273        0.818934        0.184763 
        3.95845        0.814043        0.182857 
        3.97418        0.807063        0.180977 
        3.98988        0.802849        0.179125 
        4.00554         0.79648        0.177305 
        4.02125        0.791852        0.175504 
        4.03698        0.785593        0.173725 
        4.05268        0.780186        0.171975 
        4.06839        0.772132        0.170247 
         4.0841        0.768145        0.168544 
        4.09983        0.762722        0.166861 
        4.11555        0.757731        0.165201 
        4.13124        0.751616        0.163569 
        4.14693        0.744672        0.161957 
        4.16266        0.739739        0.160362 
        4.17839        0.735295         0.15879 
        4.19408         0.73214        0.157243 
        4.20977        0.723712        0.155715 
        4.22551        0.722151        0.154204 
        4.24123        0.716892        0.152714 
        4.25691        0.711044        0.151247 
        4.27259         0.70884          0.1498 
        4.28831        0.702956        0.148368 
        4.30404        0.698532        0.146953 
        4.31974        0.693466         0.14556 
        4.33543        0.689506        0.144185 
        4.35116        0.686667        0.142825 
        4.36688         0.68233        0.141482 
        4.38255        0.677015        0.140162 
        4.39825        0.675539        0.138856 
        4.41398        0.671107        0.137563 
         4.4297        0.666455        0.136288 
        4.44541        0.663962        0.135029 
        4.46111        0.662198        0.133787 
        4.47683        0.658053         0.13256 
        4.49251        0.654605         0.13135 
        4.50819        0.650839        0.130156 
         4.5239           0.648        0.128975 
        4.53962        0.646307        0.127806 
        4.55535        0.640525        0.126652 
        4.57106        0.640355        0.125513 
        4.58678        0.636107        0.124388 
         4.6025        0.634111        0.123277 
        4.61821        0.630666        0.122179 
        4.63391        0.628471        0.121095 
         4.6496         0.62401        0.120025 
        4.66532        0.624017        0.118967 
        4.68103         0.61956        0.117921 
        4.69673        0.618164        0.116889 
        4.71241         0.61584         0.11587 
        4.72811        0.614104        0.114861 
        4.74384        0.610594        0.113863 
        4.75955        0.608327        0.112879 
        4.77525        0.606586        0.111906 
        4.79096         0.60434        0.110944 
        4.80669        0.603284        0.109992 
         4.8224          0.6009        0.109053 
        4.83809        0.600026        0.108125 
        4.85379        0.598004        0.107207 
         4.8695         0.59674          0.1063 
        4.88521        0.591895        0.105403 
        4.90093        0.592685        0.104516 
        4.91663        0.592265         0.10364 
        4.93234        0.588205        0.102773 
        4.94807         0.58792        0.101916 
        4.96377        0.584935        0.101069 
        4.97943        0.585631        0.100234 
        4.99514        0.584387       0.0994064 
        5.01086        0.582299       0.0985872 
        5.02654        0.582615       0.0977793 
        5.04227        0.580017       0.0969779 
          5.058        0.579463       0.0961851 
        5.07371        0.578588       0.0954026 
        5.08942        0.576536       0.0946286 
        5.10513        0.575597       0.0938631 
        5.12084        0.576043       0.0931056 
        5.13656        0.575386       0.0923565 
        5.15225        0.573517       0.0916168 
        5.16796        0.573123        0.090884 
        5.18369        0.571521       0.0901585 
         5.1994        0.571828       0.0894421 
        5.21509        0.570576       0.0887341 
        5.23079        0.570153       0.0880328 
        5.24649        0.570036       0.0873396 
        5.26217        0.567318       0.0866543 
        5.27788        0.569363       0.0859753 
        5.29359        0.568187       0.0853033 
        5.30933        0.566376       0.0846376 
        5.32504        0.568849         0.08398 
        5.34073        0.567906         0.08333 
        5.35646        0.565894       0.0826855 
        5.37218        0.566737       0.0820477 
        5.38789        0.567059       0.0814176 
        5.40357        0.566484       0.0807947 
        5.41929        0.565467        0.080177 
        5.43502        0.566065       0.0795655 
         5.4507        0.566207       0.0789618 
        5.46639         0.56541       0.0783643 
        5.48212        0.565684       0.0777715 
        5.49786        0.564495        0.077184 
        5.51353        0.565003       0.0766055 
        5.52921        0.564458       0.0760323 
        5.54495        0.565233       0.0754632 
        5.56066        0.565057       0.0749005 
        5.57637        0.566307       0.0743435 
        5.59207        0.565674       0.0737927 
        5.60778        0.564824       0.0732472 
        5.62346        0.566399       0.0727079 
        5.63916         0.56607       0.0721735 
        5.65487        0.566111       0.0716441 
         5.6706        0.567193       0.0711194 
        5.68633        0.567424       0.0705996 
        5.70203        0.568429       0.0700861 
        5.71773        0.568407       0.0695778 
        5.73344        0.568124       0.0690742 
        5.74916        0.567945        0.068575 
        5.76486        0.569404       0.0680814 
        5.78054        0.567623       0.0675934 
        5.79626        0.568837       0.0671088 
          5.812        0.569349       0.0666284 
         5.8277        0.570614        0.066154 
        5.84339        0.569942       0.0656842 
        5.85911        0.570843       0.0652181 
        5.87484        0.570566       0.0647565 
        5.89053        0.571454       0.0643002 
        5.90623        0.571994       0.0638481 
        5.92195        0.571551       0.0633995 
        5.93767        0.570968       0.0629555 
        5.95336        0.572513       0.0625164 
        5.96905        0.574279       0.0620816 
        5.98476        0.572193       0.0616502 
        6.00048        0.573575       0.0612228 
        6.01617        0.574956          0.0608 
        6.03185        0.574467       0.0603817 
        6.04756        0.575757       0.0599663 
        6.06331        0.576468       0.0595538 
        6.07903        0.576575       0.0591461 
        6.09473        0.576108       0.0587425 
        6.11044        0.577464       0.0583423 
        6.12616        0.578069       0.0579458 
        6.14186        0.577138       0.0575534 
        6.15755         0.57873       0.0571646 
        6.17326        0.579048       0.0567791 
        6.18898        0.579141       0.0563969 
        6.20467        0.579715       0.0560189 
        6.22036         0.57882       0.0556443 
         6.2361        0.579901       0.0552721 
         6.2518        0.581579       0.0549039 
        6.26748        0.579978       0.0545399 
        6.28319        0.581339       0.0541781 
        6.29893         0.58309       0.0538192 
        6.31463        0.582371       0.0534642 
        6.33033        0.582737       0.0531125 
        6.34604        0.583047       0.0527636 
        6.36177        0.584007       0.0524175 
        6.37747        0.584292       0.0520752 
