# k  (h/Mpc)    Pcb(k)  (Mpc/h)^3    Pcb_linear(k) (Mpc/h)^3   ShotnoiseSubtracted = true
      0.0200456         10754.7         10893.1 
      0.0350414         7836.55         7619.42 
      0.0492313         5497.29         5536.75 
      0.0637834         4382.19         4527.01 
      0.0800726         3311.25         3424.32 
       0.096163         2572.02         2467.79 
       0.111083         2130.25         2023.06 
       0.126058         1759.06         1765.11 
       0.142273         1458.41         1421.24 
       0.158546         1195.78         1124.78 
        0.17375         1060.97         979.323 
       0.188953         971.296          873.92 
       0.204907         809.598         740.969 
       0.220756         723.051         626.716 
        0.23588         647.188         559.564 
         0.2514         576.792         504.909 
       0.267535         551.308         443.092 
       0.283568         479.079         389.143 
       0.299022         456.074         352.022 
       0.314451         455.295           321.1 
       0.330372         389.107         289.079 
       0.346141          359.59         260.757 
       0.361624         341.653         238.634 
       0.377134         317.016          219.56 
       0.392932         306.824         201.066 
       0.408854         290.694           184.2 
       0.424564         279.433          170.06 
       0.440253         251.816         157.615 
       0.455999         239.213         146.027 
       0.471626         237.365         135.541 
        0.48727         225.444         126.232 
       0.502856         205.822           117.9 
       0.518488         205.825         110.211 
       0.534347         190.964         103.045 
       0.550082         185.988         96.6096 
       0.565732         183.974         90.7765 
       0.581496         171.402         85.3661 
       0.597222         167.243         80.3836 
       0.612804         161.651         75.8453 
       0.628434         156.467         71.6559 
       0.644267         148.705         67.7317 
       0.660051         145.138         64.1078 
       0.675724         143.285         60.7679 
       0.691403         139.418         57.6619 
       0.707174         134.255         54.7544 
       0.722871          132.04         52.0577 
        0.73838         130.236         49.5702 
       0.754018         122.319         47.2256 
       0.769845         122.034         45.0062 
        0.78569         118.514         42.9266 
       0.801365         114.624         40.9982 
       0.817031         111.566         39.1889 
       0.832809          109.44         37.4768 
       0.848511         106.693         35.8742 
       0.864097         104.638         34.3758 
       0.879701         103.127         32.9611 
       0.895507         99.8531          31.609 
       0.911279         97.4778         30.3351 
        0.92691         95.3164         29.1416 
       0.942635         93.1572         28.0055 
       0.958396         92.4819         26.9272 
       0.974128         90.3491         25.9073 
       0.989692         88.0027           24.95 
        1.00528         86.7702         24.0394 
        1.02113         84.5282         23.1598 
        1.03692         84.2035         22.3273 
        1.05264         83.0476         21.5392 
        1.06832         80.2965         20.7903 
        1.08405         79.4672         20.0748 
        1.09979         78.7714         19.3924 
        1.11537          76.507         18.7483 
        1.13105          75.471         18.1294 
        1.14679         74.3154          17.536 
        1.16256         72.7023         16.9678 
        1.17828         72.1148         16.4265 
        1.19395          70.227         15.9106 
         1.2097         70.0154          15.414 
        1.22537         68.3746          14.941 
          1.241         68.1861         14.4891 
        1.25666         65.6727         14.0546 
        1.27241          65.363         13.6359 
        1.28819         64.8287         13.2334 
        1.30392         63.4959         12.8482 
        1.31957          62.988           12.48 
        1.33529         62.0035         12.1248 
        1.35108         61.5023         11.7819 
        1.36674         60.3744         11.4547 
         1.3824         59.7946         11.1401 
        1.39811         58.3693         10.8362 
        1.41389           57.56         10.5424 
        1.42964         56.9095         10.2599 
        1.44531         56.3435         9.98913 
        1.46101         55.7992         9.72747 
        1.47667         54.9148          9.4759 
        1.49229          54.139         9.23385 
        1.50793         53.5168         8.99993 
        1.52367         53.1383         8.77255 
        1.53953         52.2855         8.55146 
        1.55526         51.2918          8.3397 
        1.57092         51.2204         8.13594 
        1.58662         50.4929         7.93846 
        1.60235         49.8095         7.74712 
        1.61809         48.8683         7.56194 
        1.63369         48.3413         7.38441 
        1.64941         48.0374         7.21129 
        1.66519         46.9389         7.04305 
        1.68085         46.6313         6.88134 
        1.69652         45.7782         6.72462 
        1.71228         45.4749         6.57186 
        1.72806         45.0475          6.4237 
        1.74368         44.3486         6.28155 
        1.75933         44.0391          6.1434 
        1.77505         43.5148         6.00872 
        1.79081         42.9862         5.87782 
         1.8065         42.6167         5.75135 
        1.82218         41.4939         5.62868 
        1.83797         41.2015         5.50873 
        1.85367         40.8823         5.39291 
        1.86928         40.5539         5.28109 
        1.88497         39.8913         5.17181 
        1.90073         39.3476          5.0652 
        1.91647         39.2513         4.96167 
        1.93218         38.9248         4.86123 
        1.94787         38.3164         4.76369 
        1.96363         37.7811         4.66843 
        1.97935         37.3794         4.57595 
        1.99499         36.9763         4.48648 
        2.01064         36.4314         4.39925 
         2.0264         36.4008         4.31378 
        2.04216         35.8137          4.2306 
        2.05781         35.4389         4.15013 
        2.07353         34.8324         4.07145 
        2.08928         34.8397         3.99461 
        2.10499         34.4184         3.91996 
        2.12065         33.9705         3.84742 
        2.13633          33.792         3.77664 
        2.15211         33.2654         3.70717 
        2.16785         32.7313         3.63963 
        2.18349         32.5041         3.57418 
        2.19916          32.172         3.51019 
        2.21489         31.9755         3.44754 
        2.23063         31.5512         3.38637 
         2.2463         31.2891         3.32695 
        2.26194          30.907         3.26909 
        2.27765         30.5655          3.2123 
        2.29341         30.1915          3.1567 
        2.30914         29.8917         3.10252 
        2.32486         29.5175         3.04963 
        2.34061         29.3008         2.99788 
        2.35635         29.0318         2.94736 
        2.37203         28.7468         2.89818 
        2.38768          28.547         2.85021 
        2.40339         28.2492         2.80314 
        2.41914          27.993         2.75702 
        2.43483         27.7172         2.71209 
         2.4505         27.4399         2.66823 
        2.46622         27.0718         2.62519 
        2.48195         26.9255         2.58308 
        2.49759         26.5411         2.54211 
        2.51328         26.2732         2.50192 
        2.52906         26.0793         2.46233 
        2.54479         25.8505         2.42374 
        2.56049         25.6635         2.38605 
        2.57618         25.3615         2.34918 
        2.59189         25.1159         2.31304 
        2.60758         24.8169          2.2777 
        2.62325         24.6441         2.24314 
        2.63898         24.4655         2.20917 
        2.65468         24.1041         2.17596 
        2.67044         23.9372          2.1433 
        2.68618         23.7172         2.11137 
        2.70184         23.4536         2.08022 
        2.71755         23.2151         2.04961 
        2.73329         23.0154         2.01956 
        2.74897         22.7693         1.99021 
        2.76462         22.6016         1.96151 
        2.78034         22.3166         1.93325 
        2.79607         22.1618         1.90551 
        2.81179         21.9298         1.87834 
        2.82749         21.7128         1.85172 
        2.84321         21.5056         1.82559 
        2.85893         21.3392         1.79997 
        2.87462         21.1641         1.77488 
        2.89033          20.921         1.75024 
        2.90605         20.7293         1.72604 
        2.92176         20.5239         1.70231 
        2.93747         20.3388         1.67903 
        2.95318          20.247         1.65618 
        2.96891         19.9503         1.63374 
        2.98456         19.8133         1.61181 
        3.00023         19.5433         1.59025 
        3.01596         19.2944         1.56901 
        3.03164          19.204         1.54822 
        3.04738         19.0607         1.52774 
         3.0631         18.8711         1.50764 
        3.07883         18.6712         1.48789 
        3.09456         18.4714          1.4685 
        3.11026         18.3125         1.44948 
        3.12596         18.0979         1.43079 
        3.14163          18.011         1.41248 
        3.15734         17.8949         1.39444 
        3.17308         17.6187         1.37667 
        3.18879         17.4763         1.35925 
        3.20447         17.4092         1.34216 
         3.2202         17.1634         1.32531 
         3.2359         16.9796         1.30877 
        3.25157         16.8364         1.29255 
        3.26729         16.7379         1.27656 
        3.28304         16.5781          1.2608 
        3.29877          16.465         1.24533 
        3.31446         16.3021         1.23015 
        3.33014         16.0775         1.21523 
        3.34585         16.0407         1.20054 
        3.36158         15.8234         1.18606 
        3.37727         15.7132         1.17187 
        3.39294         15.6152         1.15792 
        3.40867         15.4537         1.14414 
        3.42439         15.2494          1.1306 
        3.44008         15.1406          1.1173 
        3.45578         15.0186          1.1042 
        3.47153         14.9088         1.09128 
        3.48724          14.782         1.07858 
        3.50292         14.6142         1.06612 
        3.51859         14.5302         1.05386 
        3.53431         14.3842         1.04175 
        3.55007         14.2533          1.0298 
        3.56577         14.1475         1.01808 
        3.58146         14.0106         1.00655 
        3.59719         13.9004         0.99517 
        3.61292         13.7929        0.983967 
        3.62859         13.6025        0.972978 
        3.64429         13.5185        0.962134 
        3.66003           13.42         0.95142 
        3.67578         13.3615        0.940873 
        3.69146         13.2128        0.930523 
        3.70712         13.0618        0.920347 
        3.72284          12.948        0.910283 
        3.73853         12.8867        0.900387 
        3.75422         12.6993        0.890632 
        3.76993         12.6538        0.881013 
        3.78564         12.5401        0.871538 
        3.80137         12.3963        0.862185 
        3.81707         12.2823        0.852989 
        3.83279         12.2622        0.843918 
        3.84853         12.1061        0.834962 
        3.86424         11.9987        0.826154 
        3.87992         11.9249        0.817484 
        3.89561         11.7939        0.808937 
        3.91134         11.7172        0.800494 
        3.92704         11.6174         0.79218 
        3.94273         11.5182        0.783991 
        3.95845         11.4156        0.775902 
        3.97418         11.3185        0.767925 
        3.98988          11.236        0.760069 
        4.00554          11.118        0.752344 
        4.02125         11.0381        0.744703 
        4.03698         10.9657        0.737155 
        4.05268         10.8659        0.729728 
        4.06839         10.7517        0.722397 
         4.0841         10.6715        0.715168 
        4.09983         10.5679        0.708027 
        4.11555         10.5036        0.700986 
        4.13124         10.4167        0.694059 
        4.14693         10.3388        0.687218 
        4.16266         10.2527        0.680454 
        4.17839         10.1449        0.673783 
        4.19408         10.0973        0.667216 
        4.20977         9.99667        0.660734 
        4.22551         9.92997        0.654321 
        4.24123         9.84101        0.647998 
        4.25691         9.75522        0.641777 
        4.27259         9.66331        0.635633 
        4.28831         9.61503        0.629558 
        4.30404          9.5172        0.623555 
        4.31974         9.44305        0.617643 
        4.33543          9.3533         0.61181 
        4.35116         9.31306        0.606038 
        4.36688         9.21643        0.600341 
        4.38255         9.12971        0.594739 
        4.39825         9.07603        0.589195 
        4.41398         9.00858        0.583711 
         4.4297         8.91975        0.578301 
        4.44541         8.86841         0.57296 
        4.46111         8.78024         0.56769 
        4.47683         8.69709        0.562482 
        4.49251         8.66054         0.55735 
        4.50819          8.5836        0.552282 
         4.5239         8.52011        0.547269 
        4.53962         8.44639        0.542312 
        4.55535         8.37963        0.537413 
        4.57106          8.3471        0.532581 
        4.58678          8.2577        0.527807 
         4.6025          8.2072         0.52309 
        4.61821         8.14677        0.518431 
        4.63391          8.0606        0.513834 
         4.6496         7.99505        0.509294 
        4.66532         7.95467        0.504802 
        4.68103         7.87934        0.500365 
        4.69673         7.80941        0.495985 
        4.71241         7.76402        0.491662 
        4.72811         7.69447        0.487382 
        4.74384         7.65975        0.483148 
        4.75955         7.59875         0.47897 
        4.77525         7.53898        0.474843 
        4.79096         7.48414        0.470759 
        4.80669         7.40347        0.466721 
         4.8224         7.36676        0.462735 
        4.83809         7.30789        0.458798 
        4.85379         7.27393        0.454905 
         4.8695          7.2085        0.451053 
        4.88521         7.14191        0.447248 
        4.90093         7.11904        0.443485 
        4.91663         7.04317        0.439768 
        4.93234         6.98762         0.43609 
        4.94807         6.94484        0.432451 
        4.96377          6.8807         0.42886 
        4.97943         6.82424        0.425316 
        4.99514         6.78922        0.421804 
        5.01086         6.73587        0.418328 
        5.02654         6.67869          0.4149 
        5.04227         6.63304        0.411499 
          5.058         6.59794        0.408135 
        5.07371         6.55132        0.404815 
        5.08942         6.48665        0.401531 
        5.10513         6.43724        0.398282 
        5.12084          6.3875        0.395068 
        5.13656         6.35353        0.391889 
        5.15225         6.31378        0.388751 
        5.16796         6.26186        0.385641 
        5.18369         6.22127        0.382563 
         5.1994         6.18461        0.379523 
        5.21509         6.13179        0.376519 
        5.23079         6.07574        0.373543 
        5.24649         6.04632        0.370602 
        5.26217         6.01618        0.367694 
        5.27788         5.96471        0.364812 
        5.29359         5.91814        0.361961 
        5.30933         5.86639        0.359136 
        5.32504         5.84129        0.356346 
        5.34073         5.78605        0.353588 
        5.35646         5.75691        0.350853 
        5.37218         5.72613        0.348147 
        5.38789         5.68705        0.345473 
        5.40357         5.64581         0.34283 
        5.41929         5.61097        0.340209 
        5.43502         5.57191        0.337614 
         5.4507         5.52376        0.335053 
        5.46639         5.48398        0.332517 
        5.48212         5.44352        0.330002 
        5.49786         5.40717        0.327509 
        5.51353         5.38138        0.325054 
        5.52921         5.33125        0.322622 
        5.54495         5.30752        0.320207 
        5.56066         5.27215         0.31782 
        5.57637         5.23586        0.315456 
        5.59207         5.19161        0.313119 
        5.60778         5.16698        0.310804 
        5.62346          5.1255        0.308516 
        5.63916         5.09526        0.306248 
        5.65487         5.05685        0.304002 
         5.6706         5.02924        0.301775 
        5.68633         4.98455         0.29957 
        5.70203         4.95425        0.297391 
        5.71773         4.92752        0.295234 
        5.73344          4.8981        0.293097 
        5.74916         4.86024        0.290979 
        5.76486         4.82776        0.288885 
        5.78054         4.79019        0.286814 
        5.79626         4.76965        0.284758 
          5.812         4.74259        0.282719 
         5.8277         4.69618        0.280706 
        5.84339         4.66968        0.278713 
        5.85911         4.63836        0.276735 
        5.87484         4.61683        0.274776 
        5.89053         4.57754         0.27284 
        5.90623         4.54997        0.270922 
        5.92195         4.52489        0.269019 
        5.93767         4.49138        0.267134 
        5.95336         4.45931        0.265271 
        5.96905         4.43217        0.263426 
        5.98476          4.4064        0.261596 
        6.00048         4.38145        0.259782 
        6.01617         4.35593        0.257988 
        6.03185         4.33312        0.256213 
        6.04756         4.30622         0.25445 
        6.06331         4.27186          0.2527 
        6.07903         4.24819         0.25097 
        6.09473         4.21802        0.249258 
        6.11044         4.18726        0.247559 
        6.12616         4.16436        0.245877 
        6.14186         4.13521        0.244212 
        6.15755          4.1077        0.242562 
        6.17326         4.08744        0.240926 
        6.18898         4.06233        0.239305 
        6.20467         4.03398        0.237701 
        6.22036         4.01231        0.236111 
         6.2361         3.97844        0.234532 
         6.2518         3.95828         0.23297 
        6.26748         3.93638        0.231425 
        6.28319         3.91427         0.22989 
        6.29893         3.88183        0.228367 
        6.31463         3.86754        0.226861 
        6.33033         3.83939        0.225368 
        6.34604         3.81926        0.223888 
        6.36177         3.80023        0.222419 
        6.37747         3.77027        0.220967 
