# k  (h/Mpc)    Pcb(k)  (Mpc/h)^3    Pcb_linear(k) (Mpc/h)^3   ShotnoiseSubtracted = true
      0.0200456         212.928         215.336 
      0.0350414         152.038         150.621 
      0.0492313         109.852         109.451 
      0.0637834         89.0385         89.4901 
      0.0800726         67.4633         67.6921 
       0.096163         49.3331         48.7834 
       0.111083         40.3867          39.992 
       0.126058           34.73         34.8927 
       0.142273         28.0293         28.0951 
       0.158546         22.3335         22.2347 
        0.17375         19.4735         19.3593 
       0.188953         17.2701         17.2757 
       0.204907         14.5069         14.6475 
       0.220756         12.4176          12.389 
        0.23588         11.0578         11.0615 
         0.2514         9.97702         9.98105 
       0.267535         8.78631         8.75907 
       0.283568           7.715          7.6926 
       0.299022         6.97382         6.95878 
       0.314451         6.41614         6.34752 
       0.330372         5.74556         5.71454 
       0.346141         5.18438         5.15465 
       0.361624         4.72975         4.71733 
       0.377134         4.33989         4.34026 
       0.392932         4.04297         3.97468 
       0.408854         3.65171         3.64127 
       0.424564         3.41114         3.36175 
       0.440253         3.13782         3.11575 
       0.455999         2.88515         2.88666 
       0.471626         2.67949         2.67939 
        0.48727          2.5251         2.49537 
       0.502856         2.36138         2.33065 
       0.518488         2.17811         2.17865 
       0.534347         2.02768           2.037 
       0.550082         1.92508         1.90978 
       0.565732         1.82417         1.79447 
       0.581496         1.70214         1.68752 
       0.597222         1.60041         1.58903 
       0.612804         1.50698         1.49931 
       0.628434         1.42478          1.4165 
       0.644267         1.35244         1.33892 
       0.660051         1.28033         1.26729 
       0.675724         1.20575         1.20126 
       0.691403         1.14543         1.13986 
       0.707174         1.08744         1.08239 
       0.722871         1.04926         1.02908 
        0.73838        0.982078        0.979907 
       0.754018        0.935405        0.933558 
       0.769845        0.885145        0.889685 
        0.78569        0.852581        0.848575 
       0.801365         0.81595        0.810453 
       0.817031        0.780835        0.774688 
       0.832809        0.741561        0.740844 
       0.848511        0.711909        0.709163 
       0.864097        0.684727        0.679542 
       0.879701        0.659837        0.651577 
       0.895507        0.624582        0.624848 
       0.911279        0.603674        0.599666 
        0.92691        0.583653        0.576073 
       0.942635        0.553772        0.553613 
       0.958396        0.534626        0.532297 
       0.974128        0.514567        0.512136 
       0.989692        0.494966        0.493213 
        1.00528        0.474388        0.475212 
        1.02113        0.461601        0.457824 
        1.03692        0.446018        0.441366 
        1.05264        0.426504        0.425789 
        1.06832        0.412786        0.410983 
        1.08405        0.396262        0.396839 
        1.09979        0.384588        0.383349 
        1.11537        0.369179        0.370616 
        1.13105        0.355396        0.358383 
        1.14679        0.346293        0.346652 
        1.16256        0.335736         0.33542 
        1.17828         0.32531         0.32472 
        1.19395        0.314729        0.314521 
         1.2097        0.303791        0.304705 
        1.22537        0.293184        0.295354 
          1.241        0.284716        0.286421 
        1.25666        0.277674        0.277833 
        1.27241        0.268151        0.269555 
        1.28819        0.259286        0.261598 
        1.30392        0.252833        0.253984 
        1.31957        0.244806        0.246705 
        1.33529        0.238458        0.239683 
        1.35108        0.230481        0.232905 
        1.36674        0.224413        0.226436 
         1.3824        0.218493        0.220217 
        1.39811        0.211073         0.21421 
        1.41389        0.206617        0.208402 
        1.42964        0.200637        0.202819 
        1.44531        0.194574        0.197466 
        1.46101        0.188912        0.192293 
        1.47667         0.18444         0.18732 
        1.49229        0.179461        0.182535 
        1.50793        0.175212        0.177911 
        1.52367         0.17007        0.173416 
        1.53953        0.165281        0.169046 
        1.55526        0.161369         0.16486 
        1.57092        0.158325        0.160832 
        1.58662        0.154131        0.156928 
        1.60235        0.150166        0.153145 
        1.61809        0.145857        0.149485 
        1.63369        0.142207        0.145975 
        1.64941         0.13914        0.142553 
        1.66519        0.136084        0.139227 
        1.68085        0.132192        0.136031 
        1.69652        0.129424        0.132933 
        1.71228        0.125844        0.129913 
        1.72806        0.123611        0.126984 
        1.74368        0.120393        0.124174 
        1.75933        0.117954        0.121443 
        1.77505        0.115456        0.118781 
        1.79081         0.11223        0.116193 
         1.8065        0.110234        0.113693 
        1.82218        0.107119        0.111268 
        1.83797        0.104614        0.108897 
        1.85367        0.102567        0.106607 
        1.86928       0.0999517        0.104397 
        1.88497       0.0978943        0.102237 
        1.90073       0.0957001        0.100129 
        1.91647       0.0941965       0.0980825 
        1.93218       0.0926181        0.096097 
        1.94787       0.0897261       0.0941689 
        1.96363       0.0881556       0.0922858 
        1.97935        0.086154       0.0904576 
        1.99499       0.0843937       0.0886889 
        2.01064       0.0826951       0.0869646 
         2.0264       0.0813416        0.085275 
        2.04216       0.0792118       0.0836308 
        2.05781       0.0776011       0.0820399 
        2.07353       0.0761896       0.0804845 
        2.08928       0.0748671       0.0789657 
        2.10499       0.0730777       0.0774899 
        2.12065       0.0718133       0.0760559 
        2.13633       0.0704042       0.0746567 
        2.15211       0.0691987       0.0732835 
        2.16785       0.0674386       0.0719483 
        2.18349       0.0663149       0.0706545 
        2.19916       0.0648343       0.0693896 
        2.21489       0.0636247       0.0681512 
        2.23063       0.0626713        0.066942 
         2.2463       0.0614594       0.0657673 
        2.26194       0.0602998       0.0646235 
        2.27765       0.0592482       0.0635009 
        2.29341       0.0578659       0.0624018 
        2.30914       0.0569134       0.0613307 
        2.32486       0.0558419       0.0602852 
        2.34061        0.054784       0.0592622 
        2.35635       0.0539011       0.0582636 
        2.37203       0.0532824       0.0572913 
        2.38768        0.052183       0.0563431 
        2.40339       0.0511563       0.0554127 
        2.41914        0.050207       0.0545009 
        2.43483       0.0494762       0.0536128 
         2.4505       0.0484826       0.0527458 
        2.46622       0.0476339       0.0518948 
        2.48195       0.0467856       0.0510624 
        2.49759        0.046025       0.0502525 
        2.51328       0.0449653        0.049458 
        2.52906       0.0444702       0.0486754 
        2.54479       0.0437109       0.0479126 
        2.56049       0.0428732       0.0471675 
        2.57618       0.0422932       0.0464388 
        2.59189       0.0413608       0.0457242 
        2.60758        0.040944       0.0450256 
        2.62325       0.0400699       0.0443424 
        2.63898       0.0395666       0.0436709 
        2.65468       0.0388041       0.0430145 
        2.67044       0.0381668       0.0423688 
        2.68618       0.0375526       0.0417377 
        2.70184       0.0371171       0.0411218 
        2.71755       0.0364334       0.0405167 
        2.73329       0.0359035       0.0399228 
        2.74897       0.0353498       0.0393426 
        2.76462       0.0346768       0.0387752 
        2.78034       0.0342436       0.0382165 
        2.79607       0.0337462       0.0376681 
        2.81179       0.0330921        0.037131 
        2.82749       0.0326849        0.036605 
        2.84321       0.0321407       0.0360884 
        2.85893       0.0316306       0.0355819 
        2.87462        0.031191       0.0350858 
        2.89033       0.0306918       0.0345987 
        2.90605       0.0302479       0.0341204 
        2.92176       0.0299094       0.0336513 
        2.93747       0.0293557       0.0331911 
        2.95318       0.0290366       0.0327394 
        2.96891       0.0285302       0.0322958 
        2.98456       0.0281118       0.0318623 
        3.00023       0.0278245       0.0314361 
        3.01596       0.0272517       0.0310163 
        3.03164       0.0269473       0.0306053 
        3.04738       0.0265562       0.0302005 
         3.0631       0.0260495        0.029803 
        3.07883       0.0258234       0.0294127 
        3.09456       0.0254788       0.0290293 
        3.11026       0.0250639       0.0286533 
        3.12596       0.0248805        0.028284 
        3.14163       0.0244437       0.0279219 
        3.15734       0.0241974       0.0275653 
        3.17308       0.0238314        0.027214 
        3.18879       0.0234744       0.0268697 
        3.20447       0.0230957       0.0265319 
         3.2202       0.0228841       0.0261987 
         3.2359       0.0225884       0.0258718 
        3.25157       0.0222805       0.0255513 
        3.26729       0.0220109       0.0252351 
        3.28304       0.0217767       0.0249236 
        3.29877       0.0214843       0.0246178 
        3.31446       0.0211283       0.0243177 
        3.33014       0.0209747       0.0240228 
        3.34585       0.0206574       0.0237323 
        3.36158        0.020401       0.0234462 
        3.37727       0.0201023       0.0231656 
        3.39294       0.0198903       0.0228898 
        3.40867       0.0197162       0.0226175 
        3.42439       0.0194626       0.0223497 
        3.44008        0.019265       0.0220868 
        3.45578       0.0190374       0.0218278 
        3.47153       0.0188414       0.0215724 
        3.48724       0.0186129       0.0213215 
        3.50292       0.0184779       0.0210751 
        3.51859       0.0182158       0.0208327 
        3.53431       0.0179252       0.0205933 
        3.55007       0.0178031       0.0203571 
        3.56577       0.0176291       0.0201255 
        3.58146       0.0174292       0.0198975 
        3.59719       0.0172677       0.0196726 
        3.61292       0.0170228       0.0194511 
        3.62859       0.0168369       0.0192339 
        3.64429        0.016738       0.0190195 
        3.66003       0.0165503       0.0188077 
        3.67578       0.0163833       0.0185992 
        3.69146       0.0162513       0.0183946 
        3.70712       0.0160695       0.0181935 
        3.72284       0.0158973       0.0179945 
        3.73853       0.0157671       0.0177989 
        3.75422       0.0155575       0.0176061 
        3.76993       0.0154941       0.0174159 
        3.78564       0.0153092       0.0172286 
        3.80137       0.0151852       0.0170437 
        3.81707       0.0150103       0.0168619 
        3.83279       0.0148738       0.0166826 
        3.84853       0.0147543       0.0165056 
        3.86424       0.0146499       0.0163314 
        3.87992       0.0145302       0.0161601 
        3.89561       0.0143427       0.0159911 
        3.91134       0.0142497       0.0158242 
        3.92704       0.0141006       0.0156598 
        3.94273       0.0139674        0.015498 
        3.95845        0.013819       0.0153381 
        3.97418       0.0137328       0.0151804 
        3.98988       0.0135305       0.0150251 
        4.00554       0.0134489       0.0148724 
        4.02125       0.0132636       0.0147213 
        4.03698       0.0130719       0.0145721 
        4.05268       0.0129041       0.0144253 
        4.06839       0.0127164       0.0142804 
         4.0841       0.0125006       0.0141375 
        4.09983       0.0123298       0.0139963 
        4.11555       0.0121739       0.0138571 
        4.13124       0.0119858       0.0137202 
        4.14693       0.0118277        0.013585 
        4.16266       0.0116631       0.0134512 
        4.17839       0.0115146       0.0133194 
        4.19408       0.0113381       0.0131896 
        4.20977       0.0111958       0.0130614 
        4.22551       0.0110662       0.0129346 
        4.24123       0.0109462       0.0128097 
        4.25691       0.0108239       0.0126867 
        4.27259       0.0106775       0.0125652 
        4.28831       0.0106088       0.0124451 
        4.30404       0.0104551       0.0123265 
        4.31974       0.0103816       0.0122096 
        4.33543       0.0102842       0.0120943 
        4.35116       0.0101628       0.0119802 
        4.36688       0.0101342       0.0118676 
        4.38255       0.0100173       0.0117568 
        4.39825      0.00999722       0.0116472 
        4.41398      0.00992223       0.0115388 
         4.4297      0.00984283       0.0114319 
        4.44541      0.00977612       0.0113263 
        4.46111      0.00970357       0.0112221 
        4.47683      0.00970811       0.0111192 
        4.49251      0.00963846       0.0110177 
        4.50819      0.00963745       0.0109175 
         4.5239      0.00956086       0.0108184 
        4.53962      0.00954516       0.0107204 
        4.55535      0.00950875       0.0106236 
        4.57106      0.00954135       0.0105281 
        4.58678      0.00948812       0.0104337 
         4.6025      0.00949871       0.0103405 
        4.61821      0.00950215       0.0102484 
        4.63391      0.00949731       0.0101575 
         4.6496      0.00949155       0.0100677 
        4.66532      0.00948921      0.00997894 
        4.68103      0.00952597      0.00989124 
        4.69673      0.00953635      0.00980466 
        4.71241      0.00959308      0.00971919 
        4.72811      0.00959992      0.00963459 
        4.74384      0.00965074      0.00955089 
        4.75955      0.00967293       0.0094683 
        4.77525      0.00974282      0.00938671 
        4.79096      0.00978488      0.00930599 
        4.80669      0.00986008      0.00922616 
         4.8224      0.00989895      0.00914736 
        4.83809      0.00997907      0.00906954 
        4.85379       0.0101165      0.00899258 
         4.8695       0.0101408      0.00891644 
        4.88521       0.0102054      0.00884121 
        4.90093       0.0102763      0.00876683 
        4.91663       0.0103929      0.00869336 
        4.93234       0.0104901      0.00862064 
        4.94807       0.0105817       0.0085487 
        4.96377       0.0107087      0.00847772 
        4.97943       0.0109027      0.00840767 
        4.99514       0.0109504      0.00833824 
        5.01086       0.0110966      0.00826952 
        5.02654       0.0112265      0.00820175 
        5.04227        0.011321      0.00813453 
          5.058       0.0115011      0.00806803 
        5.07371       0.0116152       0.0080024 
        5.08942       0.0118197      0.00793748 
        5.10513       0.0119589      0.00787326 
        5.12084       0.0121232      0.00780972 
        5.13656       0.0123204      0.00774689 
        5.15225       0.0125235      0.00768484 
        5.16796        0.012705      0.00762337 
        5.18369       0.0128536      0.00756251 
         5.1994       0.0131051      0.00750243 
        5.21509       0.0132881      0.00744304 
        5.23079       0.0135413      0.00738421 
        5.24649       0.0137677      0.00732607 
        5.26217       0.0139779      0.00726858 
        5.27788       0.0142703      0.00721163 
        5.29359       0.0144341      0.00715527 
        5.30933       0.0147163      0.00709942 
        5.32504       0.0149887      0.00704426 
        5.34073       0.0152688      0.00698974 
        5.35646        0.015588      0.00693568 
        5.37218       0.0158441      0.00688218 
        5.38789       0.0160858      0.00682933 
        5.40357       0.0165218      0.00677708 
        5.41929       0.0168271      0.00672526 
        5.43502       0.0171159      0.00667398 
         5.4507        0.017429      0.00662334 
        5.46639       0.0178181      0.00657322 
        5.48212       0.0181756      0.00652349 
        5.49786       0.0186026      0.00647422 
        5.51353       0.0190942      0.00642569 
        5.52921       0.0192767      0.00637761 
        5.54495       0.0198006      0.00632987 
        5.56066       0.0202715      0.00628267 
        5.57637        0.020685      0.00623596 
        5.59207         0.02112      0.00618975 
        5.60778       0.0214984      0.00614399 
        5.62346       0.0220595      0.00609876 
        5.63916       0.0225275      0.00605393 
        5.65487       0.0230401      0.00600953 
         5.6706       0.0235203      0.00596551 
        5.68633       0.0241962      0.00592192 
        5.70203       0.0246463      0.00587884 
        5.71773       0.0253359       0.0058362 
        5.73344       0.0256901      0.00579396 
        5.74916       0.0263667      0.00575209 
        5.76486       0.0271106      0.00571069 
        5.78054       0.0278215      0.00566975 
        5.79626       0.0282973       0.0056291 
          5.812       0.0291605       0.0055888 
         5.8277       0.0296595      0.00554901 
        5.84339       0.0304796      0.00550961 
        5.85911       0.0313002      0.00547051 
        5.87484       0.0319573      0.00543179 
        5.89053       0.0329125      0.00539352 
        5.90623       0.0335721       0.0053556 
        5.92195       0.0345882      0.00531797 
        5.93767       0.0355801      0.00528072 
        5.95336       0.0361283      0.00524389 
        5.96905       0.0372046      0.00520742 
        5.98476       0.0378328      0.00517124 
        6.00048       0.0392341      0.00513539 
        6.01617       0.0400654      0.00509992 
        6.03185       0.0409823      0.00506483 
        6.04756       0.0422465      0.00502999 
        6.06331       0.0436453      0.00499539 
        6.07903       0.0444845      0.00496119 
        6.09473       0.0457347      0.00492733 
        6.11044       0.0471178      0.00489376 
        6.12616       0.0481795      0.00486051 
        6.14186       0.0494645      0.00482759 
        6.15755       0.0506979      0.00479498 
        6.17326       0.0521284      0.00476264 
        6.18898       0.0539152      0.00473059 
        6.20467       0.0555629      0.00469888 
        6.22036       0.0568329      0.00466746 
         6.2361       0.0584263      0.00463624 
         6.2518        0.060451      0.00460536 
        6.26748       0.0611891      0.00457482 
        6.28319       0.0635687      0.00454447 
        6.29893       0.0649511      0.00451437 
        6.31463       0.0672971      0.00448459 
        6.33033       0.0689114      0.00445509 
        6.34604       0.0712669      0.00442583 
        6.36177        0.072545       0.0043968 
        6.37747       0.0749164      0.00436808 
