# k  (h/Mpc)    Pcb(k)  (Mpc/h)^3    Pcb_linear(k) (Mpc/h)^3   ShotnoiseSubtracted = true
      0.0200456         14486.2         14752.2 
      0.0350414         9984.96         10318.7 
      0.0492313         7415.71         7498.24 
      0.0637834         6272.95         6130.79 
      0.0800726         4765.38         4637.45 
       0.096163         3291.67         3342.05 
       0.111083         2681.38         2739.77 
       0.126058         2442.45         2390.43 
       0.142273         2044.98         1924.74 
       0.158546         1731.44         1523.26 
        0.17375         1406.19         1326.27 
       0.188953         1353.19         1183.52 
       0.204907         1247.15         1003.47 
       0.220756         1064.26         848.742 
        0.23588         945.789           757.8 
         0.2514         820.951         683.782 
       0.267535         798.761         600.066 
       0.283568         722.056         527.005 
       0.299022         677.248         476.732 
       0.314451         639.104         434.856 
       0.330372         586.612         391.491 
       0.346141             536         353.134 
       0.361624         515.632         323.175 
       0.377134         476.992         297.343 
       0.392932         455.205         272.298 
       0.408854         437.854         249.456 
       0.424564         411.992         230.306 
       0.440253         401.747         213.453 
       0.455999         377.726         197.759 
       0.471626         355.894         183.559 
        0.48727         342.881         170.953 
       0.502856         332.129         159.668 
       0.518488         328.453         149.255 
       0.534347         307.242         139.551 
       0.550082         291.468         130.835 
       0.565732          288.38         122.936 
       0.581496         271.603         115.609 
       0.597222         266.631         108.861 
       0.612804          258.45         102.715 
       0.628434         247.912         97.0413 
       0.644267         240.622         91.7269 
       0.660051         236.129         86.8191 
       0.675724         231.669         82.2961 
       0.691403         224.701         78.0897 
       0.707174         216.218         74.1522 
       0.722871          213.49         70.5001 
        0.73838         209.364         67.1314 
       0.754018         204.188         63.9561 
       0.769845         197.033         60.9505 
        0.78569         196.237         58.1342 
       0.801365         189.059         55.5225 
       0.817031         183.332         53.0723 
       0.832809         181.545         50.7537 
       0.848511         176.416         48.5833 
       0.864097         174.137         46.5541 
       0.879701         170.561         44.6382 
       0.895507         166.223         42.8071 
       0.911279         161.255         41.0819 
        0.92691          161.28         39.4656 
       0.942635         156.655         37.9269 
       0.958396         155.998         36.4666 
       0.974128         152.134         35.0854 
       0.989692         148.568          33.789 
        1.00528         146.498         32.5558 
        1.02113         145.288         31.3646 
        1.03692         141.014         30.2371 
        1.05264         138.364         29.1699 
        1.06832         135.831         28.1556 
        1.08405         133.917         27.1867 
        1.09979         133.146         26.2625 
        1.11537         129.268         25.3902 
        1.13105         127.804         24.5521 
        1.14679         127.233         23.7484 
        1.16256         125.294          22.979 
        1.17828         122.606         22.2459 
        1.19395         120.622         21.5472 
         1.2097         119.455         20.8748 
        1.22537         117.727         20.2341 
          1.241          115.74         19.6221 
        1.25666          113.92         19.0338 
        1.27241         111.995         18.4667 
        1.28819         110.692         17.9216 
        1.30392         108.733         17.3999 
        1.31957         107.908         16.9013 
        1.33529         105.201         16.4202 
        1.35108         104.471         15.9559 
        1.36674         103.471         15.5127 
         1.3824         101.444         15.0866 
        1.39811         100.532         14.6751 
        1.41389         99.0837         14.2772 
        1.42964         96.9349         13.8947 
        1.44531         95.2496          13.528 
        1.46101         94.2061         13.1736 
        1.47667         93.5254         12.8329 
        1.49229         92.0494         12.5051 
        1.50793         91.2365         12.1883 
        1.52367          89.908         11.8804 
        1.53953         88.3668          11.581 
        1.55526         87.7417         11.2942 
        1.57092          86.757         11.0183 
        1.58662         84.9095         10.7508 
        1.60235         84.7407         10.4917 
        1.61809         83.0344         10.2409 
        1.63369         82.4893         10.0005 
        1.64941          81.805         9.76602 
        1.66519         79.7308         9.53818 
        1.68085         79.5482         9.31918 
        1.69652         77.5289         9.10694 
        1.71228         77.6285         8.90006 
        1.72806         76.5257         8.69941 
        1.74368          75.467         8.50691 
        1.75933         74.2876         8.31981 
        1.77505          73.701         8.13742 
        1.79081         72.4319         7.96015 
         1.8065         71.5974         7.78887 
        1.82218         70.5427         7.62275 
        1.83797         69.7524          7.4603 
        1.85367         69.2491         7.30345 
        1.86928         68.7695         7.15202 
        1.88497         67.4183         7.00403 
        1.90073         66.7179         6.85964 
        1.91647         66.1977         6.71943 
        1.93218         65.1465         6.58341 
        1.94787         64.5467         6.45132 
        1.96363         63.5548         6.32231 
        1.97935         63.1326         6.19707 
        1.99499         62.1786          6.0759 
        2.01064         61.7022         5.95777 
         2.0264         60.4946         5.84202 
        2.04216         60.0346         5.72937 
        2.05781         59.2634         5.62039 
        2.07353         58.2476         5.51383 
        2.08928         57.6867         5.40978 
        2.10499         57.0918         5.30868 
        2.12065         56.6748         5.21044 
        2.13633         56.0619         5.11458 
        2.15211          55.517          5.0205 
        2.16785         54.9404         4.92903 
        2.18349         54.4635          4.8404 
        2.19916         53.6564         4.75374 
        2.21489         53.2147          4.6689 
        2.23063         52.8143         4.58606 
         2.2463         51.9666         4.50558 
        2.26194         51.3187         4.42723 
        2.27765         51.0912         4.35032 
        2.29341         50.3543         4.27502 
        2.30914         49.6699         4.20164 
        2.32486         48.9812         4.13002 
        2.34061         48.5901         4.05993 
        2.35635         47.9656         3.99152 
        2.37203         47.4478         3.92491 
        2.38768         46.9692         3.85995 
        2.40339         46.5115         3.79621 
        2.41914         46.0346         3.73375 
        2.43483          45.771          3.6729 
         2.4505         45.3218          3.6135 
        2.46622         44.7228         3.55521 
        2.48195         44.3175         3.49818 
        2.49759         43.5936          3.4427 
        2.51328         43.1959         3.38826 
        2.52906         42.7831         3.33466 
        2.54479         42.4121          3.2824 
        2.56049         41.8214         3.23135 
        2.57618         41.5455         3.18142 
        2.59189         41.0243         3.13247 
        2.60758         40.7173         3.08461 
        2.62325         40.1868         3.03781 
        2.63898         39.8154          2.9918 
        2.65468         39.3378         2.94684 
        2.67044          38.717          2.9026 
        2.68618         38.5433         2.85936 
        2.70184         38.0626         2.81717 
        2.71755         37.7938         2.77572 
        2.73329         37.3073         2.73503 
        2.74897           36.94         2.69528 
        2.76462         36.5259         2.65641 
        2.78034         36.3136         2.61813 
        2.79607         35.8377         2.58057 
        2.81179         35.5216         2.54377 
        2.82749          34.958         2.50773 
        2.84321         34.7148         2.47234 
        2.85893         34.4035         2.43764 
        2.87462         33.9442         2.40366 
        2.89033         33.5839         2.37029 
        2.90605          33.427         2.33752 
        2.92176         32.9667         2.30538 
        2.93747         32.7247         2.27386 
        2.95318         32.3064         2.24291 
        2.96891         31.9247         2.21252 
        2.98456          31.748         2.18282 
        3.00023         31.3373         2.15362 
        3.01596         31.0377         2.12486 
        3.03164         30.7708         2.09671 
        3.04738         30.5743         2.06897 
         3.0631         30.0793         2.04174 
        3.07883         29.8413           2.015 
        3.09456         29.5756         1.98874 
        3.11026         29.2949         1.96298 
        3.12596          28.936         1.93768 
        3.14163         28.6922         1.91287 
        3.15734         28.3704         1.88844 
        3.17308         28.1087         1.86438 
        3.18879         27.9462         1.84079 
        3.20447         27.5987         1.81764 
         3.2202         27.2892         1.79482 
         3.2359         27.1572         1.77243 
        3.25157         26.8469         1.75047 
        3.26729         26.6203         1.72881 
        3.28304         26.2915         1.70747 
        3.29877         25.9909         1.68651 
        3.31446         25.8066         1.66595 
        3.33014         25.5479         1.64575 
        3.34585           25.38         1.62585 
        3.36158          25.077         1.60625 
        3.37727          24.813         1.58703 
        3.39294         24.6017         1.56813 
        3.40867         24.3599         1.54948 
        3.42439         24.1921         1.53113 
        3.44008         23.9454         1.51312 
        3.45578         23.6417         1.49538 
        3.47153         23.4724         1.47788 
        3.48724         23.2447         1.46069 
        3.50292         23.0323         1.44381 
        3.51859         22.7923         1.42721 
        3.53431         22.6568         1.41081 
        3.55007         22.3648         1.39462 
        3.56577         22.1589         1.37876 
        3.58146         22.0321         1.36314 
        3.59719         21.7611         1.34773 
        3.61292         21.6101         1.33256 
        3.62859         21.3514         1.31767 
        3.64429         21.1798         1.30299 
        3.66003         20.9831         1.28848 
        3.67578         20.8053         1.27419 
        3.69146         20.6241         1.26018 
        3.70712         20.4012          1.2464 
        3.72284         20.2493         1.23277 
        3.73853         20.0643         1.21937 
        3.75422         19.9164         1.20616 
        3.76993         19.7074         1.19313 
        3.78564         19.4726          1.1803 
        3.80137          19.306         1.16763 
        3.81707         19.2029         1.15518 
        3.83279         18.9898         1.14289 
        3.84853         18.7962         1.13076 
        3.86424         18.6796         1.11883 
        3.87992         18.5194         1.10709 
        3.89561         18.3272         1.09552 
        3.91134         18.2179         1.08408 
        3.92704          18.029         1.07282 
        3.94273         17.8769         1.06173 
        3.95845         17.6856         1.05078 
        3.97418         17.5561         1.03998 
        3.98988          17.357         1.02934 
        4.00554         17.2726         1.01888 
        4.02125         17.1076         1.00853 
        4.03698         16.9001        0.998306 
        4.05268         16.7929        0.988248 
        4.06839         16.5814         0.97832 
         4.0841         16.5475         0.96853 
        4.09983         16.3327        0.958859 
        4.11555         16.2181        0.949323 
        4.13124         16.0812        0.939942 
        4.14693         15.9189        0.930678 
        4.16266          15.763        0.921517 
        4.17839         15.6476        0.912483 
        4.19408          15.502         0.90359 
        4.20977         15.4094        0.894811 
        4.22551         15.2336        0.886126 
        4.24123         15.1493        0.877564 
        4.25691          15.054        0.869138 
        4.27259         14.9028        0.860818 
        4.28831         14.7561         0.85259 
        4.30404         14.6636        0.844461 
        4.31974         14.5073        0.836454 
        4.33543         14.4173        0.828555 
        4.35116         14.2634        0.820738 
        4.36688         14.1399        0.813024 
        4.38255         14.0568        0.805436 
        4.39825         13.9522        0.797929 
        4.41398         13.8027        0.790501 
         4.4297         13.6863        0.783175 
        4.44541         13.5854        0.775942 
        4.46111         13.4762        0.768805 
        4.47683         13.3437        0.761752 
        4.49251         13.2885        0.754801 
        4.50819         13.1415        0.747938 
         4.5239         13.0436        0.741149 
        4.53962         12.9182        0.734436 
        4.55535         12.8545        0.727801 
        4.57106         12.7365        0.721258 
        4.58678         12.6195        0.714793 
         4.6025         12.4923        0.708404 
        4.61821         12.3955        0.702095 
        4.63391         12.3355        0.695869 
         4.6496          12.229        0.689721 
        4.66532         12.0824        0.683637 
        4.68103         12.0052        0.677629 
        4.69673         11.9322        0.671697 
        4.71241         11.8245        0.665842 
        4.72811         11.7184        0.660047 
        4.74384         11.6251        0.654312 
        4.75955         11.5445        0.648654 
        4.77525         11.4833        0.643065 
        4.79096         11.3756        0.637534 
        4.80669         11.2868        0.632066 
         4.8224         11.1765        0.626667 
        4.83809         11.1151        0.621336 
        4.85379         10.9987        0.616064 
         4.8695         10.9552        0.610847 
        4.88521         10.8557        0.605693 
        4.90093         10.7562        0.600597 
        4.91663         10.6785        0.595564 
        4.93234          10.594        0.590583 
        4.94807         10.5246        0.585654 
        4.96377         10.4331        0.580791 
        4.97943         10.3623        0.575993 
        4.99514         10.2879        0.571236 
        5.01086         10.2042        0.566528 
        5.02654         10.1127        0.561885 
        5.04227          10.036         0.55728 
          5.058         9.97898        0.552725 
        5.07371          9.9142        0.548228 
        5.08942         9.79446         0.54378 
        5.10513         9.75363        0.539381 
        5.12084          9.6941        0.535028 
        5.13656         9.59945        0.530724 
        5.15225         9.53802        0.526473 
        5.16796         9.46829        0.522262 
        5.18369         9.40324        0.518093 
         5.1994         9.33714        0.513976 
        5.21509         9.24392        0.509907 
        5.23079         9.19173        0.505878 
        5.24649         9.13333        0.501894 
        5.26217         9.03437        0.497956 
        5.27788         8.98997        0.494054 
        5.29359         8.89861        0.490193 
        5.30933         8.84932        0.486367 
        5.32504         8.78899        0.482588 
        5.34073         8.71388        0.478853 
        5.35646         8.65907         0.47515 
        5.37218         8.59536        0.471484 
        5.38789          8.5298        0.467863 
        5.40357         8.47542        0.464284 
        5.41929         8.39433        0.460734 
        5.43502         8.36614        0.457221 
         5.4507         8.28913        0.453752 
        5.46639         8.21586        0.450318 
        5.48212         8.15974        0.446911 
        5.49786         8.10555        0.443535 
        5.51353         8.06552        0.440211 
        5.52921          7.9897        0.436917 
        5.54495         7.92875        0.433647 
        5.56066         7.87589        0.430413 
        5.57637         7.82454        0.427213 
        5.59207         7.77043        0.424047 
        5.60778         7.71341        0.420913 
        5.62346          7.6488        0.417813 
        5.63916         7.59622        0.414742 
        5.65487         7.54587          0.4117 
         5.6706         7.50842        0.408685 
        5.68633         7.46264        0.405698 
        5.70203          7.4088        0.402748 
        5.71773          7.3477        0.399826 
        5.73344         7.29863        0.396932 
        5.74916         7.24747        0.394064 
        5.76486         7.20108        0.391228 
        5.78054         7.15191        0.388423 
        5.79626         7.09413        0.385638 
          5.812         7.05207        0.382878 
         5.8277         7.01305        0.380152 
        5.84339         6.96599        0.377452 
        5.85911         6.91372        0.374773 
        5.87484          6.8583        0.372121 
        5.89053           6.824        0.369499 
        5.90623         6.75302        0.366901 
        5.92195          6.7264        0.364323 
        5.93767         6.68928        0.361772 
        5.95336         6.63198        0.359248 
        5.96905         6.58695         0.35675 
        5.98476         6.54483        0.354271 
        6.00048          6.5115        0.351815 
        6.01617         6.46297        0.349385 
        6.03185         6.41709        0.346981 
        6.04756         6.37492        0.344594 
        6.06331         6.34019        0.342224 
        6.07903         6.30273        0.339881 
        6.09473         6.25503        0.337562 
        6.11044          6.2072        0.335262 
        6.12616         6.16121        0.332984 
        6.14186         6.13321        0.330729 
        6.15755         6.08737        0.328495 
        6.17326         6.04335        0.326279 
        6.18898         6.00356        0.324083 
        6.20467         5.96804        0.321911 
        6.22036         5.91087        0.319758 
         6.2361         5.89589        0.317619 
         6.2518         5.85562        0.315504 
        6.26748         5.80889        0.313412 
        6.28319         5.76963        0.311333 
        6.29893         5.74161         0.30927 
        6.31463         5.69781         0.30723 
        6.33033         5.65768        0.305209 
        6.34604         5.63495        0.303204 
        6.36177         5.59791        0.301216 
        6.37747         5.55983        0.299248 
