# k  (h/Mpc)    Pcb(k)  (Mpc/h)^3    Pcb_linear(k) (Mpc/h)^3   ShotnoiseSubtracted = true
      0.0200456         9111.56         9225.54 
      0.0350414         6627.68         6452.99 
      0.0492313         4663.94         4689.15 
      0.0637834          3721.7         3833.99 
      0.0800726         2813.06          2900.1 
       0.096163         2172.92         2090.01 
       0.111083         1798.71         1713.36 
       0.126058         1489.13         1494.89 
       0.142273         1229.28         1203.67 
       0.158546         1006.62         952.594 
        0.17375         891.478         829.402 
       0.188953         812.111         740.135 
       0.204907         674.762         627.538 
       0.220756         601.669         530.775 
        0.23588         538.119         473.903 
         0.2514         479.755         427.614 
       0.267535         455.905         375.261 
       0.283568         395.685         329.571 
       0.299022         375.662         298.132 
       0.314451          371.01         271.944 
       0.330372         317.775         244.826 
       0.346141         293.384         220.838 
       0.361624         277.733         202.103 
       0.377134          256.18         185.948 
       0.392932         248.122         170.286 
       0.408854          234.44         156.002 
       0.424564          224.43         144.026 
       0.440253         202.264         133.487 
       0.455999         190.896         123.672 
       0.471626         187.759         114.792 
        0.48727         179.138         106.908 
       0.502856         163.167         99.8513 
       0.518488         162.219         93.3389 
       0.534347         150.797         87.2705 
       0.550082         147.119           81.82 
       0.565732         144.726         76.8799 
       0.581496         133.552         72.2978 
       0.597222         130.529         68.0781 
       0.612804          125.84         64.2344 
       0.628434         122.153         60.6864 
       0.644267         115.778         57.3629 
       0.660051         112.477         54.2938 
       0.675724         110.761         51.4652 
       0.691403         107.846         48.8347 
       0.707174         103.799         46.3723 
       0.722871          101.97         44.0884 
        0.73838         99.7862         41.9817 
       0.754018         93.5494          39.996 
       0.769845         93.0623         38.1164 
        0.78569         90.3472         36.3552 
       0.801365         87.2698         34.7219 
       0.817031         84.5862         33.1897 
       0.832809         82.9281         31.7397 
       0.848511         80.9679         30.3824 
       0.864097         79.4058         29.1134 
       0.879701         77.9312         27.9152 
       0.895507         75.0473         26.7701 
       0.911279         73.6387         25.6913 
        0.92691         71.7669         24.6805 
       0.942635         69.9941         23.7182 
       0.958396         69.8232          22.805 
       0.974128         68.0962         21.9412 
       0.989692         66.3606         21.1305 
        1.00528         65.1238         20.3593 
        1.02113         63.5771         19.6144 
        1.03692          63.395         18.9093 
        1.05264         62.2456         18.2419 
        1.06832         60.1905         17.6076 
        1.08405         59.4667         17.0016 
        1.09979          58.915         16.4237 
        1.11537         57.2667         15.8782 
        1.13105         56.1468         15.3541 
        1.14679         55.4736         14.8515 
        1.16256         54.3909         14.3703 
        1.17828         53.9166         13.9119 
        1.19395         52.4041         13.4749 
         1.2097         52.4852         13.0544 
        1.22537         51.0926         12.6537 
          1.241         50.8412          12.271 
        1.25666         49.0942         11.9031 
        1.27241         49.0205         11.5484 
        1.28819         48.3701         11.2075 
        1.30392         47.3613         10.8813 
        1.31957         47.1403         10.5695 
        1.33529         46.3563         10.2687 
        1.35108          45.696         9.97827 
        1.36674          44.871         9.70112 
         1.3824         44.2698         9.43468 
        1.39811         43.4762         9.17731 
        1.41389         42.8749          8.9285 
        1.42964         42.5237         8.68928 
        1.44531         41.7944         8.45994 
        1.46101         41.4405         8.23833 
        1.47667         40.7958         8.02528 
        1.49229         40.1708         7.82028 
        1.50793         39.8437         7.62217 
        1.52367          39.324          7.4296 
        1.53953         38.9294         7.24235 
        1.55526         38.1871         7.06301 
        1.57092         37.9461         6.89045 
        1.58662         37.4211          6.7232 
        1.60235          36.879         6.56114 
        1.61809         36.3833         6.40431 
        1.63369         35.8722         6.25397 
        1.64941         35.5233         6.10734 
        1.66519          34.952         5.96486 
        1.68085         34.5828          5.8279 
        1.69652         34.0818         5.69518 
        1.71228         33.8693          5.5658 
        1.72806          33.414         5.44032 
        1.74368         32.8709         5.31994 
        1.75933         32.7293         5.20293 
        1.77505         32.3697         5.08887 
        1.79081          31.993         4.97801 
         1.8065         31.5351          4.8709 
        1.82218         30.9552         4.76701 
        1.83797          30.777         4.66542 
        1.85367         30.4011         4.56733 
        1.86928         30.3288         4.47263 
        1.88497         29.7324         4.38008 
        1.90073         29.4786         4.28979 
        1.91647         29.2909         4.20211 
        1.93218         29.1063         4.11704 
        1.94787         28.6711         4.03444 
        1.96363         28.2037         3.95376 
        1.97935         28.0201         3.87544 
        1.99499         27.7316         3.79966 
        2.01064         27.3275         3.72579 
         2.0264         27.1605          3.6534 
        2.04216          26.966         3.58296 
        2.05781         26.6348          3.5148 
        2.07353          26.258         3.44817 
        2.08928         26.1171          3.3831 
        2.10499         25.7979         3.31987 
        2.12065         25.4932         3.25843 
        2.13633         25.3416         3.19849 
        2.15211         24.9022         3.13965 
        2.16785         24.6862         3.08245 
        2.18349         24.4846         3.02702 
        2.19916         24.2235         2.97283 
        2.21489         23.9962         2.91977 
        2.23063           23.81         2.86797 
         2.2463          23.609         2.81764 
        2.26194         23.2802         2.76864 
        2.27765         23.0709         2.72054 
        2.29341         22.7776         2.67345 
        2.30914         22.5502         2.62757 
        2.32486         22.3729         2.58278 
        2.34061         22.1473         2.53895 
        2.35635         21.9084         2.49617 
        2.37203         21.7555         2.45451 
        2.38768         21.5214         2.41388 
        2.40339         21.3778         2.37402 
        2.41914         21.1621         2.33496 
        2.43483         21.0708         2.29691 
         2.4505         20.6896         2.25977 
        2.46622          20.481         2.22331 
        2.48195         20.3421         2.18764 
        2.49759         20.0372         2.15295 
        2.51328         19.8849         2.11891 
        2.52906          19.747         2.08538 
        2.54479         19.5609          2.0527 
        2.56049         19.4797         2.02078 
        2.57618         19.2543         1.98956 
        2.59189              19         1.95894 
        2.60758          18.824         1.92902 
        2.62325         18.6245         1.89974 
        2.63898         18.5666         1.87097 
        2.65468         18.3722         1.84285 
        2.67044         18.1478         1.81519 
        2.68618         17.9351         1.78815 
        2.70184         17.7756         1.76176 
        2.71755         17.6063         1.73584 
        2.73329         17.4293          1.7104 
        2.74897         17.3483         1.68554 
        2.76462         17.2193         1.66123 
        2.78034         16.9291         1.63729 
        2.79607         16.8231          1.6138 
        2.81179         16.6894         1.59079 
        2.82749         16.4962         1.56825 
        2.84321         16.4106         1.54612 
        2.85893         16.2403         1.52442 
        2.87462         16.0778         1.50317 
        2.89033         15.9666          1.4823 
        2.90605         15.7671         1.46181 
        2.92176         15.5938         1.44171 
        2.93747         15.5236         1.42199 
        2.95318         15.3844         1.40264 
        2.96891         15.1708         1.38364 
        2.98456          15.135         1.36506 
        3.00023         14.9507          1.3468 
        3.01596         14.7863         1.32882 
        3.03164         14.6952         1.31121 
        3.04738         14.5834         1.29387 
         3.0631         14.4349         1.27684 
        3.07883         14.3128         1.26012 
        3.09456           14.19         1.24369 
        3.11026         14.0713         1.22758 
        3.12596         13.9184         1.21176 
        3.14163         13.8155         1.19625 
        3.15734         13.7094         1.18097 
        3.17308         13.5784         1.16592 
        3.18879         13.4161         1.15117 
        3.20447         13.3768         1.13669 
         3.2202         13.2151         1.12242 
         3.2359         13.1066         1.10842 
        3.25157         13.0269         1.09468 
        3.26729         12.8886         1.08114 
        3.28304         12.8111         1.06779 
        3.29877         12.7398         1.05469 
        3.31446         12.5933         1.04183 
        3.33014         12.4641          1.0292 
        3.34585         12.3818         1.01675 
        3.36158         12.2652         1.00449 
        3.37727         12.1691        0.992473 
        3.39294         12.0488        0.980659 
        3.40867         11.9438        0.968992 
        3.42439         11.8603         0.95752 
        3.44008         11.7703        0.946254 
        3.45578         11.6403        0.935159 
        3.47153          11.553        0.924217 
        3.48724         11.4866        0.913467 
        3.50292         11.3841        0.902912 
        3.51859         11.2729        0.892527 
        3.53431          11.179        0.882272 
        3.55007         11.0962        0.872152 
        3.56577         10.9887        0.862228 
        3.58146          10.893        0.852462 
        3.59719         10.8044        0.842824 
        3.61292         10.7379        0.833336 
        3.62859         10.6248        0.824029 
        3.64429         10.5485        0.814845 
        3.66003         10.4558        0.805772 
        3.67578         10.3756        0.796839 
        3.69146         10.2925        0.788073 
        3.70712         10.1743        0.779455 
        3.72284         10.1144        0.770932 
        3.73853         10.0397         0.76255 
        3.75422         9.94008        0.754289 
        3.76993         9.85058        0.746142 
        3.78564         9.79804        0.738118 
        3.80137         9.71571        0.730197 
        3.81707         9.62047        0.722408 
        3.83279         9.57516        0.714726 
        3.84853         9.47493        0.707142 
        3.86424         9.37942        0.699682 
        3.87992          9.3222        0.692339 
        3.89561         9.25204          0.6851 
        3.91134         9.17178         0.67795 
        3.92704         9.12055        0.670909 
        3.94273         9.04603        0.663973 
        3.95845         8.93686        0.657123 
        3.97418         8.87384        0.650366 
        3.98988         8.84297        0.643713 
        4.00554         8.73173        0.637171 
        4.02125         8.68618        0.630699 
        4.03698         8.61774        0.624307 
        4.05268         8.55506        0.618017 
        4.06839         8.46641        0.611809 
         4.0841         8.40618        0.605686 
        4.09983         8.32583        0.599639 
        4.11555         8.26277        0.593675 
        4.13124         8.20267        0.587808 
        4.14693         8.12723        0.582015 
        4.16266         8.06481        0.576286 
        4.17839         7.98895        0.570637 
        4.19408         7.94551        0.565075 
        4.20977         7.86025        0.559585 
        4.22551         7.82692        0.554153 
        4.24123         7.75359        0.548799 
        4.25691         7.69062         0.54353 
        4.27259          7.6285        0.538327 
        4.28831         7.56847        0.533181 
        4.30404         7.52749        0.528098 
        4.31974         7.45865         0.52309 
        4.33543         7.39671        0.518151 
        4.35116         7.33146        0.513262 
        4.36688         7.28651        0.508438 
        4.38255         7.24187        0.503693 
        4.39825         7.15687        0.498998 
        4.41398         7.10848        0.494353 
         4.4297         7.06221        0.489771 
        4.44541         7.01006        0.485248 
        4.46111         6.94121        0.480785 
        4.47683         6.91444        0.476374 
        4.49251         6.85212        0.472027 
        4.50819         6.78537        0.467735 
         4.5239          6.7507         0.46349 
        4.53962         6.69057        0.459292 
        4.55535         6.64402        0.455143 
        4.57106         6.60275        0.451051 
        4.58678         6.55421        0.447007 
         4.6025         6.49133        0.443013 
        4.61821         6.43734        0.439067 
        4.63391         6.40889        0.435173 
         4.6496         6.36086        0.431329 
        4.66532         6.31554        0.427524 
        4.68103         6.25673        0.423766 
        4.69673         6.21287        0.420057 
        4.71241         6.16431        0.416395 
        4.72811         6.11526        0.412771 
        4.74384         6.09503        0.409185 
        4.75955           6.045        0.405646 
        4.77525         6.00359        0.402151 
        4.79096         5.97283        0.398693 
        4.80669         5.91293        0.395273 
         4.8224         5.88004        0.391896 
        4.83809         5.82501        0.388563 
        4.85379         5.78734        0.385266 
         4.8695         5.76232        0.382004 
        4.88521         5.70896         0.37878 
        4.90093         5.66294        0.375594 
        4.91663         5.61894        0.372446 
        4.93234         5.58195        0.369331 
        4.94807         5.53667        0.366249 
        4.96377         5.49918        0.363207 
        4.97943         5.46126        0.360207 
        4.99514         5.42266        0.357232 
        5.01086         5.37635        0.354288 
        5.02654         5.34668        0.351384 
        5.04227         5.30817        0.348505 
          5.058         5.26652        0.345655 
        5.07371         5.24258        0.342844 
        5.08942          5.1919        0.340062 
        5.10513         5.16282        0.337311 
        5.12084         5.11971        0.334589 
        5.13656         5.07995        0.331897 
        5.15225         5.03871        0.329239 
        5.16796         5.01701        0.326605 
        5.18369         4.97626        0.323998 
         5.1994         4.94164        0.321423 
        5.21509         4.91801        0.318879 
        5.23079         4.87462        0.316359 
        5.24649         4.83227        0.313868 
        5.26217          4.8106        0.311405 
        5.27788         4.77054        0.308965 
        5.29359           4.747         0.30655 
        5.30933         4.70907        0.304158 
        5.32504         4.69223        0.301794 
        5.34073         4.64709        0.299459 
        5.35646         4.61609        0.297143 
        5.37218         4.58563        0.294851 
        5.38789         4.55879        0.292586 
        5.40357         4.52709        0.290348 
        5.41929         4.48509        0.288128 
        5.43502         4.45901         0.28593 
         5.4507         4.42891        0.283761 
        5.46639         4.39579        0.281614 
        5.48212         4.37951        0.279483 
        5.49786         4.35432        0.277372 
        5.51353         4.32411        0.275293 
        5.52921         4.28895        0.273233 
        5.54495         4.25947        0.271188 
        5.56066         4.23854        0.269166 
        5.57637         4.20654        0.267165 
        5.59207         4.17732        0.265185 
        5.60778         4.14771        0.263225 
        5.62346         4.11955        0.261287 
        5.63916         4.09197        0.259366 
        5.65487         4.07151        0.257464 
         5.6706         4.04962        0.255578 
        5.68633         4.01555         0.25371 
        5.70203         3.99261        0.251865 
        5.71773         3.96766        0.250038 
        5.73344         3.94229        0.248228 
        5.74916          3.9155        0.246434 
        5.76486         3.89607        0.244661 
        5.78054         3.87014        0.242907 
        5.79626         3.83932        0.241165 
          5.812         3.81392        0.239439 
         5.8277         3.80129        0.237734 
        5.84339         3.77208        0.236046 
        5.85911         3.74762        0.234371 
        5.87484         3.71804        0.232712 
        5.89053         3.69922        0.231072 
        5.90623         3.68248        0.229448 
        5.92195         3.66202        0.227836 
        5.93767         3.63043         0.22624 
        5.95336         3.61811        0.224662 
        5.96905         3.59283        0.223099 
        5.98476         3.57015        0.221549 
        6.00048         3.54253        0.220013 
        6.01617          3.5226        0.218494 
        6.03185         3.49703        0.216991 
        6.04756         3.47648        0.215498 
        6.06331         3.45823        0.214015 
        6.07903         3.43796         0.21255 
        6.09473         3.42246          0.2111 
        6.11044         3.39527        0.209662 
        6.12616         3.37813        0.208237 
        6.14186         3.35233        0.206827 
        6.15755         3.33278        0.205429 
        6.17326         3.31647        0.204044 
        6.18898         3.29423        0.202671 
        6.20467           3.274        0.201312 
        6.22036         3.25398        0.199966 
         6.2361         3.23075        0.198629 
         6.2518         3.21463        0.197305 
        6.26748         3.19626        0.195997 
        6.28319         3.17815        0.194697 
        6.29893         3.15725        0.193407 
        6.31463          3.1379        0.192132 
        6.33033         3.12509        0.190868 
        6.34604         3.10278        0.189614 
        6.36177         3.08727         0.18837 
        6.37747         3.07234         0.18714 
