# k  (h/Mpc)    Pcb(k)  (Mpc/h)^3    Pcb_linear(k) (Mpc/h)^3   ShotnoiseSubtracted = true
      0.0200456          1309.7         1326.19 
      0.0350414         923.441         927.634 
      0.0492313         675.873         674.077 
      0.0637834         555.969         551.145 
      0.0800726         421.837         416.897 
       0.096163         299.831         300.444 
       0.111083         243.888           246.3 
       0.126058         215.812         214.895 
       0.142273          175.91          173.03 
       0.158546          139.85         136.938 
        0.17375         118.995         119.229 
       0.188953         107.869         106.396 
       0.204907         94.7639         90.2101 
       0.220756         78.9409         76.3002 
        0.23588         70.0942         68.1247 
         0.2514          62.555         61.4706 
       0.267535         55.7417         53.9447 
       0.283568         49.3499         47.3767 
       0.299022         44.9723         42.8572 
       0.314451         40.1601         39.0927 
       0.330372         36.7284         35.1943 
       0.346141         33.1538         31.7461 
       0.361624         30.5976         29.0528 
       0.377134         28.5318         26.7305 
       0.392932         25.2109          24.479 
       0.408854         23.9919         22.4256 
       0.424564         22.2215         20.7041 
       0.440253         20.4791          19.189 
       0.455999           19.18         17.7782 
       0.471626         17.9468         16.5016 
        0.48727         16.7751         15.3683 
       0.502856         15.6129         14.3539 
       0.518488         14.8473         13.4177 
       0.534347         14.1253         12.5454 
       0.550082         12.8637         11.7618 
       0.565732         11.8704         11.0517 
       0.581496         11.5808          10.393 
       0.597222         11.0695         9.78639 
       0.612804         10.2849         9.23386 
       0.628434         9.88369         8.72382 
       0.644267         9.43821         8.24606 
       0.660051         8.87181         7.80487 
       0.675724         8.40446         7.39825 
       0.691403           8.101         7.02011 
       0.707174         7.67643         6.66613 
       0.722871          7.3376         6.33782 
        0.73838          7.0255         6.03498 
       0.754018         6.78256         5.74953 
       0.769845         6.42502         5.47933 
        0.78569           6.195         5.22615 
       0.801365         5.91163         4.99136 
       0.817031         5.69917         4.77109 
       0.832809         5.50498         4.56266 
       0.848511         5.18154         4.36754 
       0.864097         4.99599         4.18512 
       0.879701          4.8226         4.01289 
       0.895507         4.59634         3.84827 
       0.911279           4.522         3.69318 
        0.92691         4.34392         3.54788 
       0.942635         4.14427         3.40955 
       0.958396         3.99483         3.27827 
       0.974128         3.87893         3.15411 
       0.989692         3.79539         3.03756 
        1.00528         3.62178          2.9267 
        1.02113         3.48352         2.81962 
        1.03692         3.40917         2.71826 
        1.05264         3.28722         2.62232 
        1.06832         3.20233         2.53114 
        1.08405         3.05027         2.44403 
        1.09979          2.9848         2.36094 
        1.11537         2.90188         2.28253 
        1.13105         2.81877         2.20718 
        1.14679         2.74122         2.13493 
        1.16256         2.64526         2.06576 
        1.17828         2.58412         1.99987 
        1.19395          2.5097         1.93705 
         1.2097         2.40573          1.8766 
        1.22537          2.3452           1.819 
          1.241         2.29421         1.76399 
        1.25666         2.27275          1.7111 
        1.27241         2.16462         1.66012 
        1.28819         2.11762         1.61111 
        1.30392         2.07472         1.56422 
        1.31957         2.02307         1.51939 
        1.33529         1.96152         1.47614 
        1.35108         1.91457          1.4344 
        1.36674         1.86212         1.39456 
         1.3824         1.80355         1.35626 
        1.39811         1.76514         1.31926 
        1.41389         1.73434         1.28349 
        1.42964         1.69225         1.24911 
        1.44531         1.65258         1.21614 
        1.46101         1.61373         1.18428 
        1.47667          1.5601         1.15365 
        1.49229         1.54573         1.12418 
        1.50793         1.50147         1.09571 
        1.52367         1.47699         1.06802 
        1.53953         1.42835         1.04111 
        1.55526         1.39998         1.01533 
        1.57092         1.37162        0.990519 
        1.58662         1.34432        0.966476 
        1.60235         1.31165        0.943181 
        1.61809         1.28226        0.920636 
        1.63369         1.26769        0.899023 
        1.64941         1.23186        0.877945 
        1.66519         1.21052        0.857463 
        1.68085         1.17508        0.837775 
        1.69652         1.15498        0.818695 
        1.71228         1.13766        0.800098 
        1.72806         1.10568        0.782059 
        1.74368         1.08998        0.764754 
        1.75933         1.06388        0.747934 
        1.77505         1.04681        0.731538 
        1.79081         1.02655        0.715601 
         1.8065         1.00246        0.700204 
        1.82218          0.9901         0.68527 
        1.83797        0.973562        0.670666 
        1.85367        0.958242        0.656566 
        1.86928        0.940438        0.642952 
        1.88497        0.915914        0.629648 
        1.90073        0.895255        0.616668 
        1.91647         0.88781        0.604063 
        1.93218        0.872618        0.591835 
        1.94787        0.852209        0.579961 
        1.96363        0.835816        0.568363 
        1.97935        0.821295        0.557104 
        1.99499        0.805876        0.546211 
        2.01064        0.791991        0.535591 
         2.0264        0.783892        0.525186 
        2.04216        0.767991        0.515059 
        2.05781        0.752749        0.505262 
        2.07353         0.74306        0.495682 
        2.08928        0.727428        0.486328 
        2.10499        0.716676        0.477239 
        2.12065        0.709848        0.468408 
        2.13633        0.695699        0.459791 
        2.15211        0.682427        0.451333 
        2.16785        0.668785         0.44311 
        2.18349        0.661675        0.435142 
        2.19916        0.649477        0.427352 
        2.21489        0.637991        0.419725 
        2.23063        0.627519        0.412278 
         2.2463        0.622394        0.405043 
        2.26194        0.606064        0.397999 
        2.27765        0.597905        0.391085 
        2.29341        0.592011        0.384316 
        2.30914        0.585067        0.377719 
        2.32486        0.575418         0.37128 
        2.34061        0.565563         0.36498 
        2.35635        0.554149         0.35883 
        2.37203        0.548372        0.352842 
        2.38768        0.540765        0.347002 
        2.40339        0.533295        0.341272 
        2.41914         0.52693        0.335657 
        2.43483         0.51738        0.330187 
         2.4505        0.509075        0.324847 
        2.46622        0.502034        0.319606 
        2.48195        0.497845        0.314479 
        2.49759        0.489271        0.309492 
        2.51328        0.480234        0.304598 
        2.52906         0.47417        0.299779 
        2.54479        0.468799        0.295081 
        2.56049        0.461379        0.290492 
        2.57618         0.45658        0.286004 
        2.59189        0.449297        0.281603 
        2.60758        0.444023        0.277301 
        2.62325        0.437653        0.273093 
        2.63898        0.432972        0.268957 
        2.65468        0.426849        0.264915 
        2.67044        0.420002        0.260938 
        2.68618        0.413781        0.257051 
        2.70184        0.408582        0.253258 
        2.71755        0.403459        0.249532 
        2.73329        0.399837        0.245874 
        2.74897        0.394124        0.242301 
        2.76462        0.388783        0.238806 
        2.78034        0.384512        0.235365 
        2.79607        0.379155        0.231988 
        2.81179        0.374124         0.22868 
        2.82749          0.3706         0.22544 
        2.84321         0.36646        0.222259 
        2.85893        0.361269        0.219139 
        2.87462        0.357243        0.216084 
        2.89033         0.35165        0.213084 
        2.90605        0.348457        0.210138 
        2.92176        0.343713        0.207249 
        2.93747        0.340012        0.204415 
        2.95318        0.336201        0.201633 
        2.96891         0.33247        0.198901 
        2.98456        0.328937        0.196231 
        3.00023        0.325204        0.193606 
        3.01596        0.320929        0.191021 
        3.03164        0.318518         0.18849 
        3.04738        0.312626        0.185996 
         3.0631        0.310876        0.183549 
        3.07883        0.306158        0.181145 
        3.09456        0.302805        0.178784 
        3.11026        0.299666        0.176468 
        3.12596        0.296043        0.174193 
        3.14163        0.293273        0.171963 
        3.15734        0.291234        0.169767 
        3.17308        0.286956        0.167604 
        3.18879        0.284087        0.165483 
        3.20447         0.28133        0.163403 
         3.2202        0.278466        0.161351 
         3.2359        0.275406        0.159338 
        3.25157        0.272198        0.157363 
        3.26729         0.27061        0.155416 
        3.28304        0.267174        0.153498 
        3.29877        0.264204        0.151614 
        3.31446        0.262197        0.149766 
        3.33014        0.259837         0.14795 
        3.34585        0.258078        0.146161 
        3.36158        0.254759        0.144399 
        3.37727         0.25262         0.14267 
        3.39294        0.250165        0.140972 
        3.40867        0.247197        0.139295 
        3.42439        0.245471        0.137646 
        3.44008        0.243515        0.136026 
        3.45578        0.241802        0.134431 
        3.47153        0.238968        0.132858 
        3.48724        0.237617        0.131313 
        3.50292        0.235646        0.129796 
        3.51859        0.232541        0.128303 
        3.53431        0.230978        0.126829 
        3.55007        0.229709        0.125374 
        3.56577        0.226835        0.123947 
        3.58146        0.224637        0.122544 
        3.59719        0.223407        0.121158 
        3.61292        0.221587        0.119794 
        3.62859        0.218558        0.118456 
        3.64429        0.217612        0.117136 
        3.66003         0.21588        0.115832 
        3.67578        0.213656        0.114548 
        3.69146         0.21255        0.113287 
        3.70712        0.210704        0.112049 
        3.72284        0.209094        0.110823 
        3.73853        0.207901        0.109619 
        3.75422        0.205506        0.108431 
        3.76993        0.204301         0.10726 
        3.78564        0.202467        0.106106 
        3.80137        0.200425        0.104968 
        3.81707             0.2        0.103848 
        3.83279        0.197863        0.102744 
        3.84853        0.196197        0.101653 
        3.86424        0.194617        0.100581 
        3.87992         0.19336       0.0995254 
        3.89561        0.191603       0.0984849 
        3.91134        0.190856        0.097457 
        3.92704        0.188604       0.0964448 
        3.94273        0.187423       0.0954478 
        3.95845        0.185809        0.094463 
        3.97418        0.184039       0.0934918 
        3.98988        0.182602       0.0925354 
        4.00554         0.18103       0.0915949 
        4.02125        0.179326       0.0906646 
        4.03698         0.17778       0.0897457 
        4.05268        0.176349       0.0888415 
        4.06839        0.174163        0.087949 
         4.0841        0.171947       0.0870689 
        4.09983        0.170066       0.0861995 
        4.11555        0.168354       0.0853423 
        4.13124        0.166264       0.0844989 
        4.14693        0.165112       0.0836661 
        4.16266        0.163245       0.0828425 
        4.17839        0.161918       0.0820304 
        4.19408        0.160393       0.0812309 
        4.20977        0.159029       0.0804417 
        4.22551          0.1578       0.0796609 
        4.24123        0.156088       0.0788912 
        4.25691        0.154817       0.0781337 
        4.27259        0.153624       0.0773858 
        4.28831        0.152482       0.0766461 
        4.30404        0.150767       0.0759153 
        4.31974        0.150282       0.0751955 
        4.33543        0.148809       0.0744854 
        4.35116          0.1479       0.0737827 
        4.36688        0.146771       0.0730892 
        4.38255        0.145632       0.0724071 
        4.39825        0.144875       0.0717322 
        4.41398        0.143687       0.0710644 
         4.4297        0.142728       0.0704058 
        4.44541        0.142087       0.0697556 
        4.46111        0.141727        0.069114 
        4.47683        0.140871         0.06848 
        4.49251         0.13978       0.0678551 
        4.50819        0.139125       0.0672381 
         4.5239        0.138935       0.0666278 
        4.53962        0.138112       0.0660243 
        4.55535        0.137711       0.0654279 
        4.57106        0.136951       0.0648396 
        4.58678        0.136617       0.0642584 
         4.6025        0.135716       0.0636841 
        4.61821          0.1355       0.0631169 
        4.63391        0.135025       0.0625573 
         4.6496        0.134842       0.0620045 
        4.66532        0.134298       0.0614576 
        4.68103        0.134491       0.0609175 
        4.69673         0.13393       0.0603842 
        4.71241        0.133785       0.0598579 
        4.72811        0.133288       0.0593369 
        4.74384        0.133355       0.0588213 
        4.75955        0.133368       0.0583127 
        4.77525        0.133321       0.0578102 
        4.79096        0.133069       0.0573131 
        4.80669        0.133082       0.0568214 
         4.8224        0.133005       0.0563361 
        4.83809        0.133051       0.0558569 
        4.85379        0.133625       0.0553829 
         4.8695        0.133165        0.054914 
        4.88521        0.133383       0.0544506 
        4.90093         0.13391       0.0539925 
        4.91663         0.13421         0.05354 
        4.93234        0.134142       0.0530922 
        4.94807        0.134692       0.0526492 
        4.96377        0.135107        0.052212 
        4.97943        0.135789       0.0517806 
        4.99514        0.135869       0.0513529 
        5.01086        0.136678       0.0509298 
        5.02654        0.136848       0.0505124 
        5.04227        0.137076       0.0500984 
          5.058        0.138222       0.0496888 
        5.07371        0.138547       0.0492846 
        5.08942        0.139726       0.0488848 
        5.10513        0.139942       0.0484893 
        5.12084        0.140702       0.0480979 
        5.13656        0.141625        0.047711 
        5.15225        0.142646       0.0473289 
        5.16796         0.14388       0.0469503 
        5.18369        0.143606       0.0465755 
         5.1994        0.144975       0.0462054 
        5.21509         0.14599       0.0458396 
        5.23079        0.147575       0.0454774 
        5.24649        0.148217       0.0451193 
        5.26217        0.149112       0.0447652 
        5.27788        0.150221       0.0444145 
        5.29359        0.151543       0.0440674 
        5.30933        0.153315       0.0437234 
        5.32504        0.153711       0.0433837 
        5.34073        0.155516       0.0430479 
        5.35646        0.156677        0.042715 
        5.37218        0.157798       0.0423855 
        5.38789        0.159478         0.04206 
        5.40357        0.161284       0.0417382 
        5.41929        0.162248       0.0414191 
        5.43502        0.163231       0.0411032 
         5.4507         0.16535       0.0407914 
        5.46639        0.167175       0.0404827 
        5.48212        0.169036       0.0401764 
        5.49786        0.170353       0.0398729 
        5.51353        0.173267       0.0395741 
        5.52921        0.173983        0.039278 
        5.54495        0.175724        0.038984 
        5.56066        0.178876       0.0386933 
        5.57637        0.179721       0.0384056 
        5.59207        0.182778        0.038121 
        5.60778        0.184119       0.0378392 
        5.62346        0.187152       0.0375606 
        5.63916        0.188051       0.0372845 
        5.65487        0.190251        0.037011 
         5.6706        0.192226         0.03674 
        5.68633         0.19641       0.0364715 
        5.70203        0.197563       0.0362062 
        5.71773        0.200049       0.0359436 
        5.73344        0.201521       0.0356834 
        5.74916        0.204527       0.0354256 
        5.76486        0.206287       0.0351706 
        5.78054        0.210515       0.0349185 
        5.79626         0.21065       0.0346681 
          5.812        0.214425       0.0344199 
         5.8277        0.216636       0.0341749 
        5.84339        0.220671       0.0339322 
        5.85911          0.2221       0.0336914 
        5.87484        0.223912       0.0334529 
        5.89053        0.228342       0.0332172 
        5.90623        0.230193       0.0329837 
        5.92195        0.233511       0.0327519 
        5.93767        0.236243       0.0325225 
        5.95336        0.238485       0.0322957 
        5.96905        0.242916       0.0320711 
        5.98476        0.245133       0.0318483 
        6.00048        0.249001       0.0316275 
        6.01617        0.250375        0.031409 
        6.03185        0.253279       0.0311929 
        6.04756         0.25621       0.0309783 
        6.06331        0.258879       0.0307652 
        6.07903        0.262414       0.0305546 
        6.09473        0.266237       0.0303461 
        6.11044        0.268841       0.0301394 
        6.12616        0.271925       0.0299346 
        6.14186         0.27583       0.0297318 
        6.15755        0.278375        0.029531 
        6.17326        0.282197       0.0293318 
        6.18898        0.286027       0.0291344 
        6.20467        0.290411       0.0289391 
        6.22036        0.289621       0.0287456 
         6.2361        0.293474       0.0285534 
         6.2518        0.297459       0.0283631 
        6.26748        0.300281       0.0281751 
        6.28319         0.30455       0.0279882 
        6.29893        0.306866       0.0278028 
        6.31463        0.311297       0.0276194 
        6.33033        0.314558       0.0274377 
        6.34604        0.317328       0.0272575 
        6.36177        0.320107       0.0270787 
        6.37747        0.323574       0.0269018 
