# k  (h/Mpc)    Pcb(k)  (Mpc/h)^3    Pcb_linear(k) (Mpc/h)^3   ShotnoiseSubtracted = true
      0.0200456          2385.8         2416.65 
      0.0350414         1784.47         1756.83 
      0.0492313         1278.77         1276.48 
      0.0637834         1045.31         1061.12 
      0.0800726         826.963         842.188 
       0.096163         623.685          611.08 
       0.111083          501.96         487.413 
       0.126058         429.473         431.948 
       0.142273         363.775         365.955 
       0.158546         293.794         289.027 
        0.17375         251.717         243.505 
       0.188953         226.836         220.489 
       0.204907          194.08         195.087 
       0.220756         170.503         165.056 
        0.23588         149.098         143.584 
         0.2514         134.875         130.445 
       0.267535         124.928          118.03 
       0.283568         109.632         104.087 
       0.299022         100.121         92.7359 
       0.314451         94.4189         84.7543 
       0.330372         84.2794         77.7526 
       0.346141         77.0778         70.5723 
       0.361624          70.838         64.1406 
       0.377134         64.7597         59.0194 
       0.392932          62.614         54.6095 
       0.408854         57.2286         50.3394 
       0.424564         54.5555         46.3986 
       0.440253         49.7406         43.0169 
       0.455999         45.4995         40.0763 
       0.471626         43.0808          37.374 
        0.48727         41.7996         34.8461 
       0.502856         38.9705         32.5752 
       0.518488         36.4615          30.549 
       0.534347           34.31         28.6653 
       0.550082         32.9675         26.9284 
       0.565732         31.6818         25.3394 
       0.581496         29.7394         23.8841 
       0.597222         28.1208         22.5494 
       0.612804         26.7787         21.3221 
       0.628434         26.2333         20.1782 
       0.644267         24.8113         19.1087 
       0.660051         23.5548         18.1231 
       0.675724         22.4413         17.2129 
       0.691403         21.9592         16.3645 
       0.707174         21.0337         15.5684 
       0.722871         20.3407         14.8285 
        0.73838         19.2455         14.1446 
       0.754018         18.2777         13.4987 
       0.769845         17.7762         12.8861 
        0.78569         17.2246          12.311 
       0.801365         16.5539         11.7767 
       0.817031         15.9607         11.2746 
       0.832809         15.4368         10.7988 
       0.848511         14.9574         10.3526 
       0.864097         14.4467         9.93488 
       0.879701         14.1926         9.53991 
       0.895507         13.6549         9.16185 
       0.911279         13.0865         8.80515 
        0.92691         12.8071         8.47049 
       0.942635         12.4704         8.15145 
       0.958396         12.0329         7.84825 
       0.974128         11.7427         7.56108 
       0.989692         11.2049         7.29118 
        1.00528         11.1222         7.03411 
        1.02113         10.7383         6.78546 
        1.03692         10.4881          6.5498 
        1.05264         10.2225         6.32646 
        1.06832         9.99056         6.11392 
        1.08405         9.72644         5.91062 
        1.09979         9.47579         5.71648 
        1.11537         9.23708         5.53302 
        1.13105         9.04917         5.35655 
        1.14679         8.85304         5.18712 
        1.16256         8.63203         5.02472 
        1.17828         8.45515         4.86984 
        1.19395         8.26524         4.72202 
         1.2097          8.0031         4.57962 
        1.22537         7.85066         4.44379 
          1.241         7.64884          4.3139 
        1.25666         7.61851          4.1889 
        1.27241         7.44504         4.06828 
        1.28819         7.14501         3.95223 
        1.30392          7.0783         3.84105 
        1.31957         6.92259         3.73466 
        1.33529         6.81202         3.63192 
        1.35108         6.65835         3.53266 
        1.36674         6.49685         3.43782 
         1.3824         6.42685         3.34656 
        1.39811         6.29783         3.25832 
        1.41389          6.1409         3.17294 
        1.42964         6.06255         3.09077 
        1.44531         5.94258         3.01191 
        1.46101          5.8747         2.93565 
        1.47667         5.74159         2.86226 
        1.49229         5.59022         2.79159 
        1.50793         5.51717         2.72322 
        1.52367         5.40971         2.65672 
        1.53953         5.31581         2.59199 
        1.55526         5.28151         2.52994 
        1.57092         5.16026         2.47019 
        1.58662         5.08339         2.41222 
        1.60235         5.00479         2.35601 
        1.61809         4.92471         2.30157 
        1.63369         4.83002         2.24933 
        1.64941          4.7525         2.19835 
        1.66519         4.69635         2.14876 
        1.68085          4.6103         2.10106 
        1.69652         4.55583          2.0548 
        1.71228         4.50047         2.00967 
        1.72806         4.41842         1.96586 
        1.74368         4.36595          1.9238 
        1.75933         4.29819         1.88289 
        1.77505         4.21286         1.84298 
        1.79081         4.18095         1.80416 
         1.8065         4.12731         1.76663 
        1.82218         4.05749         1.73019 
        1.83797         3.98313         1.69454 
        1.85367         3.93038         1.66009 
        1.86928         3.90499         1.62681 
        1.88497         3.81818         1.59426 
        1.90073         3.78508         1.56248 
        1.91647         3.72871          1.5316 
        1.93218         3.68308         1.50162 
        1.94787         3.63953         1.47249 
        1.96363         3.59695         1.44401 
        1.97935         3.54925         1.41635 
        1.99499         3.50793         1.38957 
        2.01064         3.46947         1.36345 
         2.0264         3.41499         1.33783 
        2.04216         3.37375         1.31288 
        2.05781         3.33226         1.28873 
        2.07353         3.30915          1.2651 
        2.08928         3.24829         1.24202 
        2.10499          3.2091         1.21957 
        2.12065         3.21006         1.19774 
        2.13633          3.1558         1.17644 
        2.15211         3.10075         1.15551 
        2.16785         3.07074         1.13515 
        2.18349         3.04315         1.11541 
        2.19916         3.01472         1.09609 
        2.21489         2.98114         1.07718 
        2.23063         2.93541         1.05869 
         2.2463         2.89913         1.04072 
        2.26194         2.87033         1.02322 
        2.27765         2.81608         1.00603 
        2.29341         2.79932        0.989187 
        2.30914         2.76739        0.972766 
        2.32486         2.75812        0.956728 
        2.34061         2.72359        0.941025 
        2.35635         2.69517        0.925689 
        2.37203         2.67945        0.910748 
        2.38768         2.65268        0.896168 
        2.40339         2.60666        0.881854 
        2.41914         2.58248         0.86782 
        2.43483         2.55605        0.854141 
         2.4505          2.5367        0.840781 
        2.46622         2.50712         0.82766 
        2.48195         2.49061        0.814819 
        2.49759         2.45951        0.802318 
        2.51328         2.44022        0.790048 
        2.52906         2.41631        0.777957 
        2.54479         2.39045        0.766164 
        2.56049         2.36852        0.754638 
        2.57618         2.34694         0.74336 
        2.59189         2.33999        0.732296 
        2.60758         2.31245        0.721474 
        2.62325         2.27449        0.710884 
        2.63898         2.25344         0.70047 
        2.65468         2.23337        0.690286 
        2.67044           2.231        0.680261 
        2.68618         2.20665        0.670459 
        2.70184         2.18562        0.660889 
        2.71755         2.16146        0.651482 
        2.73329         2.13739        0.642244 
        2.74897         2.12435        0.633215 
        2.76462         2.10326         0.62438 
        2.78034         2.09759        0.615677 
        2.79607         2.07034         0.60713 
        2.81179         2.05418        0.598756 
        2.82749         2.03398        0.590549 
        2.84321           2.021        0.582487 
        2.85893         1.99796        0.574578 
        2.87462         1.99219        0.566829 
        2.89033         1.97278        0.559216 
        2.90605         1.96023        0.551736 
        2.92176         1.94102        0.544397 
        2.93747         1.92414        0.537196 
        2.95318          1.9086        0.530123 
        2.96891         1.90208        0.523174 
        2.98456         1.88479         0.51638 
        3.00023         1.86867        0.509697 
        3.01596          1.8469        0.503112 
        3.03164          1.8355        0.496662 
        3.04738         1.82722        0.490306 
         3.0631         1.81116        0.484064 
        3.07883         1.79818         0.47793 
        3.09456         1.77954        0.471903 
        3.11026         1.77189        0.465989 
        3.12596         1.75378        0.460178 
        3.14163         1.74809        0.454479 
        3.15734         1.72961        0.448863 
        3.17308         1.72296        0.443328 
        3.18879         1.71031        0.437902 
        3.20447         1.68905        0.432575 
         3.2202         1.69113         0.42732 
         3.2359          1.6717        0.422161 
        3.25157         1.65711          0.4171 
        3.26729         1.64682        0.412106 
        3.28304          1.6349        0.407185 
        3.29877         1.62045         0.40235 
        3.31446         1.61609        0.397604 
        3.33014         1.59758        0.392939 
        3.34585         1.59066        0.388342 
        3.36158         1.57844        0.383812 
        3.37727         1.57443        0.379367 
        3.39294         1.55895        0.374998 
        3.40867         1.55381        0.370681 
        3.42439         1.54152        0.366435 
        3.44008         1.53008        0.362263 
        3.45578         1.51807        0.358153 
        3.47153         1.51009        0.354098 
        3.48724         1.49917        0.350113 
        3.50292           1.484        0.346199 
        3.51859         1.48566        0.342346 
        3.53431          1.4687         0.33854 
        3.55007         1.46549        0.334782 
        3.56577         1.45346        0.331096 
        3.58146         1.44693        0.327467 
        3.59719         1.43526        0.323885 
        3.61292         1.42797        0.320357 
        3.62859          1.4175        0.316895 
        3.64429         1.40993        0.313477 
        3.66003         1.40022          0.3101 
        3.67578         1.39154        0.306773 
        3.69146         1.38282        0.303508 
        3.70712         1.37326        0.300296 
        3.72284         1.36635        0.297118 
        3.73853         1.35841        0.293993 
        3.75422         1.35025         0.29091 
        3.76993          1.3417         0.28787 
        3.78564         1.33135        0.284874 
        3.80137         1.32521        0.281916 
        3.81707         1.31547        0.279006 
        3.83279         1.31419        0.276135 
        3.84853         1.30401        0.273299 
        3.86424         1.29224        0.270509 
        3.87992         1.28854        0.267762 
        3.89561         1.27631        0.265053 
        3.91134         1.27426        0.262376 
        3.92704         1.26466        0.259739 
        3.94273         1.26021        0.257141 
        3.95845         1.24729        0.254573 
        3.97418          1.2445         0.25204 
        3.98988         1.23771        0.249545 
        4.00554         1.22713        0.247091 
        4.02125         1.22115        0.244662 
        4.03698         1.21153        0.242262 
        4.05268         1.20468          0.2399 
        4.06839         1.19396        0.237568 
         4.0841         1.18729        0.235267 
        4.09983         1.17911        0.232994 
        4.11555         1.17273        0.230752 
        4.13124         1.16259        0.228545 
        4.14693         1.15759        0.226365 
        4.16266         1.15081        0.224209 
        4.17839         1.14225        0.222082 
        4.19408         1.13688        0.219987 
        4.20977         1.12932        0.217918 
        4.22551         1.12403        0.215871 
        4.24123         1.11431        0.213853 
        4.25691         1.10683        0.211866 
        4.27259         1.10038        0.209903 
        4.28831         1.09888        0.207961 
        4.30404          1.0896        0.206042 
        4.31974         1.08156        0.204152 
        4.33543         1.07677        0.202286 
        4.35116         1.07011        0.200439 
        4.36688         1.06356        0.198615 
        4.38255         1.05764        0.196822 
        4.39825         1.05507        0.195046 
        4.41398          1.0472        0.193289 
         4.4297         1.04258        0.191555 
        4.44541          1.0362        0.189843 
        4.46111         1.02901        0.188153 
        4.47683         1.02675        0.186482 
        4.49251         1.02137        0.184835 
        4.50819         1.01602        0.183209 
         4.5239         1.01081          0.1816 
        4.53962         1.00383        0.180007 
        4.55535         1.00215        0.178434 
        4.57106        0.994133        0.176881 
        4.58678        0.994599        0.175346 
         4.6025        0.986923         0.17383 
        4.61821        0.985533        0.172331 
        4.63391        0.981027        0.170852 
         4.6496        0.973403        0.169391 
        4.66532        0.971576        0.167945 
        4.68103        0.967324        0.166517 
        4.69673         0.96365        0.165106 
        4.71241        0.958588        0.163713 
        4.72811        0.956018        0.162334 
        4.74384        0.953464        0.160969 
        4.75955        0.949062        0.159621 
        4.77525        0.943521         0.15829 
        4.79096        0.940586        0.156973 
        4.80669        0.939103        0.155669 
         4.8224        0.933049        0.154382 
        4.83809        0.931417        0.153111 
        4.85379        0.927393        0.151854 
         4.8695        0.923442        0.150609 
        4.88521        0.921039        0.149379 
        4.90093        0.917301        0.148163 
        4.91663        0.913861        0.146961 
        4.93234        0.910884        0.145771 
        4.94807        0.908172        0.144594 
        4.96377        0.906664        0.143432 
        4.97943         0.90441        0.142285 
        4.99514        0.901871        0.141147 
        5.01086        0.896232        0.140021 
        5.02654        0.894275        0.138911 
        5.04227        0.890906        0.137809 
          5.058        0.888988        0.136718 
        5.07371        0.886145        0.135642 
        5.08942        0.884189        0.134576 
        5.10513        0.884373        0.133523 
        5.12084        0.879139         0.13248 
        5.13656        0.875894        0.131448 
        5.15225        0.871954        0.130429 
        5.16796        0.870389        0.129419 
        5.18369        0.868545        0.128419 
         5.1994        0.868497        0.127431 
        5.21509        0.864452        0.126455 
        5.23079        0.864082        0.125487 
        5.24649        0.861156        0.124531 
        5.26217        0.859662        0.123585 
        5.27788        0.855974        0.122648 
        5.29359        0.855301         0.12172 
        5.30933          0.8543          0.1208 
        5.32504        0.850346        0.119892 
        5.34073        0.849101        0.118994 
        5.35646        0.847733        0.118103 
        5.37218        0.845142        0.117221 
        5.38789        0.845007        0.116349 
        5.40357        0.843775        0.115488 
        5.41929        0.841859        0.114633 
        5.43502        0.839707        0.113787 
         5.4507        0.834673        0.112951 
        5.46639        0.836053        0.112124 
        5.48212        0.832347        0.111303 
        5.49786        0.833271        0.110489 
        5.51353         0.83321        0.109687 
        5.52921        0.830269        0.108893 
        5.54495        0.827296        0.108104 
        5.56066        0.828153        0.107323 
        5.57637        0.828024        0.106551 
        5.59207        0.825032        0.105787 
        5.60778        0.823943         0.10503 
        5.62346          0.8229        0.104281 
        5.63916        0.822336        0.103539 
        5.65487        0.817948        0.102804 
         5.6706        0.817931        0.102075 
        5.68633        0.815335        0.101353 
        5.70203        0.816006        0.100639 
        5.71773         0.81466       0.0999325 
        5.73344        0.811241       0.0992323 
        5.74916         0.81192       0.0985381 
        5.76486        0.810228       0.0978515 
        5.78054        0.808738       0.0971725 
        5.79626        0.808803        0.096498 
          5.812        0.806198       0.0958293 
         5.8277        0.805274       0.0951688 
        5.84339        0.806692       0.0945146 
        5.85911        0.804528       0.0938652 
        5.87484        0.804228       0.0932221 
        5.89053        0.800229       0.0925863 
        5.90623        0.800835       0.0919561 
        5.92195         0.79819       0.0913306 
        5.93767        0.798451       0.0907113 
        5.95336        0.798413       0.0900988 
        5.96905          0.7962       0.0894922 
        5.98476        0.793468       0.0888903 
        6.00048        0.795084       0.0882937 
        6.01617        0.793519       0.0877034 
        6.03185        0.790098       0.0871192 
        6.04756        0.792636       0.0865389 
        6.06331        0.790038       0.0859627 
        6.07903        0.790221       0.0853929 
        6.09473        0.789198       0.0848288 
        6.11044        0.786773       0.0842693 
        6.12616        0.786737       0.0837149 
        6.14186        0.784992        0.083166 
        6.15755        0.785024       0.0826221 
        6.17326        0.782328       0.0820827 
        6.18898        0.781706       0.0815478 
        6.20467        0.782341       0.0810186 
        6.22036         0.78027       0.0804942 
         6.2361        0.779803        0.079973 
         6.2518        0.779038       0.0794572 
        6.26748        0.778138       0.0789471 
        6.28319        0.776252       0.0784401 
        6.29893        0.776605       0.0779371 
        6.31463        0.774396       0.0774394 
        6.33033        0.775238       0.0769461 
        6.34604        0.774894       0.0764568 
        6.36177        0.772442       0.0759713 
        6.37747         0.77197       0.0754909 
