# k  (h/Mpc)    Pcb(k)  (Mpc/h)^3    Pcb_linear(k) (Mpc/h)^3   ShotnoiseSubtracted = true
      0.0200456         10229.4         10421.3 
      0.0350414         7362.81         7575.95 
      0.0492313          5462.8         5504.54 
      0.0637834         4664.08         4575.87 
      0.0800726         3691.71         3631.76 
       0.096163         2583.51         2635.16 
       0.111083         2053.99         2101.87 
       0.126058         1890.78         1862.68 
       0.142273         1632.51          1578.1 
       0.158546         1359.33         1246.37 
        0.17375         1092.41         1050.07 
       0.188953         1051.22         950.811 
       0.204907         986.499         841.274 
       0.220756         836.461         711.768 
        0.23588         735.458         619.177 
         0.2514         643.408         562.516 
       0.267535          623.99          508.98 
       0.283568         565.587         448.852 
       0.299022         526.155         399.904 
       0.314451         492.185         365.485 
       0.330372         454.286         335.292 
       0.346141         411.314         304.328 
       0.361624         395.136         276.593 
       0.377134         368.169         254.509 
       0.392932          346.97         235.492 
       0.408854         332.762         217.078 
       0.424564         317.107         200.084 
       0.440253         304.846         185.501 
       0.455999         286.816         172.821 
       0.471626         266.844         161.168 
        0.48727         259.176         150.267 
       0.502856           250.2         140.474 
       0.518488         246.759         131.736 
       0.534347         232.816         123.613 
       0.550082         218.139         116.123 
       0.565732         214.006         109.271 
       0.581496         203.466         102.995 
       0.597222         198.189         97.2396 
       0.612804         190.693         91.9473 
       0.628434         184.678         87.0143 
       0.644267         178.555         82.4024 
       0.660051         176.373         78.1519 
       0.675724         172.129          74.227 
       0.691403         167.092         70.5683 
       0.707174         159.999         67.1357 
       0.722871         158.616          63.945 
        0.73838         155.145         60.9958 
       0.754018         150.015         58.2104 
       0.769845         146.135         55.5686 
        0.78569         143.666         53.0885 
       0.801365         139.616         50.7846 
       0.817031         134.873         48.6194 
       0.832809         133.006         46.5674 
       0.848511         129.556         44.6435 
       0.864097          126.95         42.8421 
       0.879701           124.5         41.1389 
       0.895507          121.47         39.5085 
       0.911279         119.422         37.9704 
        0.92691         117.774         36.5272 
       0.942635         114.841         35.1514 
       0.958396         114.522         33.8439 
       0.974128         111.306         32.6056 
       0.989692         108.582         31.4417 
        1.00528         106.448         30.3331 
        1.02113         105.653         29.2609 
        1.03692         101.711         28.2446 
        1.05264         101.481         27.2815 
        1.06832         98.9529          26.365 
        1.08405         97.6671         25.4883 
        1.09979         97.1355         24.6511 
        1.11537         93.8445           23.86 
        1.13105         93.8263          23.099 
        1.14679         92.5564         22.3684 
        1.16256         91.2248         21.6681 
        1.17828         88.8203         21.0001 
        1.19395         87.9034         20.3627 
         1.2097          85.769         19.7486 
        1.22537         85.9793         19.1629 
          1.241         83.9046         18.6028 
        1.25666         82.2378         18.0638 
        1.27241         81.2914         17.5436 
        1.28819           79.98         17.0432 
        1.30392         79.0172         16.5637 
        1.31957         77.9364         16.1049 
        1.33529          76.591         15.6619 
        1.35108         76.0098         15.2338 
        1.36674         75.0853         14.8249 
         1.3824         73.6662         14.4313 
        1.39811         72.9476         14.0508 
        1.41389         71.8512         13.6826 
        1.42964          71.081         13.3283 
        1.44531         69.6449         12.9882 
        1.46101         68.7213         12.6594 
        1.47667         68.6295         12.3429 
        1.49229         67.3184         12.0381 
        1.50793         66.8171         11.7433 
        1.52367         65.6944         11.4565 
        1.53953         64.8679         11.1774 
        1.55526         64.2164         10.9098 
        1.57092         63.9867         10.6522 
        1.58662         62.6934         10.4022 
        1.60235         62.1868         10.1598 
        1.61809         61.3477         9.92502 
        1.63369         60.3565         9.69976 
        1.64941         59.8026          9.4799 
        1.66519         58.7609         9.26608 
        1.68085         58.3334         9.06038 
        1.69652         57.4114         8.86088 
        1.71228         57.0536         8.66627 
        1.72806         56.5308         8.47736 
        1.74368         55.7157         8.29599 
        1.75933         55.1557         8.11958 
        1.77505         54.5589         7.94747 
        1.79081         53.8953         7.78007 
         1.8065           53.43          7.6182 
        1.82218         52.6758          7.4611 
        1.83797         52.0742         7.30736 
        1.85367         51.4561          7.1588 
        1.86928         50.9403         7.01528 
        1.88497         50.4642         6.87491 
        1.90073         49.8723         6.73788 
        1.91647         49.4288          6.6047 
        1.93218         48.8344         6.47542 
        1.94787         48.3703         6.34979 
        1.96363         47.7386           6.227 
        1.97935         47.2749         6.10771 
        1.99499         46.6655         5.99223 
        2.01064         46.4557         5.87957 
         2.0264         45.4493         5.76911 
        2.04216         45.1895         5.66154 
        2.05781         44.5912         5.55739 
        2.07353         44.1663          5.4555 
        2.08928         43.7574         5.35594 
        2.10499         43.2989         5.25914 
        2.12065         42.8035         5.16502 
        2.13633         42.6499         5.07313 
        2.15211         42.1135         4.98288 
        2.16785         41.3125         4.89509 
        2.18349         41.1102         4.80996 
        2.19916         40.7731         4.72668 
        2.21489         40.2643          4.6451 
        2.23063          39.733         4.56539 
         2.2463         39.2946         4.48791 
        2.26194         38.8283         4.41242 
        2.27765         38.4439         4.33828 
        2.29341         38.0452         4.26566 
        2.30914         37.6621         4.19485 
        2.32486         37.1893         4.12569 
        2.34061         36.9217         4.05797 
        2.35635         36.5659         3.99184 
        2.37203         36.1952         3.92741 
        2.38768         35.7867         3.86453 
        2.40339         35.6092         3.80281 
        2.41914          35.261         3.74229 
        2.43483         34.6388         3.68331 
         2.4505         34.4322         3.62569 
        2.46622         34.1349         3.56911 
        2.48195          33.853         3.51373 
        2.49759         33.4106         3.45983 
        2.51328         32.9796         3.40692 
        2.52906         32.8349         3.35478 
        2.54479         32.3245         3.30392 
        2.56049         32.0722         3.25422 
        2.57618         31.7311         3.20559 
        2.59189         31.5426         3.15787 
        2.60758         31.2719          3.1112 
        2.62325         30.8075         3.06554 
        2.63898         30.6337         3.02063 
        2.65468         30.2288         2.97671 
        2.67044         29.9987         2.93348 
        2.68618         29.6865         2.89121 
        2.70184         29.3483         2.84995 
        2.71755         29.2298         2.80938 
        2.73329         28.8777         2.76954 
        2.74897         28.5446         2.73061 
        2.76462         28.2378         2.69251 
        2.78034         28.1286         2.65498 
        2.79607         27.8002         2.61812 
        2.81179         27.5654         2.58201 
        2.82749         27.3154         2.54662 
        2.84321         26.8688         2.51185 
        2.85893          26.678         2.47775 
        2.87462         26.4466         2.44433 
        2.89033         26.2126          2.4115 
        2.90605         26.0352         2.37925 
        2.92176         25.8786          2.3476 
        2.93747         25.5407         2.31654 
        2.95318         25.1737         2.28604 
        2.96891         25.0668         2.25608 
        2.98456         24.7256         2.22678 
        3.00023         24.5247         2.19796 
        3.01596         24.2698         2.16957 
        3.03164         24.0478         2.14175 
        3.04738         23.8981         2.11434 
         3.0631         23.6589         2.08742 
        3.07883         23.4634         2.06097 
        3.09456         23.1669         2.03498 
        3.11026         22.9716         2.00948 
        3.12596         22.7934         1.98442 
        3.14163         22.6245         1.95984 
        3.15734         22.4176         1.93563 
        3.17308          22.218         1.91176 
        3.18879          21.995         1.88836 
        3.20447         21.7914         1.86539 
         3.2202         21.5944         1.84273 
         3.2359         21.3218         1.82048 
        3.25157         21.3296         1.79866 
        3.26729         21.0574         1.77712 
        3.28304         20.8655          1.7559 
        3.29877         20.5453         1.73505 
        3.31446         20.4528         1.71459 
        3.33014         20.2451         1.69447 
        3.34585         20.0567         1.67464 
        3.36158          19.907         1.65511 
        3.37727         19.6878         1.63594 
        3.39294         19.5347          1.6171 
        3.40867         19.3615         1.59848 
        3.42439         19.2062         1.58017 
        3.44008         19.0118         1.56218 
        3.45578         18.8216         1.54446 
        3.47153         18.6667         1.52697 
        3.48724         18.4925         1.50979 
        3.50292         18.3816         1.49291 
        3.51859         18.1797         1.47629 
        3.53431         18.0051         1.45988 
        3.55007         17.8628         1.44368 
        3.56577         17.6727         1.42778 
        3.58146         17.5663         1.41213 
        3.59719          17.398         1.39669 
        3.61292         17.2346         1.38147 
        3.62859         17.1045         1.36654 
        3.64429         16.9422          1.3518 
        3.66003         16.8031         1.33724 
        3.67578         16.6484         1.32289 
        3.69146         16.5482         1.30881 
        3.70712         16.3408         1.29496 
        3.72284         16.3114         1.28126 
        3.73853         16.1164         1.26778 
        3.75422         15.8946         1.25449 
        3.76993         15.8093         1.24138 
        3.78564          15.663         1.22846 
        3.80137         15.5163          1.2157 
        3.81707         15.3951         1.20316 
        3.83279         15.2563         1.19077 
        3.84853         15.1208         1.17855 
        3.86424         15.0269         1.16651 
        3.87992         14.8707         1.15467 
        3.89561         14.7352         1.14299 
        3.91134         14.6238         1.13144 
        3.92704         14.4964         1.12007 
        3.94273         14.3965         1.10887 
        3.95845         14.2336         1.09779 
        3.97418         14.1711         1.08687 
        3.98988          14.013         1.07611 
        4.00554         13.9265         1.06553 
        4.02125         13.7795         1.05505 
        4.03698           13.71         1.04471 
        4.05268         13.5666         1.03452 
        4.06839         13.4293         1.02446 
         4.0841         13.3341         1.01454 
        4.09983         13.1878         1.00474 
        4.11555         13.1015        0.995068 
        4.13124         13.0075        0.985552 
        4.14693          12.915        0.976152 
        4.16266         12.7955        0.966853 
        4.17839         12.6869         0.95768 
        4.19408         12.5829        0.948647 
        4.20977         12.4871        0.939727 
        4.22551         12.3694          0.9309 
        4.24123         12.2866        0.922195 
        4.25691         12.1634        0.913626 
        4.27259         12.0932        0.905162 
        4.28831          11.963        0.896789 
        4.30404         11.8768        0.888514 
        4.31974         11.7737        0.880361 
        4.33543          11.686        0.872315 
        4.35116          11.596         0.86435 
        4.36688         11.4842        0.856487 
        4.38255         11.4076        0.848752 
        4.39825         11.3374        0.841095 
        4.41398         11.2466        0.833517 
         4.4297         11.1316        0.826041 
        4.44541         11.0212        0.818658 
        4.46111         10.9663         0.81137 
        4.47683         10.8781        0.804166 
        4.49251         10.7935        0.797064 
        4.50819         10.7128         0.79005 
         4.5239         10.6231         0.78311 
        4.53962         10.5604        0.776244 
        4.55535         10.4561        0.769458 
        4.57106          10.361        0.762762 
        4.58678          10.272        0.756145 
         4.6025         10.2223        0.749604 
        4.61821         10.1171        0.743142 
        4.63391          10.026        0.736765 
         4.6496         9.98669        0.730465 
        4.66532         9.88441        0.724228 
        4.68103         9.81953        0.718068 
        4.69673          9.7321        0.711984 
        4.71241         9.65143        0.705977 
        4.72811         9.56178         0.70003 
        4.74384         9.53367        0.694143 
        4.75955         9.45189        0.688333 
        4.77525          9.3612        0.682593 
        4.79096         9.32739        0.676911 
        4.80669         9.23408        0.671291 
         4.8224         9.17815        0.665741 
        4.83809          9.1078         0.66026 
        4.85379         9.02589        0.654837 
         4.8695         8.96884        0.649471 
        4.88521         8.90105        0.644167 
        4.90093         8.81569        0.638921 
        4.91663          8.7651        0.633738 
        4.93234         8.72282        0.628608 
        4.94807         8.61245         0.62353 
        4.96377         8.55996        0.618519 
        4.97943         8.52705        0.613572 
        4.99514         8.46354        0.608668 
        5.01086         8.37522        0.603813 
        5.02654         8.32155        0.599023 
        5.04227         8.28607        0.594271 
          5.058         8.19329        0.589568 
        5.07371         8.13894        0.584926 
        5.08942         8.09839        0.580333 
        5.10513         8.02734        0.575788 
        5.12084         7.96069         0.57129 
        5.13656         7.92621        0.566841 
        5.15225         7.85483        0.562447 
        5.16796         7.80093        0.558092 
        5.18369         7.73689         0.55378 
         5.1994         7.64657         0.54952 
        5.21509         7.62855         0.54531 
        5.23079         7.57152        0.541138 
        5.24649         7.50915        0.537014 
        5.26217         7.45192        0.532935 
        5.27788         7.39978        0.528893 
        5.29359         7.35834        0.524892 
        5.30933         7.30394        0.520926 
        5.32504         7.25222        0.517008 
        5.34073         7.20392        0.513135 
        5.35646         7.14568        0.509293 
        5.37218         7.11859        0.505491 
        5.38789         7.04563        0.501733 
        5.40357          7.0064        0.498017 
        5.41929         6.94567        0.494331 
        5.43502          6.9031        0.490682 
         5.4507          6.8697        0.487078 
        5.46639         6.81477         0.48351 
        5.48212         6.76964        0.479969 
        5.49786         6.72845         0.47646 
        5.51353         6.65711        0.473003 
        5.52921         6.63106        0.469577 
        5.54495         6.57823        0.466174 
        5.56066         6.53494        0.462809 
        5.57637         6.46819        0.459478 
        5.59207         6.44967        0.456182 
        5.60778         6.38693        0.452918 
        5.62346          6.3502         0.44969 
        5.63916          6.3163         0.44649 
        5.65487          6.2748         0.44332 
         5.6706         6.22684        0.440177 
        5.68633         6.18593        0.437063 
        5.70203         6.14805        0.433985 
        5.71773          6.1069        0.430938 
        5.73344         6.05705        0.427918 
        5.74916         6.02374        0.424925 
        5.76486         5.98933        0.421964 
        5.78054         5.94809        0.419036 
        5.79626         5.90798        0.416127 
          5.812          5.8573        0.413244 
         5.8277         5.82361        0.410396 
        5.84339         5.78545        0.407574 
        5.85911         5.74598        0.404774 
        5.87484         5.71677        0.402001 
        5.89053         5.66936        0.399259 
        5.90623         5.63394        0.396541 
        5.92195         5.59206        0.393844 
        5.93767         5.55582        0.391174 
        5.95336         5.51651        0.388532 
        5.96905         5.50503        0.385916 
        5.98476         5.46394        0.383321 
        6.00048         5.42203        0.380748 
        6.01617         5.39439        0.378202 
        6.03185         5.35814        0.375683 
        6.04756         5.32334        0.373181 
        6.06331         5.28089        0.370696 
        6.07903         5.25195        0.368239 
        6.09473         5.22099        0.365806 
        6.11044         5.18083        0.363394 
        6.12616         5.15671        0.361003 
        6.14186         5.12154        0.358636 
        6.15755         5.08524        0.356291 
        6.17326         5.05563        0.353964 
        6.18898         5.02543        0.351658 
        6.20467         4.99404        0.349376 
        6.22036          4.9516        0.347114 
         6.2361         4.93066        0.344867 
         6.2518         4.89523        0.342643 
        6.26748         4.86894        0.340443 
        6.28319         4.84097        0.338256 
        6.29893         4.81204        0.336087 
        6.31463         4.78157        0.333941 
        6.33033         4.74802        0.331814 
        6.34604         4.72311        0.329704 
        6.36177          4.6921         0.32761 
        6.37747          4.6585        0.325539 
