# k  (h/Mpc)    Pcb(k)  (Mpc/h)^3    Pcb_linear(k) (Mpc/h)^3   ShotnoiseSubtracted = true
      0.0200456         21351.3         21725.2 
      0.0350414         16287.1         15793.5 
      0.0492313         11233.5         11475.2 
      0.0637834         9056.98         9539.25 
      0.0800726         7108.86         7571.07 
       0.096163         5708.44         5493.47 
       0.111083         4649.59         4381.73 
       0.126058         3843.74         3883.11 
       0.142273         3365.88         3289.85 
       0.158546         2763.04         2598.29 
        0.17375         2467.68         2189.06 
       0.188953         2337.45         1982.14 
       0.204907         2010.78         1753.79 
       0.220756         1817.89         1483.81 
        0.23588         1623.17         1290.79 
         0.2514         1469.41         1172.67 
       0.267535         1419.31         1061.06 
       0.283568         1263.79         935.715 
       0.299022         1205.93         833.674 
       0.314451         1255.55         761.922 
       0.330372         1107.38         698.977 
       0.346141         1017.81         634.428 
       0.361624         977.343         576.609 
       0.377134         936.816         530.571 
       0.392932         894.904         490.927 
       0.408854         857.746          452.54 
       0.424564         839.434         417.112 
       0.440253         777.556         386.711 
       0.455999         744.009         360.277 
       0.471626         758.141         335.983 
        0.48727         715.687         313.259 
       0.502856         684.928         292.843 
       0.518488         667.017         274.628 
       0.534347         639.074         257.694 
       0.550082         609.944          242.08 
       0.565732         602.321         227.795 
       0.581496           589.9         214.712 
       0.597222         576.787         202.714 
       0.612804         563.592         191.681 
       0.628434         540.586         181.397 
       0.644267         525.362         171.783 
       0.660051         519.597         162.922 
       0.675724         509.105          154.74 
       0.691403         495.791         147.113 
       0.707174         480.229         139.957 
       0.722871         474.475         133.305 
        0.73838          465.35         127.157 
       0.754018         453.013          121.35 
       0.769845         448.304         115.843 
        0.78569          439.14         110.673 
       0.801365         424.267          105.87 
       0.817031         421.385         101.356 
       0.832809         415.037         97.0782 
       0.848511         407.843         93.0677 
       0.864097         398.186         89.3123 
       0.879701         396.849         85.7615 
       0.895507         382.003         82.3628 
       0.911279         376.377         79.1562 
        0.92691         372.892         76.1477 
       0.942635         368.968         73.2797 
       0.958396         356.642         70.5539 
       0.974128         352.897         67.9723 
       0.989692         341.874          65.546 
        1.00528         340.022          63.235 
        1.02113         334.423         60.9997 
        1.03692         329.116         58.8811 
        1.05264         324.126         56.8734 
        1.06832         318.703         54.9627 
        1.08405          315.87         53.1351 
        1.09979         310.051         51.3898 
        1.11537         302.122         49.7406 
        1.13105         298.699         48.1541 
        1.14679         294.401          46.631 
        1.16256         292.627         45.1711 
        1.17828         287.832         43.7787 
        1.19395         280.634         42.4499 
         1.2097         280.164         41.1697 
        1.22537         275.295         39.9486 
          1.241         269.021          38.781 
        1.25666         266.899         37.6572 
        1.27241         263.034         36.5729 
        1.28819         257.653         35.5296 
        1.30392         257.378         34.5302 
        1.31957         249.828         33.5737 
        1.33529         246.932         32.6501 
        1.35108         245.816         31.7578 
        1.36674         239.016         30.9052 
         1.3824         237.679         30.0848 
        1.39811          235.49         29.2916 
        1.41389         229.027          28.524 
        1.42964         226.656         27.7853 
        1.44531         224.691         27.0764 
        1.46101         220.865         26.3908 
        1.47667         218.292         25.7311 
        1.49229         215.255         25.0957 
        1.50793         212.336         24.4811 
        1.52367         209.327         23.8833 
        1.53953         205.301         23.3014 
        1.55526         204.018         22.7436 
        1.57092         202.334         22.2064 
        1.58662         197.619         21.6853 
        1.60235         195.717           21.18 
        1.61809         193.383         20.6905 
        1.63369         189.797         20.2209 
        1.64941         187.509         19.7626 
        1.66519         185.267         19.3168 
        1.68085         182.161          18.888 
        1.69652         180.544         18.4721 
        1.71228         177.557         18.0664 
        1.72806         175.856         17.6726 
        1.74368         173.726         17.2945 
        1.75933         172.511         16.9268 
        1.77505         169.927          16.568 
        1.79081         166.271          16.219 
         1.8065         165.012         15.8816 
        1.82218         161.594          15.554 
        1.83797         160.722         15.2335 
        1.85367         158.395         14.9238 
        1.86928         156.222         14.6246 
        1.88497         155.095          14.332 
        1.90073          153.37         14.0463 
        1.91647         150.388         13.7687 
        1.93218         148.621         13.4992 
        1.94787          146.64         13.2373 
        1.96363         146.123         12.9813 
        1.97935         144.235         12.7327 
        1.99499         142.113         12.4919 
        2.01064         139.229         12.2571 
         2.0264          138.62         12.0268 
        2.04216         136.576         11.8025 
        2.05781           134.3         11.5854 
        2.07353         133.212          11.373 
        2.08928         131.556         11.1655 
        2.10499         130.343         10.9636 
        2.12065          128.88         10.7674 
        2.13633         127.257         10.5759 
        2.15211          125.15         10.3877 
        2.16785         123.854         10.2047 
        2.18349         122.341         10.0272 
        2.19916         121.025         9.85363 
        2.21489         119.696         9.68356 
        2.23063         117.866         9.51739 
         2.2463         116.478         9.35587 
        2.26194         115.529          9.1985 
        2.27765         113.878         9.04395 
        2.29341         112.847         8.89256 
        2.30914         111.695         8.74494 
        2.32486         109.661         8.60076 
        2.34061         108.744         8.45959 
        2.35635         107.796         8.32173 
        2.37203         105.921         8.18741 
        2.38768         105.239         8.05634 
        2.40339         103.726         7.92766 
        2.41914          102.45          7.8015 
        2.43483          101.82         7.67853 
         2.4505         100.312         7.55842 
        2.46622         99.0928         7.44047 
        2.48195         98.3264         7.32503 
        2.49759         96.8609         7.21265 
        2.51328         96.1379         7.10235 
        2.52906         94.7777         6.99365 
        2.54479         93.6127         6.88763 
        2.56049         92.3976         6.78402 
        2.57618         91.4413         6.68263 
        2.59189         90.7511         6.58317 
        2.60758         89.1674         6.48588 
        2.62325         88.9042         6.39068 
        2.63898         87.7297         6.29706 
        2.65468         86.7303         6.20551 
        2.67044         85.4135         6.11539 
        2.68618          84.606         6.02727 
        2.70184         83.5857         5.94124 
        2.71755         82.9479         5.85667 
        2.73329         81.6362         5.77362 
        2.74897         81.0337         5.69245 
        2.76462         80.3135         5.61303 
        2.78034         78.8251         5.53479 
        2.79607         78.1032         5.45796 
        2.81179         77.5536         5.38268 
        2.82749         76.7624          5.3089 
        2.84321         75.7735         5.23642 
        2.85893         74.8697         5.16532 
        2.87462         74.1535         5.09566 
        2.89033         73.4474         5.02722 
        2.90605         72.8343         4.95998 
        2.92176         71.9788           4.894 
        2.93747         71.3853         4.82926 
        2.95318         70.1668         4.76568 
        2.96891         69.7766         4.70321 
        2.98456         68.9154         4.64214 
        3.00023         68.2376         4.58206 
        3.01596          67.749         4.52286 
        3.03164         66.9021         4.46488 
        3.04738         66.6001         4.40774 
         3.0631         65.4335         4.35162 
        3.07883         64.9191         4.29648 
        3.09456         64.1421          4.2423 
        3.11026         63.5838         4.18913 
        3.12596         62.9104         4.13689 
        3.14163         62.1999         4.08566 
        3.15734         61.4716         4.03517 
        3.17308          61.025         3.98542 
        3.18879         60.3892         3.93664 
        3.20447         59.9768         3.88875 
         3.2202         59.1591          3.8415 
         3.2359           58.46         3.79513 
        3.25157         58.1052         3.74963 
        3.26729         57.4428         3.70474 
        3.28304         56.7859          3.6605 
        3.29877         56.3132         3.61703 
        3.31446         55.8361         3.57437 
        3.33014          55.234         3.53243 
        3.34585         54.6053          3.4911 
        3.36158         54.2579         3.45038 
        3.37727         53.5348         3.41042 
        3.39294         53.1614         3.37114 
        3.40867          52.652         3.33234 
        3.42439         52.0556         3.29416 
        3.44008         51.4761         3.25666 
        3.45578         51.1406         3.21971 
        3.47153         50.5781         3.18326 
        3.48724         50.0937         3.14744 
        3.50292         49.6561         3.11224 
        3.51859         49.1213         3.07761 
        3.53431         48.5064         3.04339 
        3.55007         48.1387         3.00961 
        3.56577         47.7133         2.97648 
        3.58146         47.1811         2.94386 
        3.59719         46.7632         2.91165 
        3.61292          46.257         2.87993 
        3.62859         45.9987         2.84881 
        3.64429         45.5934         2.81809 
        3.66003         45.1924         2.78772 
        3.67578         44.7403         2.75782 
        3.69146         44.3129         2.72846 
        3.70712         43.8859         2.69959 
        3.72284         43.5415         2.67102 
        3.73853         43.0859         2.64292 
        3.75422          42.672         2.61522 
        3.76993         42.3233         2.58788 
        3.78564         41.9767         2.56095 
        3.80137          41.634         2.53436 
        3.81707         41.0669          2.5082 
        3.83279         40.8243         2.48239 
        3.84853         40.4228          2.4569 
        3.86424         39.9578         2.43181 
        3.87992         39.7352         2.40712 
        3.89561         39.3892         2.38277 
        3.91134         39.0811          2.3587 
        3.92704         38.6931         2.33499 
        3.94273         38.3273         2.31163 
        3.95845         38.0281         2.28855 
        3.97418         37.6679         2.26578 
        3.98988         37.2428         2.24335 
        4.00554         37.0256         2.22129 
        4.02125         36.7516         2.19946 
        4.03698         36.3426         2.17788 
        4.05268         36.1173         2.15665 
        4.06839         35.6398         2.13568 
         4.0841         35.4735           2.115 
        4.09983         35.1251         2.09456 
        4.11555         34.8291          2.0744 
        4.13124         34.4823         2.05456 
        4.14693          34.193         2.03497 
        4.16266         33.8813         2.01558 
        4.17839         33.6164         1.99646 
        4.19408         33.3708         1.97763 
        4.20977         33.0896         1.95903 
        4.22551         32.7398         1.94063 
        4.24123         32.4903         1.92249 
        4.25691         32.2105         1.90462 
        4.27259         32.0199         1.88698 
        4.28831         31.6435         1.86952 
        4.30404          31.416         1.85227 
        4.31974         31.1076         1.83527 
        4.33543         30.9088          1.8185 
        4.35116         30.6361          1.8019 
        4.36688         30.3496         1.78551 
        4.38255         30.1898         1.76938 
        4.39825         29.8397         1.75342 
        4.41398         29.6164         1.73762 
         4.4297         29.4144         1.72203 
        4.44541         29.2358         1.70664 
        4.46111          28.891         1.69145 
        4.47683         28.6707         1.67643 
        4.49251           28.48         1.66163 
        4.50819         28.2675           1.647 
         4.5239         27.9629         1.63254 
        4.53962         27.8128         1.61822 
        4.55535         27.5357         1.60408 
        4.57106         27.3196         1.59012 
        4.58678          27.137         1.57632 
         4.6025         26.8709         1.56269 
        4.61821         26.6898         1.54922 
        4.63391         26.3407         1.53592 
         4.6496           26.23         1.52279 
        4.66532         26.0609         1.50979 
        4.68103          25.756         1.49694 
        4.69673         25.5966         1.48426 
        4.71241         25.4235         1.47174 
        4.72811         25.1791         1.45934 
        4.74384         24.9633         1.44707 
        4.75955         24.8192         1.43496 
        4.77525         24.6253         1.42299 
        4.79096         24.3814         1.41115 
        4.80669         24.2453         1.39943 
         4.8224         24.0264         1.38786 
        4.83809          23.779         1.37643 
        4.85379         23.6098         1.36513 
         4.8695         23.4717         1.35394 
        4.88521         23.2351         1.34288 
        4.90093         23.1032         1.33195 
        4.91663         22.9032         1.32114 
        4.93234         22.7482         1.31045 
        4.94807         22.5652         1.29986 
        4.96377         22.4436         1.28942 
        4.97943          22.171         1.27911 
        4.99514         22.0424         1.26888 
        5.01086         21.8909         1.25876 
        5.02654         21.7318         1.24877 
        5.04227         21.5706         1.23887 
          5.058         21.3685         1.22906 
        5.07371         21.1873         1.21939 
        5.08942          21.037         1.20981 
        5.10513          20.923         1.20034 
        5.12084         20.7707         1.19096 
        5.13656         20.5438         1.18169 
        5.15225         20.4127         1.17252 
        5.16796         20.2628         1.16345 
        5.18369         20.1136         1.15446 
         5.1994         19.9921         1.14558 
        5.21509         19.8158          1.1368 
        5.23079         19.6961          1.1281 
        5.24649         19.5314          1.1195 
        5.26217         19.4183           1.111 
        5.27788         19.2373         1.10257 
        5.29359         19.0974         1.09423 
        5.30933         18.9514         1.08597 
        5.32504         18.8089          1.0778 
        5.34073         18.6957         1.06972 
        5.35646         18.5519         1.06172 
        5.37218         18.3792         1.05379 
        5.38789         18.2469         1.04595 
        5.40357         18.1217         1.03821 
        5.41929          17.999         1.03052 
        5.43502         17.8395         1.02292 
         5.4507         17.7344          1.0154 
        5.46639         17.5973         1.00797 
        5.48212         17.4988         1.00058 
        5.49786         17.3678        0.993268 
        5.51353         17.2613        0.986062 
        5.52921         17.1186        0.978919 
        5.54495         17.0038        0.971826 
        5.56066         16.8499        0.964811 
        5.57637         16.7395        0.957867 
        5.59207         16.6245        0.950996 
        5.60778          16.507        0.944191 
        5.62346         16.4004        0.937461 
        5.63916         16.2686        0.930791 
        5.65487         16.1548        0.924182 
         5.6706         16.0249        0.917629 
        5.68633         15.9388        0.911138 
        5.70203         15.8239        0.904722 
        5.71773         15.7047         0.89837 
        5.73344         15.5886        0.892075 
        5.74916         15.4917        0.885834 
        5.76486         15.3859        0.879662 
        5.78054         15.2898        0.873558 
        5.79626         15.1418        0.867495 
          5.812         15.0654        0.861483 
         5.8277         14.9491        0.855545 
        5.84339         14.8426        0.849664 
        5.85911          14.734        0.843827 
        5.87484         14.6408        0.838045 
        5.89053         14.5178        0.832329 
        5.90623         14.4499        0.826663 
        5.92195           14.31        0.821041 
        5.93767         14.2159        0.815474 
        5.95336          14.154        0.809967 
        5.96905         14.0522        0.804514 
        5.98476         13.9779        0.799103 
        6.00048         13.8593        0.793739 
        6.01617         13.7865        0.788433 
        6.03185         13.6538        0.783181 
        6.04756         13.5656        0.777964 
        6.06331          13.498        0.772784 
        6.07903         13.3782        0.767662 
        6.09473         13.3013        0.762591 
        6.11044         13.1932        0.757561 
        6.12616         13.1127        0.752577 
        6.14186         13.0193        0.747643 
        6.15755         12.9404        0.742754 
        6.17326         12.8526        0.737904 
        6.18898         12.7617        0.733096 
        6.20467         12.6643        0.728338 
        6.22036         12.5829        0.723624 
         6.2361          12.495        0.718938 
         6.2518         12.4341        0.714302 
        6.26748         12.3552        0.709716 
        6.28319          12.287        0.705158 
        6.29893         12.1877        0.700636 
        6.31463         12.1064        0.696162 
        6.33033         12.0299        0.691728 
        6.34604         11.9266        0.687329 
        6.36177         11.8772        0.682964 
        6.37747         11.8042        0.678646 
