# k  (h/Mpc)    Pcb(k)  (Mpc/h)^3    Pcb_linear(k) (Mpc/h)^3   ShotnoiseSubtracted = true
      0.0200456         11887.5         12119.5 
      0.0350414         8536.44          8810.5 
      0.0492313         6339.58         6401.54 
      0.0637834          5425.8         5321.55 
      0.0800726         4292.46         4223.58 
       0.096163         2997.51         3064.57 
       0.111083         2385.99         2444.38 
       0.126058         2198.61         2166.22 
       0.142273         1899.66         1835.27 
       0.158546         1594.67         1449.48 
        0.17375         1278.69         1221.18 
       0.188953         1235.29         1105.75 
       0.204907         1160.23         978.366 
       0.220756         987.821         827.756 
        0.23588         870.518         720.076 
         0.2514         759.622         654.182 
       0.267535          741.89         591.922 
       0.283568         672.608         521.996 
       0.299022         627.803         465.071 
       0.314451          590.85         425.044 
       0.330372         544.775          389.93 
       0.346141         496.026         353.921 
       0.361624         476.969         321.666 
       0.377134         443.335         295.983 
       0.392932         421.529         273.867 
       0.408854         404.807         252.453 
       0.424564         383.988         232.689 
       0.440253         371.988          215.73 
       0.455999         350.125         200.983 
       0.471626         327.449         187.431 
        0.48727         317.584         174.754 
       0.502856         307.281         163.365 
       0.518488         303.891         153.203 
       0.534347         285.507         143.757 
       0.550082         269.173         135.046 
       0.565732         265.652         127.077 
       0.581496         251.648         119.779 
       0.597222         246.085         113.086 
       0.612804          237.66         106.931 
       0.628434         229.005         101.194 
       0.644267         221.763         95.8305 
       0.660051         218.793         90.8873 
       0.675724         214.262         86.3228 
       0.691403         208.144          82.068 
       0.707174         199.598         78.0759 
       0.722871          197.75         74.3653 
        0.73838         193.553         70.9355 
       0.754018         188.209         67.6962 
       0.769845         182.299         64.6239 
        0.78569         180.629         61.7397 
       0.801365         174.982         59.0603 
       0.817031         169.435         56.5423 
       0.832809         167.187         54.1559 
       0.848511         162.966         51.9185 
       0.864097         160.563         49.8235 
       0.879701         156.931         47.8427 
       0.895507         152.942         45.9467 
       0.911279         149.497         44.1579 
        0.92691         148.636         42.4796 
       0.942635         144.937         40.8796 
       0.958396         144.614          39.359 
       0.974128         140.589         37.9189 
       0.989692           137.2         36.5653 
        1.00528         134.806         35.2761 
        1.02113         134.032         34.0292 
        1.03692         129.052         32.8473 
        1.05264         127.742         31.7272 
        1.06832          125.14         30.6614 
        1.08405         123.469         29.6418 
        1.09979         122.902         28.6682 
        1.11537         118.854         27.7482 
        1.13105         118.337         26.8632 
        1.14679         117.322         26.0135 
        1.16256         115.536          25.199 
        1.17828         112.816         24.4223 
        1.19395         111.308          23.681 
         1.2097         109.289         22.9668 
        1.22537          108.86         22.2857 
          1.241         106.435         21.6343 
        1.25666          104.49         21.0074 
        1.27241         103.062         20.4025 
        1.28819         101.619         19.8205 
        1.30392         100.317         19.2629 
        1.31957         98.9756         18.7294 
        1.33529         96.9742         18.2141 
        1.35108         95.8796         17.7163 
        1.36674         94.9433         17.2407 
         1.3824         93.0979          16.783 
        1.39811         92.1821         16.3405 
        1.41389         90.8345         15.9123 
        1.42964         89.4854         15.5002 
        1.44531         87.5534         15.1048 
        1.46101         86.7254         14.7223 
        1.47667         86.2543         14.3543 
        1.49229         84.5777         13.9998 
        1.50793         83.9492          13.657 
        1.52367         82.6899         13.3235 
        1.53953         81.3803         12.9989 
        1.55526         80.6505         12.6877 
        1.57092         80.1491          12.388 
        1.58662          78.384         12.0973 
        1.60235         77.9534         11.8154 
        1.61809         76.7333         11.5424 
        1.63369          75.828         11.2804 
        1.64941         75.1086         11.0247 
        1.66519            73.4         10.7761 
        1.68085         72.9723         10.5368 
        1.69652         71.5402         10.3048 
        1.71228         71.3446         10.0785 
        1.72806         70.3109         9.85881 
        1.74368         69.4911         9.64789 
        1.75933         68.4748         9.44272 
        1.77505         67.9697         9.24257 
        1.79081          66.865         9.04789 
         1.8065         66.2186         8.85965 
        1.82218         65.2609         8.67694 
        1.83797         64.6479         8.49815 
        1.85367         63.9174         8.32538 
        1.86928         63.5542         8.15847 
        1.88497         62.3957         7.99523 
        1.90073         61.4778         7.83586 
        1.91647         61.2222         7.68099 
        1.93218         60.3283         7.53063 
        1.94787         59.5854         7.38453 
        1.96363         58.8138         7.24173 
        1.97935         58.4988         7.10301 
        1.99499         57.4904         6.96871 
        2.01064         57.2705         6.83769 
         2.0264         55.9195         6.70922 
        2.04216         55.5916         6.58413 
        2.05781         54.9324         6.46301 
        2.07353         54.2423         6.34451 
        2.08928         53.6063         6.22873 
        2.10499         53.2348         6.11616 
        2.12065         52.5799          6.0067 
        2.13633         52.1953         5.89984 
        2.15211         51.8617         5.79488 
        2.16785         51.0092         5.69278 
        2.18349         50.6346         5.59378 
        2.19916         49.9865         5.49693 
        2.21489         49.5625         5.40205 
        2.23063          48.932         5.30935 
         2.2463         48.4764         5.21924 
        2.26194         47.6235         5.13146 
        2.27765         47.2336         5.04524 
        2.29341         46.6861         4.96078 
        2.30914         46.0521         4.87843 
        2.32486         45.3798           4.798 
        2.34061         45.1247         4.71925 
        2.35635         44.5882         4.64234 
        2.37203         44.0231         4.56741 
        2.38768          43.651         4.49429 
        2.40339         43.2389         4.42251 
        2.41914         42.8961         4.35213 
        2.43483         42.3136         4.28353 
         2.4505         41.9501         4.21652 
        2.46622         41.5091         4.15072 
        2.48195         41.0208         4.08632 
        2.49759         40.5199         4.02363 
        2.51328         40.0089          3.9621 
        2.52906         39.7336         3.90146 
        2.54479         39.1794         3.84232 
        2.56049         38.6884         3.78452 
        2.57618         38.4159         3.72796 
        2.59189         37.9097         3.67247 
        2.60758         37.6879          3.6182 
        2.62325          37.197         3.56509 
        2.63898         36.8022         3.51286 
        2.65468         36.3493         3.46179 
        2.67044         35.9067         3.41152 
        2.68618         35.6883         3.36236 
        2.70184         35.2949         3.31437 
        2.71755         35.0528         3.26719 
        2.73329         34.5738         3.22086 
        2.74897         34.2266         3.17558 
        2.76462         33.7382         3.13127 
        2.78034         33.6288         3.08762 
        2.79607         33.2081         3.04476 
        2.81179         32.9061         3.00277 
        2.82749         32.5104         2.96161 
        2.84321         32.1915         2.92118 
        2.85893           31.85         2.88151 
        2.87462         31.4789         2.84265 
        2.89033         31.1754         2.80447 
        2.90605         30.9901         2.76696 
        2.92176         30.7151         2.73016 
        2.93747         30.3937         2.69404 
        2.95318         29.9726         2.65857 
        2.96891         29.6941         2.62372 
        2.98456         29.4123         2.58965 
        3.00023         29.0636         2.55614 
        3.01596          28.778         2.52311 
        3.03164         28.6623         2.49077 
        3.04738         28.3439         2.45889 
         3.0631         28.0607         2.42758 
        3.07883         27.7492         2.39682 
        3.09456         27.4761          2.3666 
        3.11026         27.2267         2.33694 
        3.12596         27.0114          2.3078 
        3.14163         26.6837         2.27921 
        3.15734         26.4567         2.25105 
        3.17308         26.1185          2.2233 
        3.18879         25.9723         2.19608 
        3.20447         25.6512         2.16937 
         3.2202         25.4161         2.14301 
         3.2359          25.136         2.11714 
        3.25157          25.072         2.09176 
        3.26729         24.7866         2.06672 
        3.28304         24.4882         2.04204 
        3.29877         24.1963         2.01779 
        3.31446         24.0018         1.99399 
        3.33014         23.7761          1.9706 
        3.34585         23.6431         1.94754 
        3.36158         23.3024         1.92482 
        3.37727         23.0581         1.90253 
        3.39294         22.9586         1.88062 
        3.40867         22.6934         1.85897 
        3.42439         22.4592         1.83767 
        3.44008         22.2823         1.81675 
        3.45578         22.1372         1.79614 
        3.47153         21.8187         1.77581 
        3.48724         21.6639         1.75582 
        3.50292         21.5303         1.73619 
        3.51859         21.2348         1.71687 
        3.53431         21.0585         1.69778 
        3.55007         20.8206         1.67894 
        3.56577         20.6199         1.66045 
        3.58146         20.5374         1.64225 
        3.59719         20.2423         1.62429 
        3.61292         20.1059         1.60659 
        3.62859         19.8808         1.58923 
        3.64429         19.7187         1.57209 
        3.66003         19.5818         1.55515 
        3.67578         19.3237         1.53847 
        3.69146         19.2553         1.52209 
        3.70712         19.0383         1.50599 
        3.72284         18.9083         1.49005 
        3.73853          18.675         1.47438 
        3.75422         18.4969         1.45892 
        3.76993         18.3573         1.44367 
        3.78564           18.17         1.42865 
        3.80137         18.0359         1.41381 
        3.81707         17.8548         1.39922 
        3.83279         17.7061         1.38482 
        3.84853         17.5327          1.3706 
        3.86424         17.3806         1.35661 
        3.87992         17.2422         1.34283 
        3.89561          17.054         1.32924 
        3.91134         16.9557         1.31582 
        3.92704         16.7984         1.30259 
        3.94273         16.6418         1.28956 
        3.95845         16.4563         1.27669 
        3.97418         16.3887         1.26398 
        3.98988         16.1934         1.25147 
        4.00554         16.0623         1.23916 
        4.02125         15.9429         1.22698 
        4.03698         15.8075         1.21495 
        4.05268          15.653          1.2031 
        4.06839         15.5055         1.19141 
         4.0841         15.4237         1.17987 
        4.09983         15.2242         1.16847 
        4.11555         15.1405         1.15722 
        4.13124         15.0126         1.14615 
        4.14693         14.8735         1.13522 
        4.16266         14.7435         1.12441 
        4.17839         14.6204         1.11374 
        4.19408         14.4651         1.10324 
        4.20977         14.3962         1.09286 
        4.22551         14.2435          1.0826 
        4.24123         14.1475         1.07247 
        4.25691         14.0564         1.06251 
        4.27259         13.8832         1.05267 
        4.28831         13.7335         1.04293 
        4.30404         13.6813          1.0333 
        4.31974         13.5566         1.02382 
        4.33543          13.455         1.01446 
        4.35116         13.3336          1.0052 
        4.36688         13.2292        0.996058 
        4.38255         13.0921        0.987062 
        4.39825         13.0055        0.978157 
        4.41398         12.9168        0.969345 
         4.4297         12.7668         0.96065 
        4.44541         12.6879        0.952064 
        4.46111         12.5862        0.943589 
        4.47683         12.4842        0.935211 
        4.49251         12.3773        0.926952 
        4.50819         12.2859        0.918794 
         4.5239         12.1972        0.910724 
        4.53962         12.0947        0.902739 
        4.55535         11.9895        0.894847 
        4.57106         11.8709         0.88706 
        4.58678         11.7827        0.879364 
         4.6025         11.6889        0.871758 
        4.61821         11.6074        0.864243 
        4.63391         11.5234        0.856826 
         4.6496         11.4116        0.849499 
        4.66532         11.3049        0.842247 
        4.68103         11.2129        0.835082 
        4.69673         11.1605        0.828007 
        4.71241         11.0416        0.821022 
        4.72811         10.9497        0.814105 
        4.74384         10.8893        0.807259 
        4.75955         10.7841        0.800502 
        4.77525         10.7075        0.793827 
        4.79096         10.6249        0.787219 
        4.80669         10.5627        0.780683 
         4.8224         10.4829        0.774229 
        4.83809         10.3908        0.767854 
        4.85379         10.3038        0.761548 
         4.8695         10.2671        0.755307 
        4.88521         10.1363        0.749138 
        4.90093         10.0808        0.743038 
        4.91663         9.98677        0.737011 
        4.93234         9.91969        0.731044 
        4.94807         9.84406        0.725139 
        4.96377         9.76813        0.719311 
        4.97943         9.69505        0.713559 
        4.99514         9.62986        0.707855 
        5.01086         9.55704        0.702208 
        5.02654         9.49001        0.696638 
        5.04227         9.41216        0.691112 
          5.058         9.32078        0.685643 
        5.07371         9.28023        0.680244 
        5.08942         9.20809        0.674902 
        5.10513         9.13452        0.669617 
        5.12084         9.06147        0.664386 
        5.13656         9.00042        0.659212 
        5.15225         8.93742        0.654102 
        5.16796         8.87348        0.649038 
        5.18369         8.81004        0.644022 
         5.1994         8.71332        0.639069 
        5.21509         8.68118        0.634172 
        5.23079          8.6092        0.629321 
        5.24649         8.53622        0.624524 
        5.26217          8.4836        0.619781 
        5.27788         8.41191         0.61508 
        5.29359         8.36306        0.610427 
        5.30933         8.27495        0.605815 
        5.32504         8.22737        0.601259 
        5.34073         8.18244        0.596754 
        5.35646         8.10481        0.592287 
        5.37218         8.05255        0.587864 
        5.38789         8.00514        0.583494 
        5.40357         7.95397        0.579173 
        5.41929         7.88998        0.574886 
        5.43502         7.82028        0.570642 
         5.4507         7.77512        0.566451 
        5.46639         7.72395        0.562302 
        5.48212         7.66854        0.558184 
        5.49786         7.62435        0.554102 
        5.51353         7.55325        0.550082 
        5.52921         7.51454        0.546098 
        5.54495         7.46216        0.542141 
        5.56066         7.39806        0.538227 
        5.57637         7.33912        0.534353 
        5.59207         7.30395        0.530521 
        5.60778         7.23921        0.526724 
        5.62346         7.18965         0.52297 
        5.63916         7.13986        0.519249 
        5.65487         7.09888        0.515562 
         5.6706         7.03177        0.511907 
        5.68633         6.99618        0.508285 
        5.70203         6.95133        0.504706 
        5.71773         6.89022        0.501163 
        5.73344         6.85112        0.497651 
        5.74916         6.81846         0.49417 
        5.76486         6.77696        0.490726 
        5.78054         6.71286        0.487321 
        5.79626         6.66033        0.483939 
          5.812         6.62427        0.480585 
         5.8277         6.58358        0.477273 
        5.84339         6.52965        0.473992 
        5.85911         6.49418        0.470735 
        5.87484         6.44929         0.46751 
        5.89053         6.40826        0.464321 
        5.90623         6.35919        0.461161 
        5.92195         6.30691        0.458024 
        5.93767         6.28294        0.454918 
        5.95336         6.23371        0.451846 
        5.96905         6.18824        0.448804 
        5.98476         6.14984        0.445786 
        6.00048          6.1238        0.442794 
        6.01617         6.07254        0.439833 
        6.03185         6.02915        0.436904 
        6.04756         5.99612        0.433993 
        6.06331         5.95883        0.431104 
        6.07903         5.91602        0.428246 
        6.09473          5.8706        0.425417 
        6.11044         5.83061        0.422611 
        6.12616          5.8005        0.419831 
        6.14186         5.77302        0.417079 
        6.15755          5.7314        0.414351 
        6.17326         5.67858        0.411646 
        6.18898         5.64276        0.408963 
        6.20467         5.61146        0.406309 
        6.22036         5.58357        0.403679 
         6.2361         5.53229        0.401065 
         6.2518         5.50231        0.398479 
        6.26748         5.47608        0.395921 
        6.28319         5.43113        0.393378 
        6.29893         5.39711        0.390855 
        6.31463         5.37512        0.388359 
        6.33033          5.3316        0.385886 
        6.34604         5.29924        0.383432 
        6.36177         5.26566        0.380997 
        6.37747         5.24062        0.378588 
