# k  (h/Mpc)    Pcb(k)  (Mpc/h)^3    Pcb_linear(k) (Mpc/h)^3   ShotnoiseSubtracted = true
      0.0200456         3192.37         3234.03 
      0.0350414         2391.85         2351.03 
      0.0492313         1709.69         1708.22 
      0.0637834         1395.35         1420.02 
      0.0800726         1103.45         1127.04 
       0.096163         836.479         817.764 
       0.111083         674.238          652.27 
       0.126058         574.564         578.044 
       0.142273         487.401          489.73 
       0.158546         394.843         386.784 
        0.17375         339.078         325.866 
       0.188953         306.313         295.064 
       0.204907         261.441         261.071 
       0.220756          230.66         220.882 
        0.23588          202.07         192.148 
         0.2514          182.46         174.565 
       0.267535         170.232         157.951 
       0.283568         149.126         139.292 
       0.299022         137.185         124.102 
       0.314451         130.195         113.421 
       0.330372         115.486         104.051 
       0.346141         105.893         94.4418 
       0.361624         97.8834         85.8347 
       0.377134         89.4245         78.9814 
       0.392932         86.7048           73.08 
       0.408854         79.8636         67.3656 
       0.424564         76.1303         62.0918 
       0.440253          69.362         57.5663 
       0.455999          63.628         53.6312 
       0.471626         60.5391         50.0149 
        0.48727         58.8211          46.632 
       0.502856         54.6128          43.593 
       0.518488         51.6374         40.8815 
       0.534347         48.6909         38.3606 
       0.550082          46.878         36.0363 
       0.565732         45.1931         33.9099 
       0.581496         42.2295         31.9624 
       0.597222         40.1856         30.1762 
       0.612804         38.4914         28.5339 
       0.628434          37.748          27.003 
       0.644267         35.6846         25.5718 
       0.660051         34.0231         24.2528 
       0.675724         32.5626         23.0348 
       0.691403         31.9763         21.8994 
       0.707174         30.7464         20.8341 
       0.722871         29.7117          19.844 
        0.73838         28.2428         18.9287 
       0.754018         26.8009         18.0643 
       0.769845         26.2537         17.2445 
        0.78569         25.3599         16.4749 
       0.801365         24.5145         15.7599 
       0.817031         23.5852          15.088 
       0.832809         23.0193         14.4512 
       0.848511         22.2604         13.8542 
       0.864097         21.5969         13.2951 
       0.879701         21.2487         12.7666 
       0.895507         20.4372         12.2606 
       0.911279         19.6531         11.7833 
        0.92691         19.3126         11.3354 
       0.942635         18.8655         10.9085 
       0.958396         18.2709         10.5027 
       0.974128         17.8001         10.1184 
       0.989692         17.0424         9.75726 
        1.00528         16.9322         9.41324 
        1.02113         16.3817         9.08049 
        1.03692         16.0284         8.76512 
        1.05264         15.6941         8.46624 
        1.06832          15.375         8.18181 
        1.08405         14.9376         7.90975 
        1.09979         14.6095         7.64995 
        1.11537         14.2199         7.40444 
        1.13105         14.0007         7.16828 
        1.14679         13.6662         6.94155 
        1.16256         13.4009         6.72422 
        1.17828         13.1304         6.51695 
        1.19395         12.9179         6.31914 
         1.2097         12.5317         6.12857 
        1.22537         12.3272          5.9468 
          1.241         12.0315         5.77298 
        1.25666         11.9421          5.6057 
        1.27241         11.7007         5.44429 
        1.28819         11.2346         5.28898 
        1.30392         11.2696          5.1402 
        1.31957         10.9606         4.99783 
        1.33529         10.8218         4.86034 
        1.35108         10.6231          4.7275 
        1.36674          10.375         4.60058 
         1.3824         10.2372         4.47846 
        1.39811          10.067         4.36038 
        1.41389         9.86955         4.24611 
        1.42964         9.73383         4.13615 
        1.44531          9.5661         4.03062 
        1.46101         9.44864         3.92857 
        1.47667         9.27069         3.83036 
        1.49229         9.04778         3.73578 
        1.50793         8.96771         3.64429 
        1.52367         8.82755         3.55529 
        1.53953         8.66825         3.46867 
        1.55526          8.5541         3.38564 
        1.57092         8.45484         3.30567 
        1.58662         8.30439          3.2281 
        1.60235         8.21108         3.15288 
        1.61809         8.09561         3.08002 
        1.63369         7.93237         3.01011 
        1.64941         7.82561         2.94189 
        1.66519         7.72931         2.87553 
        1.68085         7.59639          2.8117 
        1.69652         7.54435         2.74979 
        1.71228         7.45671         2.68939 
        1.72806         7.30885         2.63077 
        1.74368         7.24094         2.57448 
        1.75933         7.14876         2.51974 
        1.77505         7.01488         2.46633 
        1.79081         6.96152         2.41438 
         1.8065         6.90881         2.36415 
        1.82218         6.80138         2.31539 
        1.83797         6.68347         2.26768 
        1.85367         6.60666         2.22158 
        1.86928         6.54257         2.17704 
        1.88497         6.45808         2.13348 
        1.90073         6.37335         2.09096 
        1.91647         6.24711         2.04963 
        1.93218         6.21874         2.00951 
        1.94787         6.12811         1.97052 
        1.96363         6.07227         1.93242 
        1.97935         6.03634          1.8954 
        1.99499         5.94807         1.85956 
        2.01064         5.87436          1.8246 
         2.0264         5.81751         1.79032 
        2.04216         5.76793         1.75694 
        2.05781         5.69704         1.72462 
        2.07353         5.63097           1.693 
        2.08928         5.53254          1.6621 
        2.10499         5.49341         1.63206 
        2.12065         5.49497         1.60285 
        2.13633         5.41307         1.57434 
        2.15211         5.33547         1.54633 
        2.16785         5.26135         1.51909 
        2.18349         5.25759         1.49267 
        2.19916         5.18397         1.46682 
        2.21489         5.13232         1.44151 
        2.23063         5.07954         1.41677 
         2.2463         5.01509         1.39273 
        2.26194         4.95988          1.3693 
        2.27765         4.90488         1.34629 
        2.29341         4.84445         1.32376 
        2.30914         4.82763         1.30178 
        2.32486         4.77218         1.28032 
        2.34061         4.73582         1.25931 
        2.35635         4.68362         1.23878 
        2.37203         4.65839         1.21879 
        2.38768          4.6195         1.19928 
        2.40339         4.55815         1.18012 
        2.41914         4.52417         1.16134 
        2.43483         4.47258         1.14304 
         2.4505         4.42901         1.12516 
        2.46622         4.39287          1.1076 
        2.48195          4.3796         1.09041 
        2.49759         4.30505         1.07368 
        2.51328         4.28251         1.05726 
        2.52906         4.23452         1.04108 
        2.54479         4.20457          1.0253 
        2.56049         4.16923         1.00988 
        2.57618         4.13356        0.994785 
        2.59189         4.13446        0.979978 
        2.60758         4.07861        0.965496 
        2.62325         4.00972        0.951324 
        2.63898         4.00786        0.937388 
        2.65468         3.96117         0.92376 
        2.67044         3.94362        0.910344 
        2.68618         3.91147        0.897227 
        2.70184         3.88265         0.88442 
        2.71755         3.83067        0.871831 
        2.73329         3.81031        0.859468 
        2.74897         3.77887        0.847386 
        2.76462         3.74508        0.835562 
        2.78034         3.72396        0.823915 
        2.79607         3.68751        0.812478 
        2.81179         3.66001        0.801272 
        2.82749         3.62027        0.790289 
        2.84321         3.60676          0.7795 
        2.85893         3.57133        0.768916 
        2.87462         3.54919        0.758546 
        2.89033         3.53557        0.748358 
        2.90605         3.49913        0.738349 
        2.92176         3.45731        0.728527 
        2.93747         3.44321         0.71889 
        2.95318         3.41096        0.709424 
        2.96891         3.39792        0.700125 
        2.98456         3.36806        0.691034 
        3.00023           3.352        0.682091 
        3.01596         3.31454        0.673278 
        3.03164         3.29055        0.664647 
        3.04738         3.27728        0.656141 
         3.0631         3.25505        0.647787 
        3.07883         3.22724        0.639578 
        3.09456         3.19163        0.631513 
        3.11026         3.18073        0.623599 
        3.12596         3.16081        0.615822 
        3.14163         3.13795        0.608196 
        3.15734          3.1117         0.60068 
        3.17308         3.09195        0.593274 
        3.18879         3.07743        0.586013 
        3.20447         3.05104        0.578883 
         3.2202         3.03326        0.571851 
         3.2359         3.01519        0.564947 
        3.25157         2.99339        0.558174 
        3.26729         2.97031        0.551492 
        3.28304         2.94947        0.544906 
        3.29877         2.92604        0.538436 
        3.31446         2.91297        0.532085 
        3.33014         2.89167        0.525842 
        3.34585          2.8795         0.51969 
        3.36158         2.84957        0.513627 
        3.37727         2.84332         0.50768 
        3.39294         2.82084        0.501832 
        3.40867          2.8058        0.496055 
        3.42439         2.77549        0.490373 
        3.44008         2.76285         0.48479 
        3.45578         2.74728        0.479291 
        3.47153         2.73182        0.473864 
        3.48724         2.71836        0.468531 
        3.50292         2.69459        0.463292 
        3.51859         2.67935        0.458136 
        3.53431          2.6591        0.453043 
        3.55007         2.65516        0.448014 
        3.56577         2.62799        0.443082 
        3.58146         2.61512        0.438226 
        3.59719         2.60583        0.433431 
        3.61292         2.58368         0.42871 
        3.62859         2.57339        0.424077 
        3.64429         2.55052        0.419504 
        3.66003          2.5404        0.414984 
        3.67578         2.52468        0.410532 
        3.69146         2.50256        0.406162 
        3.70712         2.49164        0.401864 
        3.72284           2.476        0.397612 
        3.73853         2.46303        0.393429 
        3.75422         2.44569        0.389304 
        3.76993          2.4295        0.385235 
        3.78564         2.41319        0.381226 
        3.80137         2.39914        0.377268 
        3.81707         2.38836        0.373374 
        3.83279         2.37432        0.369531 
        3.84853         2.35741        0.365737 
        3.86424         2.34138        0.362003 
        3.87992         2.32812        0.358327 
        3.89561         2.31752        0.354701 
        3.91134         2.30496        0.351119 
        3.92704          2.2849         0.34759 
        3.94273         2.27219        0.344113 
        3.95845         2.25983        0.340677 
        3.97418         2.24757        0.337287 
        3.98988         2.23606        0.333948 
        4.00554         2.22598        0.330664 
        4.02125         2.20414        0.327414 
        4.03698         2.19933        0.324202 
        4.05268         2.17932        0.321041 
        4.06839         2.16937         0.31792 
         4.0841         2.15322        0.314841 
        4.09983         2.13687        0.311799 
        4.11555          2.1272        0.308798 
        4.13124         2.11505        0.305845 
        4.14693         2.09958        0.302928 
        4.16266         2.09395        0.300042 
        4.17839         2.07699        0.297196 
        4.19408         2.06033        0.294392 
        4.20977         2.04912        0.291624 
        4.22551         2.04255        0.288885 
        4.24123         2.02826        0.286184 
        4.25691         2.01558        0.283524 
        4.27259         2.00055        0.280898 
        4.28831          1.9929        0.278299 
        4.30404         1.98222        0.275731 
        4.31974         1.96949        0.273201 
        4.33543         1.95073        0.270704 
        4.35116         1.94825        0.268232 
        4.36688         1.93514        0.265792 
        4.38255         1.92743        0.263392 
        4.39825         1.91272        0.261016 
        4.41398          1.9027        0.258664 
         4.4297         1.89269        0.256344 
        4.44541         1.87694        0.254053 
        4.46111         1.87379        0.251791 
        4.47683         1.86388        0.249556 
        4.49251         1.84811        0.247352 
        4.50819          1.8412        0.245175 
         4.5239         1.83005        0.243021 
        4.53962         1.82082        0.240891 
        4.55535         1.81206        0.238785 
        4.57106         1.80146        0.236707 
        4.58678         1.78877        0.234653 
         4.6025         1.78119        0.232624 
        4.61821         1.77649        0.230618 
        4.63391         1.76597        0.228639 
         4.6496         1.75612        0.226684 
        4.66532         1.74949        0.224749 
        4.68103          1.7349        0.222837 
        4.69673         1.72886        0.220949 
        4.71241         1.72157        0.219085 
        4.72811         1.71628        0.217239 
        4.74384         1.70672        0.215413 
        4.75955         1.69853         0.21361 
        4.77525         1.68791        0.211828 
        4.79096         1.67754        0.210065 
        4.80669         1.67176        0.208321 
         4.8224         1.66618        0.206599 
        4.83809         1.65877        0.204898 
        4.85379         1.65422        0.203215 
         4.8695         1.63796        0.201549 
        4.88521         1.63564        0.199903 
        4.90093         1.63067        0.198275 
        4.91663         1.61913        0.196667 
        4.93234         1.61639        0.195075 
        4.94807         1.60554        0.193499 
        4.96377         1.59708        0.191944 
        4.97943         1.59159        0.190409 
        4.99514         1.58241        0.188887 
        5.01086         1.57535         0.18738 
        5.02654         1.56799        0.185894 
        5.04227         1.56505        0.184419 
          5.058         1.55755         0.18296 
        5.07371         1.55494        0.181519 
        5.08942         1.54663        0.180094 
        5.10513          1.5366        0.178684 
        5.12084         1.52948        0.177288 
        5.13656         1.52509        0.175907 
        5.15225         1.51865        0.174543 
        5.16796         1.51084        0.173192 
        5.18369         1.50673        0.171854 
         5.1994         1.50128        0.170532 
        5.21509         1.49339        0.169225 
        5.23079           1.489        0.167931 
        5.24649         1.48421        0.166651 
        5.26217         1.47698        0.165385 
        5.27788         1.46705        0.164131 
        5.29359         1.46342        0.162889 
        5.30933         1.45945        0.161658 
        5.32504         1.45239        0.160442 
        5.34073          1.4439         0.15924 
        5.35646         1.44026        0.158048 
        5.37218         1.43587        0.156868 
        5.38789         1.42791        0.155702 
        5.40357         1.42547        0.154549 
        5.41929         1.42065        0.153405 
        5.43502         1.41189        0.152273 
         5.4507          1.4071        0.151154 
        5.46639         1.40415        0.150047 
        5.48212         1.39794        0.148948 
        5.49786         1.39018        0.147859 
        5.51353         1.38869        0.146786 
        5.52921         1.38181        0.145723 
        5.54495         1.37898        0.144667 
        5.56066         1.37287        0.143623 
        5.57637         1.36682        0.142589 
        5.59207         1.36032        0.141566 
        5.60778         1.36021        0.140553 
        5.62346         1.35061        0.139552 
        5.63916         1.35033        0.138559 
        5.65487         1.34288        0.137575 
         5.6706         1.33668        0.136599 
        5.68633         1.33199        0.135633 
        5.70203         1.32989        0.134678 
        5.71773         1.32295        0.133732 
        5.73344         1.32228        0.132795 
        5.74916         1.31605        0.131866 
        5.76486          1.3096        0.130948 
        5.78054         1.30603        0.130039 
        5.79626         1.30334        0.129136 
          5.812         1.29823        0.128241 
         5.8277         1.29213        0.127358 
        5.84339         1.29009        0.126482 
        5.85911          1.2855        0.125613 
        5.87484         1.27809        0.124752 
        5.89053         1.27553        0.123901 
        5.90623         1.27321        0.123058 
        5.92195         1.26977        0.122221 
        5.93767         1.26249        0.121392 
        5.95336         1.25854        0.120573 
        5.96905         1.25186        0.119761 
        5.98476         1.25021        0.118955 
        6.00048         1.24748        0.118157 
        6.01617         1.24032        0.117367 
        6.03185         1.23869        0.116585 
        6.04756         1.23637        0.115809 
        6.06331         1.23115        0.115038 
        6.07903         1.22787        0.114275 
        6.09473         1.22315         0.11352 
        6.11044         1.21892        0.112771 
        6.12616         1.21342         0.11203 
        6.14186         1.21105        0.111295 
        6.15755         1.20889        0.110567 
        6.17326         1.20393        0.109845 
        6.18898         1.20062        0.109129 
        6.20467         1.19496        0.108421 
        6.22036         1.19377        0.107719 
         6.2361          1.1904        0.107022 
         6.2518         1.18814        0.106332 
        6.26748         1.18157        0.105649 
        6.28319         1.17982        0.104971 
        6.29893         1.17509        0.104298 
        6.31463         1.17243        0.103631 
        6.33033         1.16628        0.102971 
        6.34604         1.16428        0.102317 
        6.36177         1.16089        0.101667 
        6.37747         1.15815        0.101024 
