# k  (h/Mpc)    Pcb(k)  (Mpc/h)^3    Pcb_linear(k) (Mpc/h)^3   ShotnoiseSubtracted = true
      0.0200456         5590.45          5683.1 
      0.0350414         4054.11         4131.42 
      0.0492313         2996.13         3001.81 
      0.0637834         2536.83         2495.38 
      0.0800726         2010.27         1980.52 
       0.096163         1418.68         1437.04 
       0.111083          1125.4         1146.22 
       0.126058         1028.85         1015.78 
       0.142273         884.928         860.593 
       0.158546         719.224         679.688 
        0.17375         583.848         572.637 
       0.188953          552.25          518.51 
       0.204907         514.876         458.775 
       0.220756         431.363         388.152 
        0.23588         377.093         337.658 
         0.2514         333.274         306.759 
       0.267535         314.841         277.564 
       0.283568         284.336         244.774 
       0.299022         261.146         218.081 
       0.314451         238.101         199.312 
       0.330372         220.922         182.846 
       0.346141         199.023         165.961 
       0.361624         188.434         150.835 
       0.377134         177.124         138.792 
       0.392932         160.918         128.422 
       0.408854          154.51          118.38 
       0.424564         147.915         109.113 
       0.440253         138.326          101.16 
       0.455999         130.192         94.2451 
       0.471626         120.434         87.8902 
        0.48727         116.723         81.9455 
       0.502856         111.244         76.6051 
       0.518488         107.605         71.8402 
       0.534347         103.076         67.4104 
       0.550082         95.1233         63.3259 
       0.565732         90.9832         59.5892 
       0.581496         87.7002         56.1668 
       0.597222         84.8262         53.0281 
       0.612804         80.3577          50.142 
       0.628434           78.51         47.4519 
       0.644267         75.9893         44.9369 
       0.660051         73.5856         42.6189 
       0.675724         70.5822         40.4785 
       0.691403         68.4736         38.4833 
       0.707174          66.246         36.6114 
       0.722871         64.3376         34.8714 
        0.73838         62.7955         33.2631 
       0.754018         59.7289         31.7441 
       0.769845         58.4618         30.3035 
        0.78569         56.9097          28.951 
       0.801365         54.9246         27.6946 
       0.817031         53.4945         26.5138 
       0.832809         52.7068         25.3948 
       0.848511           50.07         24.3456 
       0.864097         48.9998         23.3633 
       0.879701         48.2384         22.4344 
       0.895507         47.4904         21.5454 
       0.911279          46.189         20.7065 
        0.92691         45.0326         19.9195 
       0.942635         43.4489         19.1693 
       0.958396         43.1985         18.4562 
       0.974128         41.9783         17.7809 
       0.989692         41.3094         17.1462 
        1.00528         40.4119         16.5417 
        1.02113         39.1523          15.957 
        1.03692         38.3775         15.4028 
        1.05264         37.8992         14.8775 
        1.06832         36.9298         14.3777 
        1.08405         36.3796         13.8996 
        1.09979         35.6995         13.4431 
        1.11537         34.5717         13.0117 
        1.13105         34.5849         12.5967 
        1.14679         34.0318         12.1982 
        1.16256         33.0578         11.8163 
        1.17828         32.5147         11.4521 
        1.19395         31.8986         11.1045 
         1.2097         31.6192         10.7696 
        1.22537         31.1332         10.4502 
          1.241         30.4394         10.1447 
        1.25666         29.6989         9.85079 
        1.27241         29.4547         9.56714 
        1.28819         28.6524         9.29422 
        1.30392         28.4043         9.03277 
        1.31957         28.1973         8.78258 
        1.33529         27.9017         8.54098 
        1.35108         27.2707         8.30753 
        1.36674         26.7974         8.08451 
         1.3824         26.2625         7.86991 
        1.39811         26.0987          7.6624 
        1.41389         25.7739         7.46161 
        1.42964         25.2966         7.26837 
        1.44531         25.1569         7.08293 
        1.46101         24.5149         6.90359 
        1.47667         24.2975         6.73101 
        1.49229         24.0786         6.56481 
        1.50793         23.7298         6.40404 
        1.52367         23.4783         6.24764 
        1.53953         23.2252         6.09543 
        1.55526         22.7754         5.94951 
        1.57092         22.4894         5.80899 
        1.58662         22.2285         5.67268 
        1.60235         21.9742         5.54049 
        1.61809         21.7139         5.41246 
        1.63369         21.4639         5.28961 
        1.64941         21.0503         5.16972 
        1.66519         20.9739         5.05311 
        1.68085         20.6327         4.94094 
        1.69652         20.3969         4.83214 
        1.71228         20.2183         4.72601 
        1.72806         19.9586           4.623 
        1.74368         19.6908         4.52409 
        1.75933         19.4896         4.42788 
        1.77505         19.2928         4.33403 
        1.79081         19.0214         4.24274 
         1.8065          18.934         4.15447 
        1.82218         18.6185         4.06879 
        1.83797         18.3575         3.98495 
        1.85367         18.1989         3.90394 
        1.86928         18.0562         3.82567 
        1.88497         17.7726         3.74912 
        1.90073         17.7769         3.67439 
        1.91647         17.4767         3.60177 
        1.93218          17.316         3.53127 
        1.94787         17.1913         3.46276 
        1.96363         17.0338         3.39579 
        1.97935         16.8422         3.33074 
        1.99499         16.6105         3.26777 
        2.01064         16.4754         3.20633 
         2.0264         16.2608         3.14609 
        2.04216         16.1206         3.08743 
        2.05781         15.8948         3.03064 
        2.07353         15.7646         2.97507 
        2.08928         15.6507         2.92078 
        2.10499         15.4569         2.86799 
        2.12065         15.2313         2.81666 
        2.13633         15.2256         2.76655 
        2.15211         14.9755         2.71734 
        2.16785         14.9546         2.66946 
        2.18349         14.8061         2.62304 
        2.19916         14.6047         2.57762 
        2.21489         14.4975         2.53313 
        2.23063         14.3334         2.48966 
         2.2463          14.189         2.44741 
        2.26194         14.0872         2.40624 
        2.27765         13.9817         2.36581 
        2.29341         13.8176         2.32621 
        2.30914          13.641          2.2876 
        2.32486         13.6179         2.24988 
        2.34061         13.4544         2.21295 
        2.35635         13.3031         2.17689 
        2.37203         13.2476         2.14175 
        2.38768         13.0838         2.10746 
        2.40339         12.9085          2.0738 
        2.41914         12.8222          2.0408 
        2.43483         12.7619         2.00863 
         2.4505         12.6232         1.97721 
        2.46622         12.5189         1.94636 
        2.48195         12.4235         1.91616 
        2.49759          12.316         1.88676 
        2.51328         12.1726         1.85791 
        2.52906         12.0736         1.82947 
        2.54479         11.9742         1.80174 
        2.56049         11.9224         1.77464 
        2.57618         11.8281         1.74812 
        2.59189          11.652          1.7221 
        2.60758         11.6212         1.69665 
        2.62325         11.5544         1.67174 
        2.63898         11.3619         1.64725 
        2.65468         11.2972          1.6233 
        2.67044         11.1964         1.59973 
        2.68618         11.0867         1.57668 
        2.70184         11.0114         1.55417 
        2.71755         10.9055         1.53205 
        2.73329         10.7922         1.51033 
        2.74897         10.7268         1.48909 
        2.76462         10.7088         1.46832 
        2.78034         10.5099         1.44785 
        2.79607         10.4637         1.42775 
        2.81179         10.3627         1.40806 
        2.82749         10.3319         1.38876 
        2.84321         10.2002          1.3698 
        2.85893         10.1368          1.3512 
        2.87462         10.0751         1.33298 
        2.89033         9.93551         1.31507 
        2.90605          9.8709         1.29748 
        2.92176          9.8223         1.28023 
        2.93747         9.72358         1.26329 
        2.95318         9.67315         1.24666 
        2.96891         9.58229         1.23032 
        2.98456         9.49242         1.21434 
        3.00023         9.43668         1.19862 
        3.01596         9.35964         1.18314 
        3.03164         9.31582         1.16797 
        3.04738         9.22557         1.15302 
         3.0631         9.11872         1.13834 
        3.07883         9.07333         1.12392 
        3.09456         9.02164         1.10975 
        3.11026          8.9071         1.09584 
        3.12596          8.8878         1.08217 
        3.14163         8.78728         1.06877 
        3.15734         8.72622         1.05556 
        3.17308         8.67904         1.04255 
        3.18879          8.5935         1.02979 
        3.20447         8.52069         1.01726 
         3.2202         8.45508          1.0049 
         3.2359         8.41537         0.99277 
        3.25157         8.34821        0.980868 
        3.26729         8.29104        0.969125 
        3.28304         8.19752        0.957552 
        3.29877         8.13644        0.946182 
        3.31446         8.10458        0.935022 
        3.33014         8.00706        0.924052 
        3.34585         7.98988        0.913241 
        3.36158         7.91839        0.902586 
        3.37727         7.86561        0.892135 
        3.39294         7.81965        0.881859 
        3.40867         7.70283        0.871708 
        3.42439          7.6876        0.861722 
        3.44008         7.61799        0.851912 
        3.45578         7.56875        0.842248 
        3.47153         7.52921        0.832712 
        3.48724         7.46103         0.82334 
        3.50292         7.42316        0.814134 
        3.51859         7.35314        0.805074 
        3.53431         7.29498        0.796123 
        3.55007         7.26548        0.787287 
        3.56577         7.21151        0.778619 
        3.58146         7.15118        0.770085 
        3.59719         7.08914         0.76166 
        3.61292         7.05356        0.753364 
        3.62859         6.99248        0.745222 
        3.64429         6.94375        0.737185 
        3.66003         6.87363        0.729242 
        3.67578         6.85187        0.721419 
        3.69146         6.79103         0.71374 
        3.70712         6.77636        0.706187 
        3.72284         6.67678        0.698715 
        3.73853          6.6598        0.691364 
        3.75422         6.60062        0.684116 
        3.76993         6.57476        0.676966 
        3.78564         6.51216        0.669921 
        3.80137         6.47838        0.662965 
        3.81707         6.41458        0.656122 
        3.83279          6.4116         0.64937 
        3.84853          6.3322        0.642702 
        3.86424         6.27438         0.63614 
        3.87992         6.24665         0.62968 
        3.89561         6.19944        0.623309 
        3.91134         6.15347        0.617014 
        3.92704         6.11647        0.610812 
        3.94273         6.06867        0.604702 
        3.95845         6.03315        0.598664 
        3.97418         6.00672        0.592708 
        3.98988          5.9474         0.58684 
        4.00554         5.90921        0.581068 
        4.02125         5.85657        0.575357 
        4.03698         5.82884        0.569714 
        4.05268         5.79516        0.564159 
        4.06839         5.75751        0.558674 
         4.0841         5.71328        0.553264 
        4.09983         5.67009        0.547918 
        4.11555         5.62774        0.542645 
        4.13124         5.59276        0.537455 
        4.14693         5.53146        0.532329 
        4.16266         5.49118        0.527258 
        4.17839         5.46141        0.522256 
        4.19408         5.41708         0.51733 
        4.20977         5.38486        0.512465 
        4.22551         5.33895        0.507652 
        4.24123          5.3068        0.502905 
        4.25691         5.27998        0.498232 
        4.27259         5.24121        0.493616 
        4.28831         5.20294         0.48905 
        4.30404         5.16078        0.484537 
        4.31974         5.13641        0.480091 
        4.33543         5.09387        0.475703 
        4.35116         5.06098        0.471359 
        4.36688         5.01021        0.467072 
        4.38255         4.97569        0.462853 
        4.39825         4.96347        0.458678 
        4.41398         4.92162        0.454545 
         4.4297         4.89619        0.450468 
        4.44541         4.85354        0.446442 
        4.46111         4.83563        0.442468 
        4.47683         4.77501        0.438539 
        4.49251         4.76023        0.434666 
        4.50819         4.72351        0.430841 
         4.5239          4.6945        0.427057 
        4.53962         4.67443        0.423313 
        4.55535         4.63699        0.419612 
        4.57106          4.6115         0.41596 
        4.58678          4.5775        0.412352 
         4.6025         4.54791        0.408785 
        4.61821          4.5144        0.405261 
        4.63391         4.49297        0.401783 
         4.6496         4.45696        0.398347 
        4.66532         4.43604        0.394946 
        4.68103         4.39197        0.391587 
        4.69673         4.37209        0.388269 
        4.71241         4.33812        0.384994 
        4.72811         4.32194         0.38175 
        4.74384          4.2997         0.37854 
        4.75955         4.25834        0.375372 
        4.77525         4.22534        0.372241 
        4.79096         4.20244        0.369143 
        4.80669         4.16799        0.366078 
         4.8224          4.1539        0.363052 
        4.83809         4.12453        0.360062 
        4.85379          4.0952        0.357105 
         4.8695         4.06922        0.354179 
        4.88521         4.04633        0.351286 
        4.90093         4.03106        0.348425 
        4.91663         3.99362        0.345599 
        4.93234         3.97243        0.342801 
        4.94807         3.95324        0.340032 
        4.96377         3.91075        0.337299 
        4.97943         3.89288        0.334602 
        4.99514         3.86921        0.331927 
        5.01086         3.84815         0.32928 
        5.02654          3.8217        0.326668 
        5.04227         3.79736        0.324076 
          5.058         3.77657        0.321512 
        5.07371         3.75118         0.31898 
        5.08942         3.73119        0.316475 
        5.10513         3.70783        0.313997 
        5.12084         3.68453        0.311544 
        5.13656         3.66869        0.309118 
        5.15225         3.64721        0.306722 
        5.16796         3.61719        0.304347 
        5.18369         3.59447        0.301995 
         5.1994          3.5714        0.299672 
        5.21509         3.55606        0.297376 
        5.23079         3.52867        0.295101 
        5.24649         3.50905        0.292852 
        5.26217         3.49066        0.290628 
        5.27788         3.46128        0.288423 
        5.29359         3.43856        0.286241 
        5.30933         3.42834        0.284079 
        5.32504          3.4066        0.281942 
        5.34073         3.38029         0.27983 
        5.35646         3.36874        0.277735 
        5.37218         3.34342        0.275661 
        5.38789         3.32678        0.273612 
        5.40357         3.30778        0.271586 
        5.41929         3.28099        0.269576 
        5.43502         3.26725        0.267586 
         5.4507         3.25002         0.26562 
        5.46639         3.22313        0.263675 
        5.48212         3.21093        0.261744 
        5.49786         3.19073         0.25983 
        5.51353         3.16984        0.257945 
        5.52921         3.15149        0.256076 
        5.54495         3.13303        0.254221 
        5.56066         3.11457        0.252386 
        5.57637         3.10348        0.250569 
        5.59207           3.085        0.248772 
        5.60778         3.06727        0.246992 
        5.62346         3.04463        0.245231 
        5.63916         3.02731        0.243486 
        5.65487         3.01204        0.241757 
         5.6706         2.99167        0.240043 
        5.68633         2.97387        0.238345 
        5.70203         2.96414        0.236667 
        5.71773         2.94191        0.235005 
        5.73344         2.92342        0.233359 
        5.74916         2.90742        0.231726 
        5.76486         2.89496        0.230111 
        5.78054         2.87066        0.228515 
        5.79626         2.86135        0.226929 
          5.812         2.84843        0.225356 
         5.8277         2.83242        0.223803 
        5.84339         2.81295        0.222264 
        5.85911          2.8001        0.220737 
        5.87484         2.78883        0.219225 
        5.89053         2.76379         0.21773 
        5.90623         2.75068        0.216247 
        5.92195          2.7387        0.214777 
        5.93767          2.7223         0.21332 
        5.95336         2.70678         0.21188 
        5.96905         2.69236        0.210453 
        5.98476         2.68094        0.209038 
        6.00048          2.6677        0.207635 
        6.01617         2.64661        0.206247 
        6.03185         2.63507        0.204873 
        6.04756         2.61859        0.203508 
        6.06331         2.60332        0.202153 
        6.07903         2.58876        0.200813 
        6.09473         2.58159        0.199487 
        6.11044         2.56091        0.198171 
        6.12616         2.55043        0.196867 
        6.14186         2.53375        0.195577 
        6.15755         2.52144        0.194298 
        6.17326          2.5099        0.193029 
        6.18898         2.49566        0.191771 
        6.20467         2.48482        0.190527 
        6.22036         2.46965        0.189293 
         6.2361         2.45586        0.188068 
         6.2518          2.4465        0.186855 
        6.26748          2.4317        0.185655 
        6.28319         2.41638        0.184463 
        6.29893         2.41033         0.18328 
        6.31463         2.39402        0.182109 
        6.33033            2.38         0.18095 
        6.34604         2.36783        0.179799 
        6.36177         2.35876        0.178657 
        6.37747         2.34641        0.177527 
