# k  (h/Mpc)    Pcb(k)  (Mpc/h)^3    Pcb_linear(k) (Mpc/h)^3   ShotnoiseSubtracted = true
      0.0200456         6714.58         6829.51 
      0.0350414         4859.54         4964.82 
      0.0492313         3595.56         3607.35 
      0.0637834         3051.31         2998.75 
      0.0800726         2417.38         2380.04 
       0.096163         1701.72         1726.92 
       0.111083         1350.38         1377.44 
       0.126058         1237.43         1220.69 
       0.142273         1065.68         1034.19 
       0.158546         871.321         816.796 
        0.17375         705.089          688.15 
       0.188953         670.361         623.105 
       0.204907         626.494         551.321 
       0.220756         526.322         466.451 
        0.23588         460.691         405.771 
         0.2514         405.976         368.639 
       0.267535         386.291         333.555 
       0.283568         349.425         294.151 
       0.299022         322.076         262.073 
       0.314451          295.72         239.517 
       0.330372         273.981          219.73 
       0.346141         246.675         199.439 
       0.361624         234.784         181.262 
       0.377134         220.265          166.79 
       0.392932         202.111         154.327 
       0.408854         193.866          142.26 
       0.424564         185.754         131.123 
       0.440253         174.925         121.566 
       0.455999         164.622         113.256 
       0.471626         152.195          105.62 
        0.48727         147.759         98.4758 
       0.502856         141.435         92.0581 
       0.518488         137.606         86.3319 
       0.534347         131.343         81.0085 
       0.550082         121.619         76.1001 
       0.565732         117.203         71.6096 
       0.581496         112.492         67.4969 
       0.597222          108.88         63.7251 
       0.612804         103.641         60.2567 
       0.628434         101.362          57.024 
       0.644267         97.9261         54.0016 
       0.660051         95.4907         51.2161 
       0.675724         92.1334         48.6439 
       0.691403         89.3534         46.2463 
       0.707174         86.1167         43.9967 
       0.722871         84.3129         41.9057 
        0.73838         82.5102          39.973 
       0.754018         78.4949         38.1476 
       0.769845         76.9713         36.4163 
        0.78569         75.0371         34.7911 
       0.801365         72.5879         33.2812 
       0.817031         70.3328         31.8623 
       0.832809         69.5074         30.5175 
       0.848511         66.5219         29.2567 
       0.864097         64.9088         28.0762 
       0.879701         64.0495         26.9599 
       0.895507         62.9234         25.8915 
       0.911279         61.5993         24.8835 
        0.92691         60.0115         23.9378 
       0.942635         58.0532         23.0361 
       0.958396         57.8285         22.1793 
       0.974128         56.3076         21.3677 
       0.989692         55.1936          20.605 
        1.00528         54.0756         19.8785 
        1.02113         52.7014         19.1758 
        1.03692         51.4854         18.5098 
        1.05264         51.1016         17.8787 
        1.06832         49.7545          17.278 
        1.08405         49.1563         16.7035 
        1.09979         48.4588         16.1549 
        1.11537         46.6524         15.6364 
        1.13105         46.9718         15.1377 
        1.14679         46.0092         14.6589 
        1.16256         45.0629            14.2 
        1.17828         44.0165         13.7622 
        1.19395         43.5002         13.3445 
         1.2097         42.8266         12.9421 
        1.22537         42.5282         12.5582 
          1.241         41.4398         12.1912 
        1.25666         40.5734         11.8379 
        1.27241         40.2887          11.497 
        1.28819         39.2165         11.1691 
        1.30392         38.7432         10.8549 
        1.31957          38.492         10.5542 
        1.33529         38.0689         10.2639 
        1.35108          37.484         9.98335 
        1.36674         36.8115         9.71534 
         1.3824         35.9622         9.45744 
        1.39811         35.8836         9.20808 
        1.41389          35.328         8.96678 
        1.42964         34.7062         8.73456 
        1.44531         34.3989         8.51172 
        1.46101         33.5861          8.2962 
        1.47667         33.4862          8.0888 
        1.49229         33.1614         7.88907 
        1.50793         32.5695         7.69588 
        1.52367         32.2512         7.50793 
        1.53953         31.9965         7.32501 
        1.55526          31.344         7.14966 
        1.57092         31.0177         6.98079 
        1.58662         30.6127         6.81698 
        1.60235         30.3085         6.65813 
        1.61809          29.871         6.50427 
        1.63369         29.5224         6.35665 
        1.64941         29.0392         6.21256 
        1.66519          28.844         6.07243 
        1.68085         28.4871         5.93763 
        1.69652         28.1668         5.80689 
        1.71228         27.9447         5.67936 
        1.72806         27.4789         5.55556 
        1.74368          27.122          5.4367 
        1.75933         26.8334         5.32109 
        1.77505         26.6991          5.2083 
        1.79081         26.2488         5.09859 
         1.8065         26.0371         4.99252 
        1.82218         25.7828         4.88956 
        1.83797         25.4103         4.78881 
        1.85367         25.1194         4.69145 
        1.86928         24.8897         4.59739 
        1.88497         24.4962         4.50541 
        1.90073         24.5192          4.4156 
        1.91647         24.0867         4.32833 
        1.93218         23.8966          4.2436 
        1.94787         23.6756         4.16127 
        1.96363         23.4943          4.0808 
        1.97935         23.2209         4.00263 
        1.99499         22.9412         3.92695 
        2.01064         22.7886         3.85312 
         2.0264         22.3794         3.78073 
        2.04216         22.2106         3.71023 
        2.05781          21.989         3.64198 
        2.07353          21.784         3.57521 
        2.08928         21.7195         3.50997 
        2.10499         21.4254         3.44653 
        2.12065          21.065         3.38485 
        2.13633         21.0232         3.32463 
        2.15211         20.6327         3.26549 
        2.16785         20.5666         3.20795 
        2.18349         20.3711         3.15216 
        2.19916         20.1648         3.09758 
        2.21489         19.9421         3.04412 
        2.23063         19.7888         2.99188 
         2.2463         19.6194         2.94111 
        2.26194         19.4935         2.89164 
        2.27765         19.1943         2.84305 
        2.29341         18.9711         2.79546 
        2.30914         18.8829         2.74905 
        2.32486         18.7414         2.70373 
        2.34061          18.534         2.65935 
        2.35635         18.2695         2.61601 
        2.37203         18.1814         2.57379 
        2.38768         18.0308         2.53259 
        2.40339         17.8299         2.49214 
        2.41914         17.6635         2.45247 
        2.43483          17.504         2.41382 
         2.4505         17.3074         2.37606 
        2.46622         17.1721         2.33898 
        2.48195         16.9971         2.30269 
        2.49759         16.8487         2.26737 
        2.51328         16.7019         2.23269 
        2.52906          16.595         2.19852 
        2.54479         16.4238         2.16519 
        2.56049         16.2828         2.13262 
        2.57618         16.1679         2.10075 
        2.59189         16.0197         2.06948 
        2.60758         15.8832          2.0389 
        2.62325         15.7631         2.00897 
        2.63898         15.5924         1.97954 
        2.65468         15.5013         1.95076 
        2.67044         15.3131         1.92243 
        2.68618         15.2166         1.89473 
        2.70184         15.0788         1.86768 
        2.71755         14.9066          1.8411 
        2.73329         14.8117         1.81499 
        2.74897         14.6472         1.78948 
        2.76462         14.6591         1.76451 
        2.78034         14.4207         1.73991 
        2.79607         14.2894         1.71576 
        2.81179         14.1774         1.69209 
        2.82749         14.0731          1.6689 
        2.84321         13.9232         1.64612 
        2.85893         13.8306         1.62377 
        2.87462         13.7147         1.60187 
        2.89033         13.5443         1.58035 
        2.90605         13.4779         1.55922 
        2.92176         13.3538         1.53848 
        2.93747         13.2712         1.51812 
        2.95318         13.1113         1.49814 
        2.96891         12.9952          1.4785 
        2.98456          12.926          1.4593 
        3.00023         12.8253         1.44041 
        3.01596         12.7129          1.4218 
        3.03164         12.6107         1.40358 
        3.04738         12.4758         1.38561 
         3.0631         12.3952         1.36797 
        3.07883          12.254         1.35064 
        3.09456         12.1945         1.33361 
        3.11026         12.0294         1.31689 
        3.12596         12.0005         1.30047 
        3.14163         11.8906         1.28436 
        3.15734         11.7738         1.26849 
        3.17308         11.6908         1.25285 
        3.18879         11.6428         1.23752 
        3.20447         11.4906         1.22246 
         3.2202         11.3997         1.20761 
         3.2359         11.3603         1.19303 
        3.25157         11.2556         1.17873 
        3.26729         11.1319         1.16462 
        3.28304          11.042         1.15071 
        3.29877         10.9424         1.13705 
        3.31446         10.8844         1.12364 
        3.33014         10.7753         1.11045 
        3.34585         10.7327         1.09746 
        3.36158         10.6557         1.08466 
        3.37727         10.5389          1.0721 
        3.39294         10.4594         1.05975 
        3.40867         10.3415         1.04755 
        3.42439         10.2796         1.03555 
        3.44008         10.2104         1.02376 
        3.45578         10.1312         1.01215 
        3.47153         10.0857         1.00069 
        3.48724         9.99472        0.989426 
        3.50292          9.8916        0.978363 
        3.51859         9.84632        0.967475 
        3.53431         9.75182        0.956719 
        3.55007         9.68203          0.9461 
        3.56577         9.61817        0.935684 
        3.58146          9.5462        0.925429 
        3.59719         9.45117        0.915304 
        3.61292         9.37831        0.905334 
        3.62859         9.29092         0.89555 
        3.64429          9.2562        0.885892 
        3.66003         9.15391        0.876347 
        3.67578         9.06608        0.866945 
        3.69146         9.03668        0.857718 
        3.70712         8.96813        0.848641 
        3.72284         8.89263        0.839662 
        3.73853         8.81908        0.830828 
        3.75422          8.7678        0.822118 
        3.76993         8.69023        0.813526 
        3.78564         8.61074        0.805059 
        3.80137         8.56616          0.7967 
        3.81707         8.47574        0.788476 
        3.83279         8.44551        0.780362 
        3.84853         8.36428        0.772349 
        3.86424         8.28548        0.764464 
        3.87992         8.21246        0.756701 
        3.89561         8.18394        0.749045 
        3.91134         8.11802        0.741479 
        3.92704         8.05371        0.734027 
        3.94273         7.99477        0.726684 
        3.95845         7.94754        0.719428 
        3.97418         7.85272         0.71227 
        3.98988         7.81453        0.705219 
        4.00554         7.74705        0.698283 
        4.02125         7.69716         0.69142 
        4.03698         7.64735        0.684638 
        4.05268         7.59233        0.677963 
        4.06839         7.51539        0.671372 
         4.0841         7.46988         0.66487 
        4.09983         7.43708        0.658445 
        4.11555         7.37742        0.652108 
        4.13124         7.32027        0.645872 
        4.14693         7.24807        0.639711 
        4.16266         7.19826        0.633617 
        4.17839         7.14993        0.627606 
        4.19408         7.08496        0.621687 
        4.20977         7.03515        0.615841 
        4.22551         6.97871        0.610056 
        4.24123          6.9268        0.604352 
        4.25691         6.87109        0.598736 
        4.27259         6.83289        0.593189 
        4.28831         6.77824        0.587702 
        4.30404         6.72525        0.582279 
        4.31974         6.67526        0.576936 
        4.33543         6.62842        0.571663 
        4.35116         6.58039        0.566443 
        4.36688         6.52512         0.56129 
        4.38255          6.4759        0.556221 
        4.39825         6.42026        0.551203 
        4.41398         6.39198        0.546237 
         4.4297         6.35963        0.541338 
        4.44541         6.28902        0.536499 
        4.46111         6.27879        0.531724 
        4.47683         6.19602        0.527003 
        4.49251         6.18584        0.522348 
        4.50819         6.11857        0.517752 
         4.5239         6.07015        0.513203 
        4.53962         6.04854        0.508704 
        4.55535         5.98288        0.504257 
        4.57106         5.94587        0.499869 
        4.58678         5.90704        0.495532 
         4.6025         5.85974        0.491246 
        4.61821         5.81868        0.487011 
        4.63391         5.78667        0.482832 
         4.6496         5.73481        0.478703 
        4.66532         5.71884        0.474616 
        4.68103         5.64725        0.470579 
        4.69673         5.63583        0.466592 
        4.71241         5.58325        0.462655 
        4.72811         5.53883        0.458758 
        4.74384         5.50329          0.4549 
        4.75955         5.46278        0.451093 
        4.77525         5.43191        0.447331 
        4.79096         5.39262        0.443607 
        4.80669         5.36277        0.439924 
         4.8224         5.32871        0.436287 
        4.83809         5.27633        0.432695 
        4.85379         5.22886        0.429141 
         4.8695         5.21449        0.425624 
        4.88521          5.1788        0.422148 
        4.90093         5.12314        0.418711 
        4.91663         5.10697        0.415314 
        4.93234         5.07802        0.411952 
        4.94807         5.02517        0.408625 
        4.96377         4.99399         0.40534 
        4.97943         4.95546        0.402099 
        4.99514         4.92065        0.398884 
        5.01086         4.89069        0.395703 
        5.02654         4.87303        0.392564 
        5.04227         4.83049         0.38945 
          5.058         4.79446        0.386368 
        5.07371         4.77073        0.383326 
        5.08942         4.73581        0.380315 
        5.10513         4.71009        0.377337 
        5.12084         4.68163         0.37439 
        5.13656         4.64683        0.371474 
        5.15225          4.6151        0.368594 
        5.16796         4.58562         0.36574 
        5.18369         4.54592        0.362914 
         5.1994         4.52352        0.360123 
        5.21509         4.48999        0.357363 
        5.23079         4.46746         0.35463 
        5.24649         4.43252        0.351927 
        5.26217         4.40489        0.349254 
        5.27788         4.37362        0.346605 
        5.29359         4.34099        0.343983 
        5.30933         4.31898        0.341384 
        5.32504         4.29394        0.338816 
        5.34073         4.25675        0.336278 
        5.35646         4.23324         0.33376 
        5.37218         4.20308        0.331268 
        5.38789         4.18183        0.328806 
        5.40357         4.15451        0.326371 
        5.41929         4.12401        0.323955 
        5.43502         4.10966        0.321564 
         5.4507            4.07        0.319202 
        5.46639         4.04882        0.316864 
        5.48212         4.03001        0.314543 
        5.49786         4.00301        0.312243 
        5.51353         3.97155        0.309978 
        5.52921         3.94926        0.307732 
        5.54495         3.91702        0.305503 
        5.56066         3.90359        0.303298 
        5.57637         3.87507        0.301114 
        5.59207          3.8513        0.298955 
        5.60778          3.8281        0.296815 
        5.62346         3.79597          0.2947 
        5.63916         3.77831        0.292603 
        5.65487          3.7535        0.290525 
         5.6706         3.73397        0.288465 
        5.68633         3.71014        0.286425 
        5.70203         3.68172        0.284408 
        5.71773         3.66751        0.282411 
        5.73344         3.64425        0.280432 
        5.74916         3.62127         0.27847 
        5.76486         3.60057         0.27653 
        5.78054         3.57568        0.274611 
        5.79626         3.55638        0.272705 
          5.812         3.53763        0.270815 
         5.8277         3.51884        0.268949 
        5.84339         3.49187          0.2671 
        5.85911         3.47507        0.265265 
        5.87484         3.45238        0.263447 
        5.89053         3.43119         0.26165 
        5.90623         3.40833        0.259869 
        5.92195         3.38903        0.258102 
        5.93767         3.37421        0.256352 
        5.95336         3.35737        0.254621 
        5.96905         3.33324        0.252906 
        5.98476         3.31111        0.251205 
        6.00048         3.28743        0.249519 
        6.01617         3.27374        0.247851 
        6.03185         3.24931          0.2462 
        6.04756         3.23807         0.24456 
        6.06331         3.21039        0.242932 
        6.07903         3.19808        0.241322 
        6.09473         3.17973        0.239728 
        6.11044         3.15776        0.238146 
        6.12616         3.14204         0.23658 
        6.14186         3.12779        0.235029 
        6.15755         3.10202        0.233492 
        6.17326         3.09403        0.231967 
        6.18898         3.07042        0.230456 
        6.20467         3.05138         0.22896 
        6.22036         3.03025        0.227478 
         6.2361         3.01946        0.226005 
         6.2518         3.00159        0.224547 
        6.26748          2.9832        0.223106 
        6.28319         2.96511        0.221673 
        6.29893         2.95023        0.220252 
        6.31463         2.93592        0.218845 
        6.33033         2.92558        0.217451 
        6.34604         2.90102        0.216068 
        6.36177         2.88336        0.214696 
        6.37747         2.86807        0.213339 
