# k  (h/Mpc)    Pcb(k)  (Mpc/h)^3    Pcb_linear(k) (Mpc/h)^3   ShotnoiseSubtracted = true
      0.0200456           23891         24324.6 
      0.0350414         18252.5         17683.2 
      0.0492313           12541         12848.2 
      0.0637834         10106.4         10680.6 
      0.0800726         7925.86         8476.95 
       0.096163         6396.95         6150.76 
       0.111083         5210.26         4906.01 
       0.126058         4303.99         4347.72 
       0.142273         3779.92         3683.48 
       0.158546         3100.68         2909.17 
        0.17375         2783.61         2450.98 
       0.188953         2649.86          2219.3 
       0.204907          2280.9         1963.63 
       0.220756         2066.58         1661.35 
        0.23588         1845.65         1445.23 
         0.2514         1676.32         1312.98 
       0.267535         1614.18         1188.02 
       0.283568         1444.23         1047.67 
       0.299022          1375.8         933.423 
       0.314451         1435.33         853.086 
       0.330372         1278.38          782.61 
       0.346141         1173.83         710.338 
       0.361624            1126           645.6 
       0.377134         1082.64         594.054 
       0.392932         1028.94         549.666 
       0.408854         989.295         506.686 
       0.424564         968.899          467.02 
       0.440253         902.461         432.982 
       0.455999         862.808         403.384 
       0.471626         875.945         376.184 
        0.48727         827.862          350.74 
       0.502856          800.24         327.882 
       0.518488         772.386         307.487 
       0.534347         745.572         288.527 
       0.550082         711.308         271.045 
       0.565732         699.368         255.051 
       0.581496         684.389         240.403 
       0.597222         672.227         226.969 
       0.612804         655.143         214.616 
       0.628434         628.562         203.102 
       0.644267         612.028         192.337 
       0.660051         605.558         182.416 
       0.675724         593.846         173.255 
       0.691403         574.219         164.715 
       0.707174          558.74         156.703 
       0.722871         554.401         149.255 
        0.73838         540.128         142.371 
       0.754018         528.828          135.87 
       0.769845         521.349         129.704 
        0.78569          509.86         123.915 
       0.801365         493.596         118.537 
       0.817031         488.802         113.483 
       0.832809         480.817         108.694 
       0.848511         473.086         104.203 
       0.864097          463.36         99.9985 
       0.879701         463.546         96.0229 
       0.895507         445.115         92.2176 
       0.911279         439.818         88.6273 
        0.92691         433.705         85.2588 
       0.942635          428.04         82.0476 
       0.958396          415.61         78.9957 
       0.974128         409.316         76.1053 
       0.989692         398.842         73.3886 
        1.00528          394.11         70.8011 
        1.02113         387.403         68.2983 
        1.03692         381.772         65.9263 
        1.05264         376.665         63.6783 
        1.06832         367.837          61.539 
        1.08405         366.709         59.4927 
        1.09979         358.188         57.5387 
        1.11537         349.385         55.6921 
        1.13105         345.385         53.9158 
        1.14679         339.234         52.2105 
        1.16256         337.348         50.5758 
        1.17828         331.935         49.0168 
        1.19395         323.623          47.529 
         1.2097         320.619         46.0957 
        1.22537         315.871         44.7285 
          1.241         309.156         43.4211 
        1.25666          306.12          42.163 
        1.27241         302.391         40.9489 
        1.28819         294.611         39.7807 
        1.30392         294.429         38.6617 
        1.31957         286.819         37.5908 
        1.33529         282.752         36.5568 
        1.35108         281.534         35.5576 
        1.36674         274.072          34.603 
         1.3824         270.482         33.6845 
        1.39811         267.112         32.7963 
        1.41389         261.757         31.9369 
        1.42964         258.102         31.1098 
        1.44531         254.849         30.3161 
        1.46101         250.164         29.5485 
        1.47667         247.772         28.8098 
        1.49229         244.372         28.0984 
        1.50793         240.298         27.4103 
        1.52367         236.481         26.7409 
        1.53953          233.06         26.0894 
        1.55526         229.923         25.4649 
        1.57092             228         24.8634 
        1.58662         222.986           24.28 
        1.60235          220.15         23.7142 
        1.61809         218.246         23.1662 
        1.63369         214.069         22.6404 
        1.64941         211.056         22.1272 
        1.66519         208.152         21.6281 
        1.68085         204.435          21.148 
        1.69652         202.246         20.6823 
        1.71228         199.202         20.2281 
        1.72806         196.943         19.7872 
        1.74368         194.437         19.3638 
        1.75933          192.93          18.952 
        1.77505         189.881         18.5503 
        1.79081          186.75         18.1596 
         1.8065         185.739         17.7818 
        1.82218         180.842         17.4151 
        1.83797         179.473         17.0562 
        1.85367         176.918         16.7095 
        1.86928         174.105         16.3745 
        1.88497         172.338         16.0469 
        1.90073         170.803          15.727 
        1.91647         167.729         15.4162 
        1.93218         164.926         15.1144 
        1.94787         162.895         14.8211 
        1.96363          161.99         14.5345 
        1.97935         159.994         14.2561 
        1.99499         157.495         13.9866 
        2.01064         154.297         13.7236 
         2.0264         153.754         13.4658 
        2.04216          150.84         13.2147 
        2.05781         148.631         12.9716 
        2.07353         147.808         12.7338 
        2.08928         145.891         12.5014 
        2.10499         143.955         12.2755 
        2.12065         142.404         12.0558 
        2.13633         140.308         11.8413 
        2.15211          138.26         11.6306 
        2.16785         136.938         11.4257 
        2.18349         135.384          11.227 
        2.19916         133.422         11.0326 
        2.21489         131.554         10.8422 
        2.23063         130.076         10.6561 
         2.2463         128.266         10.4753 
        2.26194         127.218         10.2991 
        2.27765         125.115         10.1261 
        2.29341         124.129         9.95655 
        2.30914         122.513         9.79127 
        2.32486         120.818         9.62984 
        2.34061         119.002         9.47179 
        2.35635         118.167         9.31742 
        2.37203         116.398         9.16703 
        2.38768         115.462         9.02028 
        2.40339         113.333         8.87621 
        2.41914           112.1         8.73495 
        2.43483         111.072         8.59727 
         2.4505          110.05         8.46279 
        2.46622         108.031         8.33072 
        2.48195         107.077         8.20147 
        2.49759         105.348         8.07565 
        2.51328         104.357         7.95215 
        2.52906         103.427         7.83044 
        2.54479          101.99         7.71174 
        2.56049         100.615         7.59573 
        2.57618         99.5142         7.48221 
        2.59189         98.9152         7.37084 
        2.60758         97.2454         7.26192 
        2.62325         96.4535         7.15533 
        2.63898         95.1878          7.0505 
        2.65468         94.3356           6.948 
        2.67044         93.4299          6.8471 
        2.68618         91.9038         6.74843 
        2.70184         91.0008         6.65211 
        2.71755         90.2061         6.55742 
        2.73329          88.709         6.46444 
        2.74897         87.8946         6.37356 
        2.76462         87.5569         6.28463 
        2.78034         86.1812         6.19703 
        2.79607         84.9183         6.11101 
        2.81179          84.188         6.02672 
        2.82749         83.5344         5.94411 
        2.84321         82.2226         5.86296 
        2.85893         81.0016         5.78335 
        2.87462         80.5647         5.70536 
        2.89033         79.5436         5.62873 
        2.90605         78.6588         5.55344 
        2.92176         78.1066         5.47957 
        2.93747         77.1194         5.40709 
        2.95318           75.97         5.33589 
        2.96891         75.5725         5.26595 
        2.98456         74.3432         5.19757 
        3.00023         73.7156         5.13031 
        3.01596         73.1091         5.06402 
        3.03164         72.1651          4.9991 
        3.04738         71.7939         4.93513 
         3.0631         70.6196         4.87229 
        3.07883         70.0288         4.81055 
        3.09456         69.0808         4.74989 
        3.11026         68.7391         4.69037 
        3.12596         67.7612         4.63187 
        3.14163         67.1643         4.57451 
        3.15734         66.1897         4.51798 
        3.17308         65.7977         4.46227 
        3.18879         65.0657         4.40766 
        3.20447         64.4593         4.35404 
         3.2202         63.4515         4.30114 
         3.2359         62.9383         4.24922 
        3.25157         62.4419         4.19827 
        3.26729         61.6036         4.14801 
        3.28304         60.9249         4.09848 
        3.29877         60.5052         4.04981 
        3.31446         59.5974         4.00204 
        3.33014         59.1712         3.95509 
        3.34585         58.5159         3.90882 
        3.36158         58.0914         3.86321 
        3.37727         57.5673         3.81848 
        3.39294         56.8214          3.7745 
        3.40867          56.402         3.73105 
        3.42439         55.7106         3.68831 
        3.44008         55.1738         3.64632 
        3.45578         54.6171         3.60495 
        3.47153         54.0993         3.56414 
        3.48724         53.6591         3.52403 
        3.50292          53.157         3.48463 
        3.51859          52.611         3.44585 
        3.53431         52.0202         3.40753 
        3.55007         51.3764         3.36971 
        3.56577         50.8888         3.33261 
        3.58146         50.4305         3.29609 
        3.59719         50.0584         3.26003 
        3.61292         49.4053         3.22452 
        3.62859         49.0582         3.18967 
        3.64429         48.5819         3.15527 
        3.66003         48.1731         3.12127 
        3.67578         47.5835         3.08779 
        3.69146         47.2377         3.05492 
        3.70712         46.8108         3.02259 
        3.72284         46.3227         2.99061 
        3.73853         45.9191         2.95915 
        3.75422          45.488         2.92813 
        3.76993         45.0921         2.89752 
        3.78564         44.6644         2.86737 
        3.80137         44.2411          2.8376 
        3.81707         43.7431         2.80831 
        3.83279         43.3834         2.77941 
        3.84853         43.0157         2.75087 
        3.86424         42.5794         2.72278 
        3.87992         42.1245         2.69513 
        3.89561          41.878         2.66786 
        3.91134         41.3915         2.64092 
        3.92704         41.0612         2.61437 
        3.94273         40.7106         2.58822 
        3.95845         40.2265         2.56238 
        3.97418           39.93         2.53688 
        3.98988         39.6081         2.51177 
        4.00554         39.1268         2.48707 
        4.02125         38.8647         2.46262 
        4.03698         38.4735         2.43847 
        4.05268         38.1804         2.41469 
        4.06839         37.8524         2.39122 
         4.0841         37.5306         2.36806 
        4.09983         37.1676         2.34518 
        4.11555            36.9         2.32261 
        4.13124         36.3779         2.30039 
        4.14693         36.1876         2.27845 
        4.16266         35.8766         2.25675 
        4.17839         35.4609         2.23534 
        4.19408         35.2128         2.21425 
        4.20977         34.8994         2.19343 
        4.22551         34.6162         2.17283 
        4.24123          34.318         2.15251 
        4.25691         33.9643         2.13251 
        4.27259         33.7026         2.11276 
        4.28831         33.4952         2.09321 
        4.30404         33.2019          2.0739 
        4.31974         32.8674         2.05487 
        4.33543         32.5266         2.03609 
        4.35116         32.3091         2.01749 
        4.36688         31.9755         1.99914 
        4.38255         31.7959         1.98109 
        4.39825         31.5609         1.96321 
        4.41398         31.2712         1.94553 
         4.4297         30.9361         1.92808 
        4.44541         30.7674         1.91084 
        4.46111         30.3822         1.89383 
        4.47683         30.2856         1.87702 
        4.49251         30.0061         1.86044 
        4.50819         29.7034         1.84407 
         4.5239         29.3933         1.82787 
        4.53962         29.1727         1.81185 
        4.55535         28.9825         1.79601 
        4.57106         28.6341         1.78038 
        4.58678         28.4987         1.76493 
         4.6025          28.257         1.74967 
        4.61821         27.9907         1.73458 
        4.63391         27.8164          1.7197 
         4.6496         27.5417         1.70499 
        4.66532         27.3258         1.69043 
        4.68103         27.0519         1.67605 
        4.69673         26.9269         1.66186 
        4.71241         26.6505         1.64783 
        4.72811         26.4718         1.63395 
        4.74384         26.3352         1.62021 
        4.75955         26.1328         1.60665 
        4.77525          25.848         1.59325 
        4.79096         25.6292         1.57999 
        4.80669         25.4213         1.56687 
         4.8224         25.2647         1.55392 
        4.83809         24.9959         1.54112 
        4.85379         24.8542         1.52847 
         4.8695         24.6327         1.51594 
        4.88521         24.4368         1.50356 
        4.90093         24.2522         1.49132 
        4.91663         24.0949         1.47922 
        4.93234         23.8505         1.46724 
        4.94807         23.6255         1.45539 
        4.96377         23.4755          1.4437 
        4.97943         23.3514         1.43215 
        4.99514         23.1738          1.4207 
        5.01086         22.9755         1.40937 
        5.02654         22.7799         1.39819 
        5.04227         22.5632          1.3871 
          5.058          22.346         1.37612 
        5.07371         22.2556         1.36529 
        5.08942         22.0513         1.35457 
        5.10513         21.9177         1.34396 
        5.12084         21.7158         1.33346 
        5.13656         21.5823         1.32307 
        5.15225         21.4561         1.31282 
        5.16796          21.261         1.30265 
        5.18369         21.0807         1.29259 
         5.1994         20.8957         1.28265 
        5.21509         20.7742         1.27282 
        5.23079           20.63         1.26308 
        5.24649         20.4882         1.25345 
        5.26217         20.2872         1.24393 
        5.27788          20.181          1.2345 
        5.29359         19.9965         1.22516 
        5.30933         19.8202          1.2159 
        5.32504         19.7023         1.20676 
        5.34073         19.5518         1.19772 
        5.35646         19.3606         1.18875 
        5.37218         19.2768         1.17987 
        5.38789         19.1376          1.1711 
        5.40357         18.9694         1.16243 
        5.41929         18.8543         1.15383 
        5.43502         18.7144         1.14531 
         5.4507         18.5722          1.1369 
        5.46639         18.4348         1.12857 
        5.48212         18.3052          1.1203 
        5.49786         18.1463         1.11211 
        5.51353         18.0242         1.10404 
        5.52921         17.8825         1.09605 
        5.54495         17.7716         1.08811 
        5.56066         17.6124         1.08025 
        5.57637         17.4834         1.07248 
        5.59207         17.3556         1.06478 
        5.60778         17.3142         1.05716 
        5.62346          17.101         1.04963 
        5.63916         16.9959         1.04216 
        5.65487           16.85         1.03476 
         5.6706         16.7746         1.02742 
        5.68633         16.6617         1.02016 
        5.70203         16.5405         1.01297 
        5.71773         16.4226         1.00586 
        5.73344         16.3108        0.998812 
        5.74916          16.179        0.991825 
        5.76486         16.0667        0.984914 
        5.78054         15.9283        0.978079 
        5.79626         15.8908        0.971291 
          5.812         15.7405         0.96456 
         5.8277         15.5926        0.957912 
        5.84339         15.5002        0.951327 
        5.85911         15.3984        0.944791 
        5.87484         15.2828        0.938317 
        5.89053         15.1735        0.931917 
        5.90623         15.0791        0.925574 
        5.92195         14.9407        0.919279 
        5.93767         14.8598        0.913045 
        5.95336         14.7604         0.90688 
        5.96905         14.6611        0.900774 
        5.98476         14.5665        0.894716 
        6.00048         14.4484        0.888711 
        6.01617         14.3681        0.882769 
        6.03185         14.2645        0.876889 
        6.04756         14.1714        0.871048 
        6.06331         14.0768        0.865248 
        6.07903         13.9324        0.859513 
        6.09473         13.8504        0.853835 
        6.11044          13.788        0.848203 
        6.12616         13.6967        0.842623 
        6.14186         13.6023        0.837099 
        6.15755         13.4929        0.831624 
        6.17326         13.4082        0.826195 
        6.18898         13.3022        0.820811 
        6.20467         13.2035        0.815484 
        6.22036         13.1255        0.810206 
         6.2361         13.0211        0.804959 
         6.2518         12.9416        0.799768 
        6.26748         12.8817        0.794634 
        6.28319         12.7799        0.789531 
        6.29893         12.7006        0.784468 
        6.31463          12.622        0.779458 
        6.33033         12.5257        0.774493 
        6.34604         12.4363        0.769568 
        6.36177          12.372        0.764681 
        6.37747         12.2822        0.759846 
