# k  (h/Mpc)    Pcb(k)  (Mpc/h)^3    Pcb_linear(k) (Mpc/h)^3   ShotnoiseSubtracted = true
      0.0200456         291.806         295.774 
      0.0350414         214.846         215.017 
      0.0492313         156.878         156.228 
      0.0637834         130.433         129.871 
      0.0800726         103.384         103.075 
       0.096163         74.8684         74.7899 
       0.111083         59.5603         59.6544 
       0.126058         52.9306         52.8659 
       0.142273         44.9204         44.7891 
       0.158546         35.6293          35.374 
        0.17375         29.7718         29.8025 
       0.188953         27.0312         26.9855 
       0.204907         24.2524         23.8767 
       0.220756         20.3784         20.2011 
        0.23588         17.7278         17.5732 
         0.2514         16.0023         15.9651 
       0.267535          14.499         14.4457 
       0.283568         12.8338         12.7391 
       0.299022          11.482         11.3499 
       0.314451          10.357         10.3731 
       0.330372         9.55482         9.51611 
       0.346141         8.67989         8.63732 
       0.361624         7.92406         7.85014 
       0.377134         7.32794         7.22337 
       0.392932         6.62908         6.68364 
       0.408854         6.23898         6.16103 
       0.424564         5.72058         5.67871 
       0.440253         5.30609         5.26482 
       0.455999         4.97378         4.90493 
       0.471626         4.65597         4.57419 
        0.48727         4.31465         4.26481 
       0.502856         4.01966         3.98687 
       0.518488         3.81876         3.73888 
       0.534347         3.61037         3.50833 
       0.550082         3.33029         3.29576 
       0.565732         3.09081         3.10128 
       0.581496         2.97334         2.92317 
       0.597222         2.81893         2.75982 
       0.612804         2.64561         2.60961 
       0.628434         2.53151          2.4696 
       0.644267         2.38547         2.33871 
       0.660051         2.25279         2.21807 
       0.675724         2.14697         2.10668 
       0.691403         2.05357         2.00284 
       0.707174         1.94319         1.90542 
       0.722871         1.84394         1.81486 
        0.73838         1.77343         1.73116 
       0.754018         1.70561          1.6521 
       0.769845         1.61872         1.57713 
        0.78569          1.5476         1.50674 
       0.801365          1.4763         1.44135 
       0.817031         1.41871          1.3799 
       0.832809         1.35851         1.32166 
       0.848511         1.29496         1.26705 
       0.864097         1.23727         1.21593 
       0.879701          1.1887         1.16759 
       0.895507         1.14984         1.12132 
       0.911279         1.11079         1.07766 
        0.92691          1.0649          1.0367 
       0.942635         1.02367        0.997654 
       0.958396        0.982027        0.960544 
       0.974128        0.947002        0.925398 
       0.989692        0.918403        0.892365 
        1.00528        0.884626        0.860903 
        1.02113        0.846305         0.83047 
        1.03692        0.825061        0.801628 
        1.05264        0.795219        0.774293 
        1.06832         0.77051         0.74828 
        1.08405        0.736905        0.723399 
        1.09979        0.714623        0.699638 
        1.11537        0.697176        0.677185 
        1.13105        0.674979        0.655586 
        1.14679        0.657152         0.63485 
        1.16256        0.628808        0.614974 
        1.17828        0.610868        0.596018 
        1.19395        0.590986        0.577927 
         1.2097        0.569698        0.560498 
        1.22537        0.558776        0.543874 
          1.241        0.541411        0.527977 
        1.25666         0.53067        0.512678 
        1.27241        0.509308        0.497916 
        1.28819        0.494608        0.483712 
        1.30392        0.482642        0.470105 
        1.31957        0.469727        0.457084 
        1.33529        0.455045         0.44451 
        1.35108        0.442176        0.432361 
        1.36674         0.42638        0.420754 
         1.3824        0.420923        0.409585 
        1.39811        0.407345        0.398785 
        1.41389        0.397615        0.388335 
        1.42964        0.388813        0.378278 
        1.44531        0.375089        0.368627 
        1.46101        0.368183        0.359293 
        1.47667        0.354594        0.350311 
        1.49229        0.349234        0.341661 
        1.50793        0.338358        0.333295 
        1.52367        0.331545        0.325155 
        1.53953        0.322878        0.317233 
        1.55526        0.315633        0.309639 
        1.57092        0.305986        0.302325 
        1.58662        0.300329        0.295231 
        1.60235        0.294008        0.288351 
        1.61809        0.284063        0.281688 
        1.63369        0.281632        0.275295 
        1.64941        0.273265        0.269055 
        1.66519        0.266351        0.262986 
        1.68085        0.259363        0.257148 
        1.69652        0.253814        0.251486 
        1.71228        0.249546        0.245963 
        1.72806          0.2418        0.240601 
        1.74368         0.23876        0.235454 
        1.75933        0.232553        0.230447 
        1.77505        0.227271        0.225562 
        1.79081        0.223329        0.220811 
         1.8065        0.216374        0.216217 
        1.82218        0.213158        0.211758 
        1.83797        0.207957        0.207394 
        1.85367        0.204642        0.203178 
        1.86928         0.20036        0.199105 
        1.88497        0.196289        0.195121 
        1.90073        0.191634        0.191232 
        1.91647        0.187986        0.187452 
        1.93218        0.183597        0.183783 
        1.94787        0.179994        0.180217 
        1.96363        0.176672        0.176732 
        1.97935        0.172257        0.173347 
        1.99499        0.169606        0.170069 
        2.01064         0.16643        0.166872 
         2.0264        0.162474        0.163736 
        2.04216        0.160577        0.160683 
        2.05781        0.156932        0.157728 
        2.07353        0.152927        0.154836 
        2.08928         0.15015         0.15201 
        2.10499        0.147445        0.149263 
        2.12065        0.145495        0.146592 
        2.13633        0.142087        0.143984 
        2.15211        0.140255        0.141422 
        2.16785        0.137046         0.13893 
        2.18349        0.133679        0.136514 
        2.19916        0.132654        0.134151 
        2.21489        0.129802        0.131835 
        2.23063         0.12772        0.129573 
         2.2463        0.125033        0.127374 
        2.26194         0.12252        0.125231 
        2.27765        0.120374        0.123127 
        2.29341        0.118681        0.121066 
        2.30914        0.116165        0.119057 
        2.32486        0.114114        0.117094 
        2.34061        0.112361        0.115172 
        2.35635        0.110179        0.113295 
        2.37203         0.10831        0.111466 
        2.38768        0.106481        0.109682 
        2.40339        0.104751         0.10793 
        2.41914        0.103338        0.106212 
        2.43483        0.101181        0.104538 
         2.4505       0.0990571        0.102903 
        2.46622       0.0975221        0.101297 
        2.48195       0.0958085       0.0997254 
        2.49759       0.0949906       0.0981955 
        2.51328       0.0933984       0.0966937 
        2.52906       0.0915841       0.0952139 
        2.54479       0.0898432       0.0937706 
        2.56049       0.0884263         0.09236 
        2.57618       0.0870201       0.0909796 
        2.59189       0.0858158       0.0896254 
        2.60758       0.0847735       0.0883009 
        2.62325       0.0830494       0.0870048 
        2.63898       0.0818458       0.0857303 
        2.65468       0.0801678       0.0844839 
        2.67044       0.0794297        0.083257 
        2.68618       0.0781298       0.0820573 
        2.70184       0.0766767        0.080886 
        2.71755       0.0752806       0.0797347 
        2.73329       0.0744825        0.078604 
        2.74897       0.0735788        0.077499 
        2.76462       0.0721001       0.0764176 
        2.78034       0.0711681       0.0753525 
        2.79607       0.0698669       0.0743065 
        2.81179       0.0692133       0.0732816 
        2.82749       0.0679327       0.0722771 
        2.84321       0.0669505       0.0712904 
        2.85893       0.0661464       0.0703224 
        2.87462       0.0653921        0.069374 
        2.89033       0.0642437       0.0684423 
        2.90605       0.0630174       0.0675268 
        2.92176       0.0624112       0.0666286 
        2.93747       0.0613946       0.0657472 
        2.95318       0.0604361       0.0648815 
        2.96891       0.0596717       0.0640311 
        2.98456       0.0589611       0.0631996 
        3.00023       0.0579957       0.0623817 
        3.01596        0.057227       0.0615757 
        3.03164       0.0567067       0.0607863 
        3.04738       0.0556678       0.0600084 
         3.0631       0.0548263       0.0592444 
        3.07883       0.0541127       0.0584936 
        3.09456       0.0535277        0.057756 
        3.11026       0.0526664       0.0570323 
        3.12596       0.0521516        0.056321 
        3.14163       0.0513025       0.0556235 
        3.15734       0.0507795       0.0549362 
        3.17308       0.0501377       0.0542588 
        3.18879       0.0493878       0.0535947 
        3.20447        0.048828       0.0529427 
         3.2202         0.04831       0.0522995 
         3.2359       0.0476685       0.0516681 
        3.25157       0.0469271       0.0510487 
        3.26729       0.0463172       0.0504376 
        3.28304       0.0459454       0.0498352 
        3.29877        0.045283       0.0492435 
        3.31446       0.0446964       0.0486627 
        3.33014       0.0443415       0.0480917 
        3.34585       0.0436979       0.0475291 
        3.36158       0.0431129       0.0469746 
        3.37727       0.0426874       0.0464306 
        3.39294        0.042233       0.0458958 
        3.40867         0.04166       0.0453675 
        3.42439       0.0411979       0.0448478 
        3.44008       0.0406626       0.0443373 
        3.45578       0.0403977       0.0438343 
        3.47153       0.0398008        0.043338 
        3.48724       0.0395259       0.0428502 
        3.50292       0.0389328       0.0423711 
        3.51859       0.0384378       0.0418996 
        3.53431       0.0381882       0.0414338 
        3.55007       0.0377447       0.0409739 
        3.56577       0.0373825       0.0405228 
        3.58146       0.0369645       0.0400786 
        3.59719       0.0366461       0.0396401 
        3.61292       0.0361717       0.0392084 
        3.62859       0.0357582       0.0387846 
        3.64429       0.0355093       0.0383664 
        3.66003       0.0350399        0.037953 
        3.67578       0.0347218       0.0375458 
        3.69146       0.0343902       0.0371462 
        3.70712       0.0341996       0.0367531 
        3.72284       0.0338321       0.0363642 
        3.73853       0.0334113       0.0359816 
        3.75422       0.0332683       0.0356044 
        3.76993        0.032742       0.0352323 
        3.78564       0.0325439       0.0348656 
        3.80137       0.0321545       0.0345036 
        3.81707       0.0318453       0.0341475 
        3.83279       0.0316856       0.0337961 
        3.84853       0.0313841        0.033449 
        3.86424       0.0310813       0.0331075 
        3.87992       0.0307855       0.0327713 
        3.89561        0.030522       0.0324398 
        3.91134       0.0302677       0.0321121 
        3.92704       0.0299663       0.0317894 
        3.94273       0.0296848       0.0314714 
        3.95845       0.0294429       0.0311571 
        3.97418       0.0291906       0.0308471 
        3.98988       0.0288833       0.0305418 
        4.00554       0.0285958       0.0302413 
        4.02125       0.0282115       0.0299441 
        4.03698       0.0277966       0.0296504 
        4.05268       0.0275011       0.0293613 
        4.06839       0.0270664       0.0290759 
         4.0841        0.026667       0.0287943 
        4.09983       0.0262469       0.0285161 
        4.11555       0.0259625       0.0282416 
        4.13124       0.0255978       0.0279715 
        4.14693       0.0251564       0.0277047 
        4.16266       0.0248734       0.0274408 
        4.17839       0.0246189       0.0271805 
        4.19408       0.0242709       0.0269241 
        4.20977       0.0239656       0.0266709 
        4.22551       0.0236067       0.0264204 
        4.24123       0.0233626       0.0261734 
        4.25691       0.0230898       0.0259302 
        4.27259       0.0228017         0.02569 
        4.28831       0.0226366       0.0254523 
        4.30404       0.0223787       0.0252174 
        4.31974       0.0221821        0.024986 
        4.33543       0.0219923       0.0247577 
        4.35116        0.021766       0.0245316 
        4.36688       0.0215964       0.0243085 
        4.38255       0.0213521       0.0240889 
        4.39825       0.0212567       0.0238716 
        4.41398       0.0211592       0.0236565 
         4.4297       0.0210088       0.0234444 
        4.44541       0.0208159       0.0232348 
        4.46111       0.0206852        0.023028 
        4.47683       0.0206385       0.0228235 
        4.49251        0.020453        0.022622 
        4.50819       0.0203911       0.0224229 
         4.5239       0.0202663       0.0222259 
        4.53962       0.0202593       0.0220311 
        4.55535       0.0202064       0.0218384 
        4.57106       0.0201774       0.0216484 
        4.58678       0.0200338       0.0214606 
         4.6025       0.0200581        0.021275 
        4.61821       0.0200538       0.0210916 
        4.63391       0.0200262       0.0209106 
         4.6496       0.0199871       0.0207317 
        4.66532       0.0200251       0.0205548 
        4.68103       0.0200355       0.0203799 
        4.69673       0.0200356       0.0202072 
        4.71241       0.0201304       0.0200368 
        4.72811       0.0200709        0.019868 
        4.74384       0.0201519       0.0197009 
        4.75955       0.0202342        0.019536 
        4.77525       0.0202992       0.0193731 
        4.79096       0.0203377       0.0192118 
        4.80669       0.0204449       0.0190523 
         4.8224        0.020592       0.0188948 
        4.83809       0.0207336       0.0187392 
        4.85379       0.0208272       0.0185853 
         4.8695       0.0209393        0.018433 
        4.88521       0.0210455       0.0182825 
        4.90093        0.021285       0.0181336 
        4.91663       0.0214405       0.0179865 
        4.93234       0.0215394       0.0178409 
        4.94807       0.0216362       0.0176968 
        4.96377       0.0219639       0.0175545 
        4.97943        0.022178       0.0174142 
        4.99514       0.0223028        0.017275 
        5.01086       0.0225673       0.0171372 
        5.02654       0.0227476       0.0170012 
        5.04227       0.0230989       0.0168664 
          5.058       0.0232894       0.0167329 
        5.07371       0.0234284       0.0166011 
        5.08942       0.0239212       0.0164708 
        5.10513        0.024266       0.0163418 
        5.12084       0.0244004       0.0162141 
        5.13656       0.0247952       0.0160879 
        5.15225       0.0251454       0.0159631 
        5.16796       0.0254882       0.0158395 
        5.18369       0.0257241       0.0157171 
         5.1994       0.0261817       0.0155963 
        5.21509       0.0265462       0.0154768 
        5.23079       0.0269066       0.0153584 
        5.24649       0.0273192       0.0152413 
        5.26217       0.0277729       0.0151255 
        5.27788       0.0282033       0.0150108 
        5.29359       0.0287523       0.0148973 
        5.30933       0.0290366       0.0147847 
        5.32504       0.0295728       0.0146735 
        5.34073       0.0301511       0.0145636 
        5.35646       0.0305895       0.0144546 
        5.37218       0.0311333       0.0143466 
        5.38789       0.0318897         0.01424 
        5.40357       0.0323308       0.0141345 
        5.41929       0.0329203       0.0140299 
        5.43502       0.0334457       0.0139263 
         5.4507        0.034077       0.0138241 
        5.46639       0.0347959       0.0137228 
        5.48212       0.0354301       0.0136223 
        5.49786       0.0361531       0.0135227 
        5.51353       0.0369875       0.0134246 
        5.52921       0.0376229       0.0133273 
        5.54495         0.03852       0.0132308 
        5.56066       0.0392126       0.0131353 
        5.57637       0.0398903       0.0130407 
        5.59207       0.0408231       0.0129472 
        5.60778       0.0417317       0.0128545 
        5.62346       0.0426874       0.0127629 
        5.63916       0.0434252       0.0126721 
        5.65487        0.044196       0.0125821 
         5.6706       0.0451702       0.0124929 
        5.68633       0.0464581       0.0124045 
        5.70203       0.0471802       0.0123172 
        5.71773       0.0483654       0.0122307 
        5.73344       0.0493203        0.012145 
        5.74916       0.0507542         0.01206 
        5.76486       0.0516849        0.011976 
        5.78054       0.0528118       0.0118929 
        5.79626       0.0539406       0.0118104 
          5.812       0.0553171       0.0117285 
         5.8277       0.0564522       0.0116477 
        5.84339       0.0576334       0.0115676 
        5.85911       0.0590557       0.0114881 
        5.87484       0.0604726       0.0114094 
        5.89053       0.0618934       0.0113316 
        5.90623       0.0636673       0.0112545 
        5.92195       0.0649843       0.0111779 
        5.93767       0.0665912       0.0111021 
        5.95336       0.0679888       0.0110272 
        5.96905       0.0701086       0.0109529 
        5.98476       0.0713485       0.0108792 
        6.00048       0.0728067       0.0108062 
        6.01617       0.0749102        0.010734 
        6.03185       0.0766391       0.0106625 
        6.04756       0.0787494       0.0105915 
        6.06331       0.0805922       0.0105209 
        6.07903       0.0823564       0.0104512 
        6.09473       0.0846422       0.0103822 
        6.11044       0.0870976       0.0103137 
        6.12616       0.0891396       0.0102458 
        6.14186         0.09159       0.0101787 
        6.15755       0.0936823       0.0101121 
        6.17326       0.0958307       0.0100461 
        6.18898       0.0986378      0.00998061 
        6.20467        0.101047      0.00991584 
        6.22036        0.103224      0.00985166 
         6.2361        0.105832      0.00978786 
         6.2518        0.108719      0.00972474 
        6.26748         0.11114      0.00966231 
        6.28319         0.11516      0.00960026 
        6.29893        0.117623       0.0095387 
        6.31463        0.120664      0.00947778 
        6.33033        0.123316      0.00941741 
        6.34604        0.126961      0.00935753 
        6.36177        0.129351       0.0092981 
        6.37747        0.134155      0.00923931 
