# k  (h/Mpc)    Pcb(k)  (Mpc/h)^3    Pcb_linear(k) (Mpc/h)^3   ShotnoiseSubtracted = true
      0.0200456         10903.2         11064.3 
      0.0350414         8251.67         8043.34 
      0.0492313         5794.14         5844.14 
      0.0637834         4690.81         4858.18 
      0.0800726         3696.46         3855.82 
       0.096163          2892.2         2797.73 
       0.111083         2348.99         2231.54 
       0.126058         1960.61          1977.6 
       0.142273         1688.37         1675.46 
       0.158546         1385.57         1323.26 
        0.17375         1210.12         1114.85 
       0.188953         1118.56         1009.47 
       0.204907         954.665         893.176 
       0.220756         855.013         755.681 
        0.23588         759.021         657.377 
         0.2514         679.624          597.22 
       0.267535         657.942         540.382 
       0.283568         574.374         476.544 
       0.299022         546.568         424.576 
       0.314451         549.227         388.034 
       0.330372         472.081         355.977 
       0.346141         437.482         323.104 
       0.361624         417.164         293.657 
       0.377134         388.659         270.211 
       0.392932         377.488         250.021 
       0.408854         358.531         230.471 
       0.424564         345.747         212.428 
       0.440253         312.314         196.946 
       0.455999         298.334         183.483 
       0.471626         297.756         171.111 
        0.48727         283.123         159.537 
       0.502856         259.187          149.14 
       0.518488         260.013         139.863 
       0.534347         241.459         131.239 
       0.550082         235.175         123.287 
       0.565732         233.334         116.012 
       0.581496         219.363         109.349 
       0.597222         213.932         103.239 
       0.612804         207.746         97.6199 
       0.628434         200.614         92.3826 
       0.644267         191.412         87.4862 
       0.660051         187.488         82.9734 
       0.675724         185.471         78.8064 
       0.691403         180.511          74.922 
       0.707174         174.306         71.2776 
       0.722871         171.563         67.8901 
        0.73838         169.715         64.7589 
       0.754018         159.905         61.8016 
       0.769845         159.765         58.9969 
        0.78569         155.544         56.3638 
       0.801365             151         53.9177 
       0.817031         147.101          51.619 
       0.832809         144.637         49.4403 
       0.848511         141.169         47.3978 
       0.864097         138.517         45.4852 
       0.879701         136.922         43.6769 
       0.895507         133.047          41.946 
       0.911279         129.713         40.3129 
        0.92691         127.257         38.7807 
       0.942635         124.943         37.3201 
       0.958396         123.319         35.9319 
       0.974128         120.671         34.6172 
       0.989692          117.76         33.3815 
        1.00528          116.39         32.2045 
        1.02113         113.343         31.0661 
        1.03692         112.759         29.9872 
        1.05264         111.321         28.9646 
        1.06832         108.126         27.9916 
        1.08405         106.977         27.0608 
        1.09979         106.177          26.172 
        1.11537         103.344          25.332 
        1.13105         102.264         24.5241 
        1.14679         100.465         23.7484 
        1.16256         98.4918         23.0049 
        1.17828         97.5985         22.2957 
        1.19395          95.033          21.619 
         1.2097         94.7493          20.967 
        1.22537         92.5752         20.3452 
          1.241         92.2359         19.7505 
        1.25666         89.1975         19.1782 
        1.27241         88.3479          18.626 
        1.28819         87.8543         18.0946 
        1.30392         86.1642         17.5856 
        1.31957         85.1471         17.0985 
        1.33529         84.0004         16.6282 
        1.35108         83.5069         16.1737 
        1.36674         81.9412         15.7395 
         1.3824         81.4397         15.3217 
        1.39811         79.3484         14.9177 
        1.41389         78.3588         14.5268 
        1.42964         77.2523         14.1506 
        1.44531         76.6672         13.7895 
        1.46101         75.8585         13.4404 
        1.47667         74.8064         13.1044 
        1.49229         73.9743         12.7808 
        1.50793         72.9002         12.4678 
        1.52367         72.3579         12.1633 
        1.53953         71.2159          11.867 
        1.55526         69.9966         11.5829 
        1.57092         69.8843         11.3093 
        1.58662         68.8464          11.044 
        1.60235          67.865         10.7866 
        1.61809          66.801         10.5373 
        1.63369         66.0102         10.2982 
        1.64941         65.8623         10.0648 
        1.66519         64.2223         9.83774 
        1.68085          63.786         9.61936 
        1.69652         62.5377         9.40755 
        1.71228         62.1117         9.20093 
        1.72806         61.6529         9.00037 
        1.74368         60.6816         8.80781 
        1.75933          60.173         8.62051 
        1.77505         59.5657         8.43779 
        1.79081         58.6293         8.26005 
         1.8065         58.3705         8.08821 
        1.82218         56.7364         7.92141 
        1.83797         56.4431         7.75818 
        1.85367         55.9298         7.60046 
        1.86928         55.4248         7.44808 
        1.88497         54.5516         7.29906 
        1.90073         53.8072         7.15357 
        1.91647         53.5412         7.01218 
        1.93218         53.0628         6.87491 
        1.94787         52.2277         6.74153 
        1.96363         51.4726         6.61117 
        1.97935         50.9989         6.48452 
        1.99499         50.4564         6.36192 
        2.01064         49.8697         6.24231 
         2.0264         49.5642         6.12503 
        2.04216         48.7457         6.01082 
        2.05781          48.191         5.90025 
        2.07353         47.4584         5.79207 
        2.08928         47.2384         5.68638 
        2.10499         46.7961          5.5836 
        2.12065         46.2281         5.48368 
        2.13633         45.8864         5.38612 
        2.15211         45.1915          5.2903 
        2.16785         44.4631         5.19709 
        2.18349         44.0308         5.10671 
        2.19916         43.6112         5.01829 
        2.21489         43.3895         4.93167 
        2.23063         42.6769         4.84704 
         2.2463         42.3596         4.76479 
        2.26194         41.9279         4.68464 
        2.27765         41.3606         4.60593 
        2.29341         40.7777         4.52883 
        2.30914         40.4374         4.45365 
        2.32486         39.8666         4.38022 
        2.34061         39.5996         4.30833 
        2.35635         39.1065         4.23811 
        2.37203         38.7559         4.16971 
        2.38768         38.4937         4.10296 
        2.40339         38.1114         4.03742 
        2.41914         37.7212         3.97317 
        2.43483         37.0695         3.91055 
         2.4505         36.9146         3.84938 
        2.46622          36.477          3.7893 
        2.48195         36.1421         3.73051 
        2.49759         35.6618         3.67328 
        2.51328         35.3149          3.6171 
        2.52906          35.005         3.56175 
        2.54479         34.6589         3.50776 
        2.56049         34.3292         3.45499 
        2.57618         33.9652         3.40335 
        2.59189         33.5512         3.35269 
        2.60758         33.1556         3.30315 
        2.62325          33.073         3.25466 
        2.63898         32.6472         3.20698 
        2.65468         32.2153         3.16036 
        2.67044          32.004         3.11446 
        2.68618         31.7224         3.06959 
        2.70184          31.322         3.02577 
        2.71755         31.0436          2.9827 
        2.73329         30.6818         2.94041 
        2.74897         30.3574         2.89907 
        2.76462         30.0824         2.85862 
        2.78034         29.8301         2.81877 
        2.79607         29.4793         2.77965 
        2.81179         29.2699         2.74131 
        2.82749         28.9296         2.70373 
        2.84321         28.6458         2.66682 
        2.85893          28.394         2.63061 
        2.87462         28.1661         2.59513 
        2.89033         27.8385         2.56028 
        2.90605         27.6364         2.52603 
        2.92176         27.4077         2.49243 
        2.93747         27.0668         2.45946 
        2.95318          26.896         2.42708 
        2.96891         26.6015         2.39526 
        2.98456         26.3209         2.36416 
        3.00023         25.9959         2.33357 
        3.01596         25.7452         2.30342 
        3.03164         25.5115         2.27389 
        3.04738         25.3571         2.24479 
         3.0631         25.1084         2.21621 
        3.07883         24.7726         2.18812 
        3.09456         24.5393         2.16053 
        3.11026         24.2809         2.13345 
        3.12596         24.0312         2.10685 
        3.14163         23.8538         2.08076 
        3.15734         23.6849         2.05504 
        3.17308         23.3777          2.0297 
        3.18879          23.209         2.00486 
        3.20447         22.9885         1.98047 
         3.2202         22.7395         1.95641 
         3.2359         22.5424         1.93279 
        3.25157         22.3404         1.90962 
        3.26729         22.2065         1.88676 
        3.28304         21.9362         1.86423 
        3.29877         21.7214         1.84209 
        3.31446         21.5593         1.82037 
        3.33014         21.3169         1.79901 
        3.34585         21.1985         1.77796 
        3.36158         20.9063         1.75722 
        3.37727         20.7618         1.73687 
        3.39294         20.6217         1.71686 
        3.40867         20.3971          1.6971 
        3.42439         20.2024         1.67766 
        3.44008         19.9952         1.65856 
        3.45578         19.8496         1.63975 
        3.47153         19.6401         1.62118 
        3.48724         19.5456         1.60294 
        3.50292         19.2927         1.58501 
        3.51859         19.1572         1.56737 
        3.53431         19.0069         1.54995 
        3.55007         18.7701         1.53274 
        3.56577         18.6539         1.51587 
        3.58146         18.4349         1.49926 
        3.59719         18.3133         1.48285 
        3.61292         18.1428          1.4667 
        3.62859         17.9266         1.45085 
        3.64429         17.7478          1.4352 
        3.66003         17.6875         1.41974 
        3.67578         17.5523         1.40451 
        3.69146         17.3382         1.38956 
        3.70712         17.1749         1.37485 
        3.72284         17.0572         1.36031 
        3.73853         16.9322           1.346 
        3.75422         16.7315         1.33189 
        3.76993         16.5957         1.31797 
        3.78564         16.4593         1.30425 
        3.80137         16.3072         1.29071 
        3.81707          16.176         1.27738 
        3.83279         16.0223         1.26424 
        3.84853         15.8619         1.25126 
        3.86424         15.7237         1.23848 
        3.87992         15.6227         1.22591 
        3.89561         15.4874          1.2135 
        3.91134         15.3775         1.20125 
        3.92704         15.2594         1.18917 
        3.94273         15.1189         1.17728 
        3.95845         14.9393         1.16552 
        3.97418         14.8228         1.15392 
        3.98988         14.7082          1.1425 
        4.00554         14.6012         1.13126 
        4.02125          14.443         1.12015 
        4.03698         14.3323         1.10916 
        4.05268         14.2476         1.09834 
        4.06839         14.0843         1.08767 
         4.0841         13.9909         1.07713 
        4.09983         13.7972         1.06673 
        4.11555         13.7624         1.05646 
        4.13124         13.6487         1.04635 
        4.14693         13.4944         1.03637 
        4.16266         13.4267          1.0265 
        4.17839         13.2765         1.01676 
        4.19408         13.1747         1.00717 
        4.20977         13.0884        0.997703 
        4.22551         12.9467        0.988331 
        4.24123         12.8484         0.97909 
        4.25691         12.7413        0.969992 
        4.27259         12.6279        0.961006 
        4.28831         12.5697        0.952116 
        4.30404         12.4805         0.94333 
        4.31974         12.3581        0.934674 
        4.33543         12.2169        0.926132 
        4.35116         12.1413        0.917675 
        4.36688         12.0065        0.909328 
        4.38255         11.9418        0.901115 
        4.39825         11.8318        0.892986 
        4.41398           11.74        0.884941 
         4.4297         11.6356        0.877003 
        4.44541         11.5502        0.869164 
        4.46111         11.4554        0.861427 
        4.47683         11.3517        0.853779 
        4.49251         11.2544        0.846239 
        4.50819         11.1649        0.838792 
         4.5239         11.1004        0.831424 
        4.53962          11.003        0.824135 
        4.55535         10.8963        0.816929 
        4.57106         10.8674        0.809821 
        4.58678         10.7456        0.802795 
         4.6025         10.6686        0.795851 
        4.61821         10.5852         0.78899 
        4.63391         10.5076        0.782219 
         4.6496          10.417         0.77553 
        4.66532         10.3418        0.768909 
        4.68103         10.2367        0.762368 
        4.69673         10.1501         0.75591 
        4.71241          10.081        0.749532 
        4.72811          10.011        0.743218 
        4.74384          9.9276        0.736968 
        4.75955          9.8495          0.7308 
        4.77525         9.76493        0.724705 
        4.79096          9.7203        0.718673 
        4.80669         9.61101        0.712706 
         4.8224         9.55104        0.706814 
        4.83809         9.46901        0.700995 
        4.85379         9.40968        0.695237 
         4.8695         9.32949        0.689539 
        4.88521         9.23483        0.683908 
        4.90093         9.19361        0.678339 
        4.91663         9.10153        0.672837 
        4.93234         9.05113        0.667389 
        4.94807         8.96086        0.661999 
        4.96377         8.92917        0.656678 
        4.97943          8.8454        0.651427 
        4.99514         8.76965        0.646219 
        5.01086         8.73087        0.641065 
        5.02654         8.64095        0.635979 
        5.04227         8.57606        0.630934 
          5.058         8.51095        0.625942 
        5.07371         8.46153        0.621013 
        5.08942         8.39288        0.616136 
        5.10513         8.31797        0.611311 
        5.12084          8.2793        0.606536 
        5.13656         8.21633        0.601812 
        5.15225         8.13708        0.597147 
        5.16796         8.08627        0.592524 
        5.18369         8.02549        0.587945 
         5.1994         7.97404        0.583423 
        5.21509         7.92314        0.578952 
        5.23079         7.84169        0.574524 
        5.24649         7.79719        0.570145 
        5.26217         7.74711        0.565814 
        5.27788         7.68444        0.561522 
        5.29359         7.63232        0.557275 
        5.30933         7.56419        0.553064 
        5.32504         7.52732        0.548905 
        5.34073         7.47128        0.544792 
        5.35646         7.39821        0.540714 
        5.37218         7.36004        0.536677 
        5.38789         7.29452        0.532687 
        5.40357         7.25009        0.528742 
        5.41929         7.21204        0.524829 
        5.43502         7.15597        0.520954 
         5.4507          7.0976        0.517128 
        5.46639         7.05879         0.51334 
        5.48212         6.99935        0.509581 
        5.49786         6.96271        0.505855 
        5.51353         6.91996        0.502185 
        5.52921         6.83964        0.498547 
        5.54495         6.79513        0.494935 
        5.56066         6.76169        0.491362 
        5.57637         6.72505        0.487825 
        5.59207         6.66605        0.484326 
        5.60778         6.61728         0.48086 
        5.62346         6.57507        0.477433 
        5.63916         6.52981        0.474036 
        5.65487         6.48605         0.47067 
         5.6706         6.44698        0.467333 
        5.68633         6.39953        0.464027 
        5.70203         6.36105         0.46076 
        5.71773          6.3125        0.457525 
        5.73344         6.27029        0.454319 
        5.74916         6.21579         0.45114 
        5.76486         6.18561        0.447997 
        5.78054         6.13334        0.444888 
        5.79626         6.09475          0.4418 
          5.812         6.05355        0.438739 
         5.8277         6.01404        0.435715 
        5.84339         5.97651         0.43272 
        5.85911         5.93009        0.429747 
        5.87484         5.89743        0.426802 
        5.89053         5.85271        0.423891 
        5.90623         5.81693        0.421006 
        5.92195         5.77192        0.418142 
        5.93767         5.74685        0.415307 
        5.95336         5.69226        0.412503 
        5.96905         5.66581        0.409725 
        5.98476         5.62783        0.406969 
        6.00048         5.58668        0.404238 
        6.01617         5.54468        0.401535 
        6.03185         5.51976        0.398861 
        6.04756         5.48608        0.396204 
        6.06331         5.44006        0.393566 
        6.07903         5.39753        0.390957 
        6.09473         5.36992        0.388375 
        6.11044         5.32632        0.385813 
        6.12616         5.29942        0.383275 
        6.14186          5.2645        0.380762 
        6.15755         5.23494        0.378272 
        6.17326         5.20027        0.375802 
        6.18898         5.16134        0.373353 
        6.20467          5.1316         0.37093 
        6.22036          5.1013        0.368529 
         6.2361         5.06986        0.366143 
         6.2518         5.02922        0.363782 
        6.26748         5.00289        0.361446 
        6.28319         4.97348        0.359125 
        6.29893         4.94404        0.356822 
        6.31463         4.91739        0.354543 
        6.33033         4.87152        0.352285 
        6.34604          4.8521        0.350045 
        6.36177         4.81433        0.347822 
        6.37747         4.78444        0.345623 
