# k  (h/Mpc)    Pcb(k)  (Mpc/h)^3    Pcb_linear(k) (Mpc/h)^3   ShotnoiseSubtracted = true
      0.0200456         8866.91         9027.69 
      0.0350414          6394.9         6562.82 
      0.0492313         4740.17         4768.42 
      0.0637834         4038.18         3963.95 
      0.0800726         3197.47         3146.09 
       0.096163         2242.07         2282.76 
       0.111083         1780.99         1820.79 
       0.126058         1637.22         1613.59 
       0.142273         1412.43         1367.06 
       0.158546          1167.9         1079.69 
        0.17375         940.638         909.642 
       0.188953         901.489          823.66 
       0.204907         844.938         728.771 
       0.220756         713.847         616.585 
        0.23588         626.453         536.375 
         0.2514         549.405         487.291 
       0.267535         529.196         440.915 
       0.283568         479.405         388.828 
       0.299022         444.535         346.425 
       0.314451         413.142         316.609 
       0.330372         381.765         290.454 
       0.346141         344.458         263.631 
       0.361624         330.113         239.604 
       0.377134         308.335         220.474 
       0.392932         287.838             204 
       0.408854         275.897         188.049 
       0.424564         263.702         173.327 
       0.440253         251.584         160.694 
       0.455999         236.702          149.71 
       0.471626         219.432         139.615 
        0.48727         213.175         130.172 
       0.502856         205.247         121.688 
       0.518488         201.594         114.119 
       0.534347         190.945         107.082 
       0.550082         178.036         100.594 
       0.565732         173.611         94.6583 
       0.581496         165.538         89.2218 
       0.597222         160.757         84.2359 
       0.612804         154.059         79.6513 
       0.628434         149.955          75.378 
       0.644267         144.824         71.3829 
       0.660051         142.637         67.7007 
       0.675724         138.716         64.3007 
       0.691403         134.485         61.1313 
       0.707174         128.884         58.1577 
       0.722871         127.497         55.3937 
        0.73838         124.827         52.8389 
       0.754018         119.775          50.426 
       0.769845         117.204         48.1375 
        0.78569          114.63         45.9891 
       0.801365           111.4         43.9932 
       0.817031         107.468         42.1176 
       0.832809         106.105           40.34 
       0.848511          102.89         38.6734 
       0.864097         100.321         37.1129 
       0.879701         98.8558         35.6374 
       0.895507         96.5673         34.2251 
       0.911279         95.1012         32.8926 
        0.92691         93.1367         31.6425 
       0.942635         90.6364         30.4507 
       0.958396         90.2754          29.318 
       0.974128         87.8366         28.2453 
       0.989692         85.7064          27.237 
        1.00528         83.9737         26.2767 
        1.02113         82.9228         25.3479 
        1.03692         80.1446         24.4675 
        1.05264         80.0416         23.6332 
        1.06832         77.8355         22.8392 
        1.08405         76.8608         22.0798 
        1.09979         76.3262         21.3546 
        1.11537         73.5634         20.6692 
        1.13105         73.8697           20.01 
        1.14679         72.4525         19.3771 
        1.16256         71.3722         18.7704 
        1.17828         69.4688         18.1918 
        1.19395         68.9246         17.6397 
         1.2097           67.15         17.1077 
        1.22537         67.3174         16.6003 
          1.241         65.5789         16.1151 
        1.25666         64.3199         15.6481 
        1.27241         63.6911         15.1975 
        1.28819         62.5045          14.764 
        1.30392         61.6466         14.3487 
        1.31957         61.0104         13.9513 
        1.33529         59.9372         13.5675 
        1.35108          59.664         13.1966 
        1.36674         58.7857         12.8424 
         1.3824         57.4548         12.5015 
        1.39811         57.0966         12.1718 
        1.41389         56.1762         11.8529 
        1.42964         55.4973         11.5459 
        1.44531         54.5439         11.2513 
        1.46101         53.6733         10.9665 
        1.47667         53.5773         10.6923 
        1.49229         52.7775         10.4283 
        1.50793         52.0814         10.1729 
        1.52367         51.2399         9.92447 
        1.53953         50.8013         9.68267 
        1.55526         50.1162         9.45088 
        1.57092         49.7595         9.22766 
        1.58662          49.035         9.01113 
        1.60235         48.5044         8.80115 
        1.61809         47.7665         8.59776 
        1.63369         47.0075         8.40263 
        1.64941         46.4794         8.21217 
        1.66519         45.8144         8.02694 
        1.68085         45.4834         7.84875 
        1.69652         44.8008         7.67593 
        1.71228         44.5327         7.50734 
        1.72806         44.0415          7.3437 
        1.74368         43.3517         7.18658 
        1.75933         42.9241         7.03376 
        1.77505         42.5212         6.88467 
        1.79081         41.9286         6.73965 
         1.8065         41.5177         6.59943 
        1.82218         41.0333         6.46334 
        1.83797         40.4672         6.33015 
        1.85367         39.9084         6.20147 
        1.86928         39.6278         6.07713 
        1.88497         39.2837         5.95554 
        1.90073         38.8493         5.83683 
        1.91647         38.3926         5.72146 
        1.93218         37.9941         5.60947 
        1.94787         37.5843         5.50064 
        1.96363         37.1995         5.39427 
        1.97935         36.7122         5.29094 
        1.99499         36.3266          5.1909 
        2.01064         36.0482          5.0933 
         2.0264         35.4849         4.99761 
        2.04216         35.0873         4.90443 
        2.05781         34.6679         4.81421 
        2.07353         34.3699         4.72594 
        2.08928         34.2556          4.6397 
        2.10499         33.7614         4.55584 
        2.12065         33.3338         4.47431 
        2.13633         33.1908         4.39471 
        2.15211         32.6196         4.31653 
        2.16785          32.157         4.24047 
        2.18349         32.0315         4.16673 
        2.19916         31.7482         4.09459 
        2.21489          31.252         4.02391 
        2.23063         31.0277         3.95486 
         2.2463         30.6669         3.88774 
        2.26194         30.4023         3.82235 
        2.27765         30.0991         3.75813 
        2.29341         29.8125         3.69522 
        2.30914         29.5733         3.63388 
        2.32486         29.1215         3.57397 
        2.34061         28.9744         3.51531 
        2.35635         28.6758         3.45802 
        2.37203         28.4501          3.4022 
        2.38768         28.0489         3.34774 
        2.40339         27.9518         3.29427 
        2.41914         27.6234         3.24184 
        2.43483         27.2402         3.19074 
         2.4505          27.023         3.14083 
        2.46622         26.7962         3.09182 
        2.48195          26.522         3.04385 
        2.49759         26.2864         2.99715 
        2.51328         25.9546         2.95131 
        2.52906         25.8414         2.90615 
        2.54479         25.4652         2.86209 
        2.56049          25.188         2.81904 
        2.57618         24.9203         2.77691 
        2.59189         24.8272         2.73557 
        2.60758         24.5946         2.69515 
        2.62325         24.2292         2.65559 
        2.63898         24.1852         2.61668 
        2.65468         23.8126         2.57864 
        2.67044         23.6439         2.54119 
        2.68618         23.3329         2.50458 
        2.70184         23.1776         2.46883 
        2.71755          23.024         2.43369 
        2.73329         22.7458         2.39918 
        2.74897         22.4667         2.36545 
        2.76462         22.3771         2.33244 
        2.78034         22.1946         2.29993 
        2.79607         21.9415           2.268 
        2.81179         21.7539         2.23672 
        2.82749         21.5541         2.20606 
        2.84321          21.363         2.17595 
        2.85893         21.1055          2.1464 
        2.87462         20.9184         2.11745 
        2.89033           20.81         2.08901 
        2.90605         20.6436         2.06107 
        2.92176         20.3746         2.03366 
        2.93747         20.2764         2.00675 
        2.95318         19.9963         1.98033 
        2.96891         19.8707         1.95437 
        2.98456          19.644           1.929 
        3.00023         19.4668         1.90403 
        3.01596         19.3475         1.87943 
        3.03164         19.1543         1.85534 
        3.04738          18.954         1.83159 
         3.0631          18.797         1.80827 
        3.07883         18.6389         1.78536 
        3.09456         18.4685         1.76285 
        3.11026          18.319         1.74076 
        3.12596         18.1452         1.71905 
        3.14163         18.0303         1.69776 
        3.15734         17.8045         1.67678 
        3.17308         17.6706          1.6561 
        3.18879          17.506         1.63583 
        3.20447         17.3635         1.61593 
         3.2202         17.1919          1.5963 
         3.2359         17.0336         1.57703 
        3.25157         16.9487         1.55812 
        3.26729          16.836         1.53947 
        3.28304         16.6186         1.52109 
        3.29877         16.3917         1.50302 
        3.31446         16.3209          1.4853 
        3.33014         16.1789         1.46787 
        3.34585         15.9655          1.4507 
        3.36158         15.8977         1.43377 
        3.37727         15.7262         1.41717 
        3.39294         15.5426         1.40085 
        3.40867         15.4594         1.38472 
        3.42439         15.3015         1.36886 
        3.44008         15.1922         1.35327 
        3.45578         15.0554         1.33792 
        3.47153         14.9541         1.32277 
        3.48724         14.8084         1.30789 
        3.50292         14.6651         1.29326 
        3.51859          14.589         1.27887 
        3.53431         14.4587         1.26465 
        3.55007          14.328         1.25062 
        3.56577         14.2153         1.23685 
        3.58146         14.0947         1.22329 
        3.59719         13.9303         1.20991 
        3.61292         13.8443         1.19673 
        3.62859         13.6972          1.1838 
        3.64429         13.5937         1.17103 
        3.66003         13.4991         1.15841 
        3.67578          13.421         1.14598 
        3.69146         13.2764         1.13379 
        3.70712          13.142         1.12179 
        3.72284           13.07         1.10992 
        3.73853         12.9171         1.09824 
        3.75422         12.8188         1.08673 
        3.76993         12.7466         1.07537 
        3.78564         12.5877         1.06418 
        3.80137         12.5039         1.05313 
        3.81707         12.4058         1.04226 
        3.83279         12.2631         1.03153 
        3.84853         12.2158         1.02094 
        3.86424          12.029         1.01052 
        3.87992         11.9969         1.00026 
        3.89561         11.9016        0.990136 
        3.91134         11.8191        0.980135 
        3.92704         11.6731        0.970284 
        3.94273         11.5947        0.960578 
        3.95845          11.523        0.950987 
        3.97418         11.4495        0.941525 
        3.98988         11.3169        0.932205 
        4.00554         11.2484        0.923035 
        4.02125         11.0946        0.913963 
        4.03698         11.0638        0.904999 
        4.05268         10.9507        0.896175 
        4.06839         10.8728        0.887462 
         4.0841         10.7607        0.878868 
        4.09983         10.6859        0.870376 
        4.11555         10.5948        0.861999 
        4.13124         10.4986        0.853755 
        4.14693         10.4386        0.845612 
        4.16266         10.3526        0.837557 
        4.17839         10.2554        0.829611 
        4.19408         10.1844        0.821786 
        4.20977         10.0851        0.814059 
        4.22551         10.0326        0.806412 
        4.24123         9.95467        0.798871 
        4.25691         9.87332        0.791448 
        4.27259         9.76533        0.784116 
        4.28831         9.70825        0.776863 
        4.30404         9.62264        0.769694 
        4.31974         9.56689        0.762631 
        4.33543         9.46444        0.755661 
        4.35116         9.39873        0.748761 
        4.36688         9.31983         0.74195 
        4.38255         9.25761        0.735249 
        4.39825         9.19051        0.728616 
        4.41398         9.10602        0.722052 
         4.4297         9.04001        0.715576 
        4.44541         8.96503         0.70918 
        4.46111         8.91038        0.702867 
        4.47683         8.85214        0.696626 
        4.49251         8.77051        0.690474 
        4.50819         8.68521        0.684398 
         4.5239         8.64214        0.678386 
        4.53962         8.59065        0.672438 
        4.55535         8.49377        0.666559 
        4.57106           8.429        0.660759 
        4.58678         8.35006        0.655027 
         4.6025           8.279        0.649361 
        4.61821         8.23814        0.643763 
        4.63391         8.18234        0.638238 
         4.6496         8.12404        0.632781 
        4.66532         8.04838        0.627378 
        4.68103         7.98624        0.622041 
        4.69673         7.93181        0.616771 
        4.71241         7.86986        0.611568 
        4.72811         7.79949        0.606416 
        4.74384           7.765        0.601316 
        4.75955         7.70047        0.596283 
        4.77525          7.6406        0.591311 
        4.79096         7.59304        0.586389 
        4.80669         7.52683         0.58152 
         4.8224         7.47177        0.576713 
        4.83809         7.40065        0.571964 
        4.85379          7.3421        0.567267 
         4.8695         7.30029        0.562618 
        4.88521         7.25414        0.558023 
        4.90093         7.19703        0.553479 
        4.91663         7.12397        0.548989 
        4.93234         7.08716        0.544545 
        4.94807         7.02484        0.540146 
        4.96377         6.98541        0.535805 
        4.97943         6.94497         0.53152 
        4.99514          6.8812        0.527271 
        5.01086          6.8241        0.523066 
        5.02654         6.77903        0.518916 
        5.04227          6.7382          0.5148 
          5.058         6.69783        0.510726 
        5.07371         6.65182        0.506705 
        5.08942         6.58876        0.502726 
        5.10513         6.54548        0.498789 
        5.12084         6.49147        0.494892 
        5.13656         6.44714        0.491038 
        5.15225         6.40562        0.487232 
        5.16796         6.37308        0.483459 
        5.18369         6.31824        0.479723 
         5.1994         6.26721        0.476034 
        5.21509          6.2187        0.472386 
        5.23079         6.18076        0.468773 
        5.24649         6.15633          0.4652 
        5.26217         6.10286        0.461666 
        5.27788         6.05226        0.458165 
        5.29359         6.01754        0.454699 
        5.30933         5.97782        0.451263 
        5.32504         5.94034        0.447869 
        5.34073         5.88642        0.444514 
        5.35646         5.84254        0.441186 
        5.37218         5.80853        0.437892 
        5.38789         5.78505        0.434637 
        5.40357         5.72861        0.431418 
        5.41929         5.70011        0.428225 
        5.43502         5.65403        0.425064 
         5.4507         5.62096        0.421942 
        5.46639         5.56873        0.418851 
        5.48212          5.5288        0.415784 
        5.49786         5.51402        0.412743 
        5.51353         5.45809        0.409749 
        5.52921         5.43505        0.406781 
        5.54495         5.38711        0.403833 
        5.56066         5.35366        0.400918 
        5.57637         5.31949        0.398033 
        5.59207         5.27908        0.395178 
        5.60778         5.24156         0.39235 
        5.62346         5.21541        0.389553 
        5.63916         5.17545        0.386782 
        5.65487         5.13573        0.384035 
         5.6706         5.11563        0.381312 
        5.68633          5.0759        0.378615 
        5.70203         5.03854        0.375949 
        5.71773         5.01953        0.373309 
        5.73344         4.97579        0.370693 
        5.74916         4.94751          0.3681 
        5.76486         4.91128        0.365535 
        5.78054         4.87991        0.362999 
        5.79626         4.84327        0.360479 
          5.812         4.81471        0.357981 
         5.8277         4.77558        0.355514 
        5.84339         4.75636         0.35307 
        5.85911         4.73025        0.350644 
        5.87484         4.69315        0.348242 
        5.89053          4.6679        0.345867 
        5.90623         4.63676        0.343512 
        5.92195         4.59969        0.341176 
        5.93767          4.5657        0.338863 
        5.95336         4.54971        0.336574 
        5.96905         4.51846        0.334308 
        5.98476         4.49053         0.33206 
        6.00048         4.45375        0.329831 
        6.01617         4.43328        0.327626 
        6.03185         4.39794        0.325444 
        6.04756         4.37356        0.323276 
        6.06331         4.34559        0.321123 
        6.07903         4.31954        0.318995 
        6.09473         4.28577        0.316888 
        6.11044         4.25793        0.314797 
        6.12616         4.24575        0.312726 
        6.14186         4.21333        0.310676 
        6.15755         4.18879        0.308644 
        6.17326         4.16658        0.306629 
        6.18898         4.13519        0.304631 
        6.20467         4.10973        0.302654 
        6.22036         4.09115        0.300695 
         6.2361         4.05873        0.298748 
         6.2518         4.04328        0.296821 
        6.26748         4.01245        0.294916 
        6.28319         3.98893        0.293022 
        6.29893         3.96417        0.291143 
        6.31463         3.94396        0.289284 
        6.33033         3.90962        0.287441 
        6.34604         3.89428        0.285613 
        6.36177         3.86642          0.2838 
        6.37747         3.85318        0.282005 
