# k  (h/Mpc)    Pcb(k)  (Mpc/h)^3    Pcb_linear(k) (Mpc/h)^3   ShotnoiseSubtracted = true
      0.0200456         16183.2         16444.6 
      0.0350414         12301.5         11954.7 
      0.0492313         8555.65         8686.06 
      0.0637834         6908.05         7220.64 
      0.0800726         5432.19         5730.84 
       0.096163         4311.24         4158.23 
       0.111083          3508.5         3316.71 
       0.126058         2909.66         2939.28 
       0.142273         2528.37         2490.22 
       0.158546         2076.94         1966.75 
        0.17375         1834.01         1656.98 
       0.188953         1717.57         1500.36 
       0.204907         1472.25         1327.51 
       0.220756         1324.48         1123.16 
        0.23588         1180.29         977.049 
         0.2514         1060.32         887.639 
       0.267535         1028.41         803.161 
       0.283568         905.573          708.28 
       0.299022         864.861         631.041 
       0.314451          889.29         576.729 
       0.330372         769.695         529.084 
       0.346141         710.244         480.224 
       0.361624         680.647         436.458 
       0.377134         645.494          401.61 
       0.392932         621.517         371.602 
       0.408854         592.577         342.545 
       0.424564         576.151         315.729 
       0.440253         526.477         292.717 
       0.455999         504.156         272.708 
       0.471626         511.919         254.319 
        0.48727         483.572         237.118 
       0.502856          451.36         221.665 
       0.518488         448.254         207.877 
       0.534347         420.812         195.059 
       0.550082          404.29          183.24 
       0.565732         401.278         172.427 
       0.581496         389.131         162.524 
       0.597222         378.041         153.442 
       0.612804         369.036         145.091 
       0.628434         354.399         137.307 
       0.644267         340.895         130.029 
       0.660051         336.237         123.322 
       0.675724         330.718         117.129 
       0.691403         322.818         111.355 
       0.707174         310.603         105.939 
       0.722871          305.76         100.904 
        0.73838         302.009         96.2502 
       0.754018         290.169         91.8549 
       0.769845         288.839         87.6862 
        0.78569         282.182         83.7727 
       0.801365         274.037         80.1371 
       0.817031         270.138         76.7205 
       0.832809           265.4         73.4824 
       0.848511          258.78         70.4466 
       0.864097         252.551          67.604 
       0.879701         251.276         64.9163 
       0.895507         244.608         62.3437 
       0.911279         238.141         59.9165 
        0.92691         235.757         57.6392 
       0.942635         233.903         55.4683 
       0.958396         227.623         53.4051 
       0.974128         224.355          51.451 
       0.989692         216.528         49.6144 
        1.00528         216.111         47.8651 
        1.02113         212.685         46.1731 
        1.03692         207.867         44.5695 
        1.05264         204.517         43.0497 
        1.06832          204.15         41.6035 
        1.08405         198.269         40.2201 
        1.09979         196.941          38.899 
        1.11537         192.922         37.6506 
        1.13105         189.638         36.4498 
        1.14679         187.819         35.2969 
        1.16256         185.021         34.1918 
        1.17828         182.929         33.1378 
        1.19395         178.081          32.132 
         1.2097         177.285          31.163 
        1.22537          175.88         30.2387 
          1.241         171.286         29.3549 
        1.25666         169.301         28.5043 
        1.27241         165.598         27.6835 
        1.28819          164.13         26.8938 
        1.30392         161.844         26.1373 
        1.31957             158         25.4133 
        1.33529         156.224         24.7142 
        1.35108         154.569         24.0387 
        1.36674          151.81         23.3934 
         1.3824         150.866         22.7724 
        1.39811         147.704          22.172 
        1.41389         145.468         21.5909 
        1.42964         143.438         21.0318 
        1.44531         142.003         20.4952 
        1.46101         139.006         19.9763 
        1.47667         138.682         19.4769 
        1.49229         136.392         18.9959 
        1.50793         133.886         18.5308 
        1.52367         132.334         18.0782 
        1.53953          129.96         17.6377 
        1.55526         129.445         17.2155 
        1.57092         127.659         16.8089 
        1.58662         125.058         16.4145 
        1.60235         123.611          16.032 
        1.61809         122.259         15.6615 
        1.63369         120.268          15.306 
        1.64941         119.629         14.9591 
        1.66519          117.66         14.6217 
        1.68085         115.516         14.2971 
        1.69652         114.545         13.9823 
        1.71228         113.529         13.6752 
        1.72806         112.086         13.3771 
        1.74368         110.248         13.0909 
        1.75933         109.396         12.8125 
        1.77505         107.369          12.541 
        1.79081         106.085         12.2768 
         1.8065         104.215         12.0214 
        1.82218         103.166         11.7735 
        1.83797         102.774         11.5309 
        1.85367          100.73         11.2965 
        1.86928         100.271           11.07 
        1.88497         98.4054         10.8485 
        1.90073          97.689         10.6322 
        1.91647          95.998         10.4221 
        1.93218         94.8462         10.2181 
        1.94787         93.5052         10.0198 
        1.96363         92.6784         9.82608 
        1.97935          91.746         9.63785 
        1.99499         90.9059         9.45563 
        2.01064         88.7711         9.27785 
         2.0264         88.2843         9.10354 
        2.04216         86.4971          8.9338 
        2.05781         86.0922         8.76946 
        2.07353         84.9736         8.60867 
        2.08928         83.7492         8.45158 
        2.10499         82.6928         8.29882 
        2.12065         82.2864         8.15031 
        2.13633         81.1783         8.00531 
        2.15211         79.8373          7.8629 
        2.16785         78.6927         7.72436 
        2.18349         77.7399         7.59002 
        2.19916         76.8874         7.45861 
        2.21489         75.9776         7.32987 
        2.23063         74.9607         7.20409 
         2.2463         74.5116         7.08183 
        2.26194         73.4455         6.96271 
        2.27765         72.5885         6.84573 
        2.29341         71.7544         6.73113 
        2.30914         70.8997         6.61939 
        2.32486         69.3521         6.51026 
        2.34061         69.0368          6.4034 
        2.35635          68.242         6.29905 
        2.37203         67.2178         6.19738 
        2.38768         66.6124         6.09816 
        2.40339         65.8592         6.00076 
        2.41914         64.8045         5.90527 
        2.43483         64.4234         5.81219 
         2.4505         63.4644         5.72127 
        2.46622         63.0282         5.63199 
        2.48195         62.0746         5.54461 
        2.49759         61.3999         5.45955 
        2.51328         60.7141         5.37605 
        2.52906         60.0005         5.29377 
        2.54479         59.3096         5.21353 
        2.56049         58.5944          5.1351 
        2.57618         57.8089         5.05835 
        2.59189         57.4077         4.98306 
        2.60758          56.603         4.90942 
        2.62325         56.0235         4.83736 
        2.63898           55.44         4.76649 
        2.65468           54.88          4.6972 
        2.67044         54.2763         4.62898 
        2.68618         53.7599         4.56228 
        2.70184         52.9966         4.49716 
        2.71755         52.2769         4.43315 
        2.73329         51.9305         4.37029 
        2.74897         51.4792         4.30885 
        2.76462         51.0122         4.24872 
        2.78034         50.3137          4.1895 
        2.79607         49.5332         4.13135 
        2.81179         49.0498         4.07436 
        2.82749         48.6634         4.01852 
        2.84321         48.2734         3.96366 
        2.85893         47.6803         3.90984 
        2.87462         46.9527         3.85711 
        2.89033         46.5097          3.8053 
        2.90605         45.9448         3.75441 
        2.92176         45.6046         3.70447 
        2.93747         45.0583         3.65546 
        2.95318         44.5999         3.60733 
        2.96891         44.0914         3.56005 
        2.98456         43.7408         3.51382 
        3.00023         43.0332         3.46834 
        3.01596         42.7639         3.42353 
        3.03164         42.2652         3.37964 
        3.04738         41.8604         3.33639 
         3.0631         41.5496         3.29391 
        3.07883         41.0201         3.25217 
        3.09456         40.5655         3.21116 
        3.11026         40.1191         3.17092 
        3.12596         39.7328         3.13138 
        3.14163         39.3434          3.0926 
        3.15734         38.9659         3.05438 
        3.17308          38.676         3.01672 
        3.18879         38.2648          2.9798 
        3.20447         37.7342         2.94355 
         3.2202         37.3828         2.90779 
         3.2359         37.1106         2.87268 
        3.25157         36.5906         2.83824 
        3.26729         36.3489         2.80427 
        3.28304         36.0197         2.77078 
        3.29877         35.4843         2.73788 
        3.31446         35.2543         2.70558 
        3.33014         34.8158         2.67384 
        3.34585         34.4033         2.64256 
        3.36158         34.1458         2.61173 
        3.37727         33.7858         2.58149 
        3.39294         33.4424         2.55175 
        3.40867         33.2037         2.52238 
        3.42439         32.8052         2.49348 
        3.44008         32.5554          2.4651 
        3.45578         32.2004         2.43713 
        3.47153         32.0061         2.40954 
        3.48724          31.596         2.38242 
        3.50292         31.3393         2.35578 
        3.51859         31.0479         2.32956 
        3.53431         30.7711         2.30366 
        3.55007         30.2834          2.2781 
        3.56577         30.1557         2.25301 
        3.58146         29.8176         2.22832 
        3.59719         29.5433         2.20394 
        3.61292         29.3571         2.17994 
        3.62859         28.9709         2.15638 
        3.64429         28.7093         2.13312 
        3.66003         28.4538         2.11014 
        3.67578         28.2276          2.0875 
        3.69146         28.0245         2.06528 
        3.70712         27.6198         2.04343 
        3.72284         27.4451          2.0218 
        3.73853         27.2457         2.00053 
        3.75422         26.9886         1.97956 
        3.76993         26.6935         1.95887 
        3.78564         26.4324         1.93849 
        3.80137         26.2696         1.91836 
        3.81707         25.9656         1.89856 
        3.83279         25.6835         1.87902 
        3.84853         25.5132         1.85972 
        3.86424         25.1269         1.84074 
        3.87992         24.9468         1.82204 
        3.89561          24.829         1.80361 
        3.91134         24.5265         1.78539 
        3.92704         24.2852         1.76745 
        3.94273         24.0141         1.74977 
        3.95845         23.8839          1.7323 
        3.97418         23.6648         1.71506 
        3.98988         23.4581         1.69808 
        4.00554         23.1915         1.68138 
        4.02125         23.0308         1.66486 
        4.03698         22.8212         1.64853 
        4.05268         22.6067         1.63245 
        4.06839         22.4032         1.61658 
         4.0841         22.2316         1.60093 
        4.09983         21.9652         1.58546 
        4.11555         21.8241          1.5702 
        4.13124         21.7089         1.55518 
        4.14693         21.4821         1.54035 
        4.16266         21.2745         1.52568 
        4.17839         21.1128          1.5112 
        4.19408         20.8592         1.49695 
        4.20977         20.7404         1.48287 
        4.22551         20.5862         1.46894 
        4.24123         20.3595         1.45521 
        4.25691         20.2166         1.44168 
        4.27259         20.0522         1.42833 
        4.28831         19.8614         1.41512 
        4.30404         19.6559         1.40206 
        4.31974          19.515         1.38919 
        4.33543         19.3932          1.3765 
        4.35116         19.2069         1.36393 
        4.36688         19.0308         1.35152 
        4.38255         18.8422         1.33931 
        4.39825         18.7371         1.32723 
        4.41398         18.5508         1.31527 
         4.4297         18.4369         1.30348 
        4.44541         18.2406         1.29183 
        4.46111         18.0242         1.28033 
        4.47683         17.9051         1.26896 
        4.49251         17.8145         1.25775 
        4.50819         17.6517         1.24668 
         4.5239         17.5118         1.23573 
        4.53962         17.4055          1.2249 
        4.55535         17.2197         1.21419 
        4.57106         17.1153         1.20362 
        4.58678         16.9306         1.19318 
         4.6025         16.7505         1.18286 
        4.61821         16.6845         1.17266 
        4.63391          16.515          1.1626 
         4.6496         16.4032         1.15266 
        4.66532         16.2495         1.14282 
        4.68103         16.1343          1.1331 
        4.69673         15.9934          1.1235 
        4.71241         15.9079         1.11402 
        4.72811         15.7449         1.10463 
        4.74384         15.5943         1.09534 
        4.75955         15.4808         1.08618 
        4.77525         15.3732         1.07712 
        4.79096         15.2438         1.06815 
        4.80669         15.1346         1.05928 
         4.8224         15.0157         1.05053 
        4.83809         14.8719         1.04188 
        4.85379         14.7646         1.03332 
         4.8695         14.6749         1.02485 
        4.88521         14.5296         1.01648 
        4.90093         14.4028         1.00821 
        4.91663         14.3137         1.00003 
        4.93234          14.193        0.991931 
        4.94807         14.0973        0.983919 
        4.96377         13.9849        0.976011 
        4.97943          13.898        0.968206 
        4.99514         13.7624        0.960466 
        5.01086         13.6749        0.952805 
        5.02654         13.5555        0.945247 
        5.04227          13.461        0.937748 
          5.058         13.3432        0.930328 
        5.07371         13.2511        0.923002 
        5.08942         13.1497        0.915754 
        5.10513         13.0461        0.908583 
        5.12084         12.9662        0.901485 
        5.13656         12.8615        0.894465 
        5.15225         12.7571        0.887531 
        5.16796         12.6485        0.880659 
        5.18369         12.5505        0.873854 
         5.1994         12.4608        0.867133 
        5.21509         12.3721        0.860489 
        5.23079         12.2819        0.853906 
        5.24649         12.1967        0.847397 
        5.26217         12.1037        0.840961 
        5.27788         11.9937        0.834583 
        5.29359         11.9119        0.828269 
        5.30933         11.8417        0.822012 
        5.32504         11.7415        0.815829 
        5.34073          11.672        0.809717 
        5.35646         11.6015        0.803655 
        5.37218         11.4911        0.797655 
        5.38789         11.3935        0.791724 
        5.40357         11.3217        0.785862 
        5.41929         11.2371        0.780045 
        5.43502         11.1576        0.774287 
         5.4507         11.0757          0.7686 
        5.46639         10.9729         0.76297 
        5.48212         10.9156        0.757382 
        5.49786         10.8475        0.751845 
        5.51353         10.7603        0.746389 
        5.52921         10.6988        0.740983 
        5.54495         10.6024        0.735614 
        5.56066         10.5147        0.730304 
        5.57637         10.4654        0.725048 
        5.59207          10.387        0.719847 
        5.60778         10.3092        0.714696 
        5.62346         10.2233        0.709602 
        5.63916           10.16        0.704553 
        5.65487         10.0996         0.69955 
         5.6706         10.0145         0.69459 
        5.68633         9.93047        0.689677 
        5.70203         9.87267        0.684821 
        5.71773         9.78012        0.680012 
        5.73344          9.7402        0.675247 
        5.74916         9.67633        0.670523 
        5.76486         9.61388        0.665851 
        5.78054         9.53753        0.661231 
        5.79626         9.47894        0.656641 
          5.812         9.41021        0.652091 
         5.8277         9.34283        0.647597 
        5.84339          9.2529        0.643145 
        5.85911         9.21082        0.638726 
        5.87484         9.13249         0.63435 
        5.89053         9.07127        0.630023 
        5.90623         9.03255        0.625735 
        5.92195         8.96002        0.621479 
        5.93767         8.90405        0.617265 
        5.95336          8.8219        0.613097 
        5.96905         8.77998        0.608969 
        5.98476         8.70511        0.604873 
        6.00048         8.65329        0.600813 
        6.01617         8.59633        0.596796 
        6.03185         8.54995        0.592821 
        6.04756         8.48522        0.588872 
        6.06331          8.4306        0.584951 
        6.07903         8.36943        0.581074 
        6.09473         8.30507        0.577235 
        6.11044         8.25501        0.573428 
        6.12616         8.21195        0.569656 
        6.14186         8.16663        0.565921 
        6.15755         8.10588         0.56222 
        6.17326         8.03183        0.558549 
        6.18898         7.99374        0.554909 
        6.20467          7.9363        0.551308 
        6.22036         7.87698         0.54774 
         6.2361         7.82957        0.544193 
         6.2518         7.78124        0.540683 
        6.26748         7.72537        0.537212 
        6.28319         7.69556        0.533762 
        6.29893         7.63952         0.53034 
        6.31463         7.57159        0.526953 
        6.33033         7.52517        0.523596 
        6.34604          7.4769        0.520267 
        6.36177         7.44527        0.516963 
        6.37747         7.38389        0.513694 
