# k  (h/Mpc)    Pcb(k)  (Mpc/h)^3    Pcb_linear(k) (Mpc/h)^3   ShotnoiseSubtracted = true
      0.0200456         19662.4           19998 
      0.0350414         14982.4         14537.9 
      0.0492313         10360.9         10562.9 
      0.0637834         8356.37         8780.87 
      0.0800726         6562.66         6969.16 
       0.096163         5250.31         5056.73 
       0.111083         4275.35         4033.38 
       0.126058         3536.81         3574.39 
       0.142273          3089.5          3028.3 
       0.158546         2536.63         2391.72 
        0.17375         2256.64         2015.02 
       0.188953         2129.53         1824.56 
       0.204907         1829.62         1614.36 
       0.220756         1650.95         1365.85 
        0.23588         1473.02         1188.17 
         0.2514         1329.44         1079.44 
       0.267535         1285.97         976.707 
       0.283568         1140.33         861.325 
       0.299022         1088.22         767.396 
       0.314451         1129.14         701.348 
       0.330372           988.7         643.408 
       0.346141          909.12          583.99 
       0.361624         872.293         530.767 
       0.377134         833.298          488.39 
       0.392932         797.749         451.897 
       0.408854         762.666         416.562 
       0.424564         744.722         383.951 
       0.440253         686.506         355.967 
       0.455999         656.636         331.634 
       0.471626         668.843         309.272 
        0.48727         630.944         288.354 
       0.502856         598.607         269.562 
       0.518488         586.339         252.795 
       0.534347         557.753         237.207 
       0.550082         532.709         222.834 
       0.565732         526.735         209.685 
       0.581496         514.812         197.642 
       0.597222         501.771         186.598 
       0.612804         490.273         176.442 
       0.628434         469.959         166.976 
       0.644267         455.111         158.126 
       0.660051         449.424         149.969 
       0.675724         440.359         142.438 
       0.691403         429.682         135.417 
       0.707174         414.632          128.83 
       0.722871         408.426         122.707 
        0.73838         401.601         117.048 
       0.754018         389.049         111.703 
       0.769845         385.692         106.633 
        0.78569         377.475         101.874 
       0.801365         364.692          97.453 
       0.817031         361.972         93.2982 
       0.832809          355.89         89.3604 
       0.848511         348.662         85.6686 
       0.864097         339.879         82.2118 
       0.879701         337.817         78.9434 
       0.895507         326.209         75.8149 
       0.911279         320.193         72.8632 
        0.92691         317.382         70.0939 
       0.942635         314.159         67.4538 
       0.958396          303.74         64.9448 
       0.974128         300.805         62.5684 
       0.989692         289.988          60.335 
        1.00528         289.271         58.2077 
        1.02113         284.708         56.1501 
        1.03692         279.089            54.2 
        1.05264         274.467         52.3518 
        1.06832         271.607         50.5931 
        1.08405         266.692         48.9108 
        1.09979          262.77         47.3043 
        1.11537         256.472         45.7861 
        1.13105         252.816         44.3258 
        1.14679         249.841         42.9238 
        1.16256           247.6         41.5799 
        1.17828         243.666         40.2982 
        1.19395         237.239         39.0751 
         1.2097         237.187         37.8966 
        1.22537         233.313         36.7727 
          1.241         227.299         35.6978 
        1.25666         225.699         34.6634 
        1.27241         221.857         33.6653 
        1.28819         218.294          32.705 
        1.30392         216.565          31.785 
        1.31957         210.532         30.9046 
        1.33529         207.721         30.0544 
        1.35108         206.735          29.233 
        1.36674         201.193         28.4482 
         1.3824         200.008          27.693 
        1.39811         198.124         26.9628 
        1.41389         192.512         26.2563 
        1.42964          190.49         25.5763 
        1.44531          188.83         24.9238 
        1.46101         185.364         24.2927 
        1.47667         183.345         23.6854 
        1.49229         180.621         23.1006 
        1.50793          177.71         22.5349 
        1.52367         175.728         21.9845 
        1.53953         171.727         21.4489 
        1.55526         170.928         20.9354 
        1.57092         169.499         20.4409 
        1.58662         165.112         19.9613 
        1.60235         163.645         19.4961 
        1.61809         161.089         19.0456 
        1.63369         158.294         18.6134 
        1.64941         156.731         18.1915 
        1.66519         154.754         17.7811 
        1.68085         152.093         17.3864 
        1.69652         150.323         17.0036 
        1.71228         148.044         16.6301 
        1.72806         146.727         16.2676 
        1.74368         144.764         15.9196 
        1.75933         143.538         15.5811 
        1.77505         141.252         15.2508 
        1.79081         138.253         14.9296 
         1.8065         136.747         14.6189 
        1.82218         134.467         14.3175 
        1.83797         133.683         14.0224 
        1.85367         131.859         13.7374 
        1.86928         130.126          13.462 
        1.88497         128.666         13.1926 
        1.90073         127.364         12.9296 
        1.91647         125.026         12.6741 
        1.93218         123.662          12.426 
        1.94787         121.634         12.1849 
        1.96363         121.008         11.9493 
        1.97935         119.392         11.7204 
        1.99499         118.087         11.4988 
        2.01064         115.482         11.2826 
         2.0264         114.691         11.0706 
        2.04216         112.959         10.8642 
        2.05781         111.638         10.6644 
        2.07353         110.162         10.4688 
        2.08928         108.814         10.2778 
        2.10499         107.714          10.092 
        2.12065         106.563         9.91142 
        2.13633         105.637         9.73508 
        2.15211         103.811          9.5619 
        2.16785         102.445         9.39342 
        2.18349         101.018         9.23007 
        2.19916         100.116         9.07026 
        2.21489         99.1971          8.9137 
        2.23063         97.3572         8.76074 
         2.2463           96.49         8.61206 
        2.26194         95.4953         8.46721 
        2.27765         94.1326         8.32495 
        2.29341         93.2581         8.18558 
        2.30914         91.9911          8.0497 
        2.32486           90.34         7.91699 
        2.34061         89.8734         7.78704 
        2.35635         88.6469         7.66014 
        2.37203         87.1931          7.5365 
        2.38768         86.4047         7.41585 
        2.40339         85.7943          7.2974 
        2.41914          84.213         7.18127 
        2.43483          83.575         7.06808 
         2.4505         82.5365         6.95751 
        2.46622         81.5898         6.84894 
        2.48195         80.6976         6.74268 
        2.49759         79.6377         6.63924 
        2.51328         78.8583          6.5377 
        2.52906         77.3714         6.43764 
        2.54479         76.7631         6.34006 
        2.56049         75.6353         6.24468 
        2.57618         74.7553         6.15135 
        2.59189         74.3867         6.05979 
        2.60758         72.8252         5.97024 
        2.62325         72.5348         5.88261 
        2.63898         71.6841         5.79643 
        2.65468         70.8465         5.71216 
        2.67044         69.8529         5.62921 
        2.68618         69.3064         5.54809 
        2.70184         68.2693          5.4689 
        2.71755          67.567         5.39106 
        2.73329         66.5874         5.31461 
        2.74897         66.2354          5.2399 
        2.76462         65.3705         5.16678 
        2.78034         64.4273         5.09476 
        2.79607         63.8374         5.02404 
        2.81179         63.3187         4.95475 
        2.82749         62.7376         4.88683 
        2.84321         62.0017         4.82012 
        2.85893         61.2877         4.75467 
        2.87462         60.5787         4.69055 
        2.89033         60.0049         4.62755 
        2.90605         59.4375         4.56565 
        2.92176         58.6504         4.50492 
        2.93747         58.1022         4.44533 
        2.95318         57.3533          4.3868 
        2.96891         56.7825          4.3293 
        2.98456         56.1632         4.27308 
        3.00023         55.5673         4.21778 
        3.01596         55.0808         4.16329 
        3.03164         54.4385         4.10991 
        3.04738         53.9961         4.05732 
         3.0631          53.061         4.00566 
        3.07883         52.5808          3.9549 
        3.09456         52.0336         3.90503 
        3.11026          51.483         3.85609 
        3.12596         51.0722           3.808 
        3.14163         50.3654         3.76084 
        3.15734          49.866         3.71437 
        3.17308         49.3796         3.66857 
        3.18879         48.8543         3.62367 
        3.20447         48.5014         3.57958 
         3.2202         47.7852          3.5361 
         3.2359         47.3136         3.49341 
        3.25157         46.9803         3.45153 
        3.26729         46.3641         3.41021 
        3.28304         46.0058         3.36948 
        3.29877         45.4391         3.32947 
        3.31446         45.0788          3.2902 
        3.33014         44.6011          3.2516 
        3.34585         44.0116         3.21356 
        3.36158          43.638         3.17607 
        3.37727         43.2285         3.13929 
        3.39294         42.8722         3.10313 
        3.40867         42.4541         3.06741 
        3.42439         41.9976         3.03227 
        3.44008         41.4608         2.99775 
        3.45578         41.1383         2.96374 
        3.47153         40.6547         2.93019 
        3.48724         40.2158         2.89721 
        3.50292          39.868         2.86482 
        3.51859         39.5065         2.83293 
        3.53431         39.0141         2.80144 
        3.55007         38.6859         2.77034 
        3.56577         38.4491         2.73984 
        3.58146         37.9483         2.70981 
        3.59719         37.5902         2.68017 
        3.61292         37.2137         2.65097 
        3.62859         36.9534         2.62232 
        3.64429         36.6385         2.59404 
        3.66003         36.2663         2.56609 
        3.67578         35.9733         2.53857 
        3.69146          35.656         2.51154 
        3.70712         35.2227         2.48497 
        3.72284         34.9198         2.45867 
        3.73853         34.6913         2.43281 
        3.75422         34.3371          2.4073 
        3.76993         34.0181         2.38214 
        3.78564         33.7783         2.35735 
        3.80137         33.3726         2.33287 
        3.81707         33.0902         2.30879 
        3.83279         32.7348         2.28503 
        3.84853         32.4146         2.26157 
        3.86424         32.1094         2.23848 
        3.87992         31.9506         2.21575 
        3.89561         31.6533         2.19333 
        3.91134         31.3964         2.17118 
        3.92704         31.0377         2.14936 
        3.94273         30.7839         2.12786 
        3.95845         30.5141         2.10661 
        3.97418         30.1649         2.08565 
        3.98988           29.88           2.065 
        4.00554         29.6114         2.04469 
        4.02125         29.4458          2.0246 
        4.03698          29.054         2.00474 
        4.05268         28.8426         1.98519 
        4.06839         28.5425         1.96589 
         4.0841         28.3782         1.94685 
        4.09983          28.047         1.92804 
        4.11555          27.741         1.90949 
        4.13124         27.6146         1.89122 
        4.14693         27.3786         1.87319 
        4.16266         27.0458         1.85534 
        4.17839         26.9008         1.83774 
        4.19408         26.6215         1.82041 
        4.20977         26.3671         1.80329 
        4.22551          26.167         1.78635 
        4.24123         25.9581         1.76965 
        4.25691         25.7174          1.7532 
        4.27259          25.564         1.73696 
        4.28831         25.2727         1.72089 
        4.30404         25.0734         1.70501 
        4.31974         24.7966         1.68937 
        4.33543         24.6507         1.67393 
        4.35116         24.4343         1.65864 
        4.36688         24.2567         1.64355 
        4.38255         24.0634         1.62871 
        4.39825         23.7806         1.61402 
        4.41398         23.6237         1.59948 
         4.4297         23.4068         1.58513 
        4.44541           23.26         1.57096 
        4.46111         23.0633         1.55698 
        4.47683         22.8178         1.54315 
        4.49251         22.6458         1.52953 
        4.50819         22.4753         1.51607 
         4.5239         22.2894         1.50275 
        4.53962         22.1129         1.48957 
        4.55535          21.884         1.47655 
        4.57106         21.7095          1.4637 
        4.58678         21.5608           1.451 
         4.6025         21.3188         1.43845 
        4.61821         21.1939         1.42605 
        4.63391         20.9826         1.41381 
         4.6496         20.8462         1.40172 
        4.66532         20.6866         1.38976 
        4.68103         20.4431         1.37794 
        4.69673         20.3853         1.36626 
        4.71241         20.2159         1.35473 
        4.72811          20.029         1.34332 
        4.74384         19.8427         1.33203 
        4.75955         19.7248         1.32088 
        4.77525         19.5523         1.30986 
        4.79096         19.4002         1.29896 
        4.80669         19.2412         1.28817 
         4.8224         19.0936         1.27752 
        4.83809         18.9421         1.26701 
        4.85379         18.7988          1.2566 
         4.8695         18.6278          1.2463 
        4.88521          18.473         1.23612 
        4.90093         18.3468         1.22606 
        4.91663         18.2022         1.21611 
        4.93234         18.0237         1.20627 
        4.94807          17.905         1.19652 
        4.96377          17.795         1.18691 
        4.97943         17.5906         1.17741 
        4.99514         17.4756           1.168 
        5.01086         17.3279         1.15869 
        5.02654          17.233         1.14949 
        5.04227         17.0552         1.14038 
          5.058         16.9352         1.13135 
        5.07371         16.8353         1.12244 
        5.08942         16.6814         1.11363 
        5.10513         16.5622         1.10491 
        5.12084          16.456         1.09628 
        5.13656         16.2852         1.08774 
        5.15225         16.1744         1.07931 
        5.16796         16.0586         1.07095 
        5.18369         15.9488         1.06268 
         5.1994         15.8466          1.0545 
        5.21509         15.7294         1.04642 
        5.23079         15.5996         1.03842 
        5.24649         15.5054          1.0305 
        5.26217         15.3563         1.02267 
        5.27788         15.2294         1.01492 
        5.29359         15.1354         1.00724 
        5.30933         15.0156        0.999631 
        5.32504         14.8824        0.992112 
        5.34073         14.8236         0.98468 
        5.35646          14.691        0.977308 
        5.37218         14.5563        0.970011 
        5.38789         14.4856        0.962799 
        5.40357         14.3684         0.95567 
        5.41929         14.2559        0.948596 
        5.43502         14.1464        0.941593 
         5.4507         14.0753        0.934678 
        5.46639         13.9616        0.927831 
        5.48212         13.8396        0.921037 
        5.49786         13.7326        0.914302 
        5.51353         13.6338        0.907668 
        5.52921         13.5425        0.901094 
        5.54495         13.4282        0.894565 
        5.56066         13.3604        0.888107 
        5.57637         13.2542        0.881715 
        5.59207         13.1477        0.875391 
        5.60778         13.0508        0.869126 
        5.62346         13.0046        0.862932 
        5.63916         12.8799        0.856792 
        5.65487         12.7764        0.850708 
         5.6706          12.706        0.844676 
        5.68633         12.6218        0.838701 
        5.70203         12.5099        0.832796 
        5.71773         12.4282        0.826948 
        5.73344         12.3577        0.821154 
        5.74916         12.2592        0.815409 
        5.76486         12.1711        0.809728 
        5.78054         12.0914        0.804109 
        5.79626         11.9875        0.798528 
          5.812         11.9291        0.792994 
         5.8277          11.842        0.787528 
        5.84339         11.7412        0.782115 
        5.85911          11.662        0.776741 
        5.87484         11.5979        0.771419 
        5.89053         11.4904        0.766157 
        5.90623         11.4102        0.760942 
        5.92195         11.3301        0.755767 
        5.93767         11.2497        0.750642 
        5.95336         11.2063        0.745574 
        5.96905         11.1123        0.740554 
        5.98476         11.0506        0.735573 
        6.00048         10.9536        0.730636 
        6.01617         10.8716        0.725751 
        6.03185         10.8187        0.720917 
        6.04756         10.7381        0.716115 
        6.06331          10.656        0.711347 
        6.07903         10.5877        0.706632 
        6.09473         10.5336        0.701964 
        6.11044         10.4456        0.697334 
        6.12616          10.369        0.692746 
        6.14186         10.3065        0.688204 
        6.15755         10.2464        0.683704 
        6.17326         10.1591         0.67924 
        6.18898         10.0998        0.674813 
        6.20467         10.0392        0.670434 
        6.22036         9.96751        0.666095 
         6.2361         9.90838        0.661781 
         6.2518         9.85888        0.657514 
        6.26748          9.7699        0.653293 
        6.28319         9.72128        0.649097 
        6.29893            9.65        0.644935 
        6.31463          9.5861        0.640816 
        6.33033         9.51091        0.636734 
        6.34604         9.45843        0.632685 
        6.36177           9.399        0.628668 
        6.37747         9.33134        0.624692 
