# k  (h/Mpc)    Pcb(k)  (Mpc/h)^3    Pcb_linear(k) (Mpc/h)^3   ShotnoiseSubtracted = true
      0.0200456         17497.2         17881.9 
      0.0350414         12478.3         12999.6 
      0.0492313         9289.46         9445.24 
      0.0637834         8007.16         7851.74 
      0.0800726         6324.48         6231.73 
       0.096163          4394.1         4521.67 
       0.111083         3516.13          3606.6 
       0.126058         3241.84         3196.18 
       0.142273         2805.31         2707.87 
       0.158546         2415.89         2138.65 
        0.17375         1930.99         1801.81 
       0.188953         1881.78          1631.5 
       0.204907         1768.87         1443.54 
       0.220756          1523.8         1221.32 
        0.23588         1353.68         1062.45 
         0.2514         1177.13         965.221 
       0.267535         1169.15         873.359 
       0.283568         1059.81         770.186 
       0.299022         998.204         686.196 
       0.314451         949.699         627.136 
       0.330372         873.535         575.327 
       0.346141         817.287         522.197 
       0.361624          785.63         474.606 
       0.377134          729.56         436.712 
       0.392932         701.738         404.081 
       0.408854         681.422         372.485 
       0.424564         635.761         343.325 
       0.440253         624.552         318.302 
       0.455999         593.175         296.543 
       0.471626         566.378         276.547 
        0.48727         544.756         257.843 
       0.502856         529.884         241.039 
       0.518488         523.886         226.046 
       0.534347         489.429         212.108 
       0.550082         471.388         199.256 
       0.565732         470.817         187.498 
       0.581496         442.539         176.729 
       0.597222         435.828         166.854 
       0.612804         424.511         157.772 
       0.628434         409.868         149.308 
       0.644267         398.859         141.394 
       0.660051         387.198         134.101 
       0.675724         383.072         127.366 
       0.691403          370.77         121.088 
       0.707174         357.987         115.198 
       0.722871         353.644         109.723 
        0.73838         348.539         104.663 
       0.754018         338.541         99.8832 
       0.769845         329.404         95.3502 
        0.78569         327.475         91.0947 
       0.801365         317.025         87.1412 
       0.817031         306.917         83.4261 
       0.832809         305.141         79.9049 
       0.848511         296.858         76.6038 
       0.864097         291.291         73.5128 
       0.879701         287.313         70.5902 
       0.895507         281.894         67.7927 
       0.911279          272.58         65.1534 
        0.92691         271.149         62.6771 
       0.942635         264.617         60.3164 
       0.958396         260.063         58.0728 
       0.974128         255.396         55.9479 
       0.989692         251.306         53.9508 
        1.00528         247.203         52.0486 
        1.02113         244.794         50.2087 
        1.03692         238.773          48.465 
        1.05264         235.225         46.8124 
        1.06832         230.353         45.2397 
        1.08405         226.251         43.7354 
        1.09979         222.662         42.2989 
        1.11537         219.099         40.9414 
        1.13105         213.905         39.6356 
        1.14679         213.489         38.3819 
        1.16256         209.331         37.1802 
        1.17828         205.746         36.0342 
        1.19395         202.051         34.9404 
         1.2097         201.813         33.8867 
        1.22537         196.872         32.8817 
          1.241         195.484         31.9206 
        1.25666         191.225         30.9956 
        1.27241         188.501         30.1031 
        1.28819          186.21         29.2444 
        1.30392         182.106         28.4217 
        1.31957           182.3         27.6345 
        1.33529         177.648         26.8743 
        1.35108         174.584         26.1398 
        1.36674         173.726          25.438 
         1.3824         171.231         24.7628 
        1.39811          170.12         24.1098 
        1.41389         166.354          23.478 
        1.42964         163.933           22.87 
        1.44531         161.562         22.2865 
        1.46101         159.947         21.7222 
        1.47667         156.745         21.1792 
        1.49229          154.85         20.6562 
        1.50793         152.889         20.1504 
        1.52367         151.646         19.6583 
        1.53953          148.53         19.1793 
        1.55526         146.339         18.7202 
        1.57092         144.995          18.278 
        1.58662         142.796         17.8491 
        1.60235         140.923         17.4332 
        1.61809         139.577         17.0304 
        1.63369           137.1         16.6438 
        1.64941         134.964         16.2666 
        1.66519         133.468         15.8997 
        1.68085         132.314         15.5467 
        1.69652         129.959         15.2044 
        1.71228         128.214         14.8705 
        1.72806         126.706         14.5463 
        1.74368         125.745         14.2351 
        1.75933         123.582         13.9324 
        1.77505          121.99         13.6371 
        1.79081         121.099         13.3498 
         1.8065         119.442         13.0721 
        1.82218         117.083         12.8025 
        1.83797         115.653         12.5387 
        1.85367          114.62         12.2838 
        1.86928         112.863         12.0375 
        1.88497         110.786         11.7967 
        1.90073         109.925         11.5615 
        1.91647         108.554          11.333 
        1.93218         107.239         11.1112 
        1.94787         105.858         10.8956 
        1.96363         104.597         10.6849 
        1.97935         102.719         10.4802 
        1.99499          101.84         10.2821 
        2.01064         100.637         10.0888 
         2.0264         99.1545         9.89921 
        2.04216         98.3906         9.71463 
        2.05781          97.123         9.53593 
        2.07353         95.9668         9.36109 
        2.08928         94.3701         9.19026 
        2.10499         92.8889         9.02416 
        2.12065         92.3956         8.86267 
        2.13633         91.4836         8.70499 
        2.15211         90.1477         8.55013 
        2.16785         88.6279         8.39948 
        2.18349         87.6107         8.25341 
        2.19916         86.7762         8.11051 
        2.21489          85.718         7.97052 
        2.23063         84.3922         7.83375 
         2.2463         83.5142          7.7008 
        2.26194         83.2729         7.57127 
        2.27765         81.5711         7.44406 
        2.29341         80.7854         7.31945 
        2.30914         79.6979         7.19795 
        2.32486         79.0242         7.07927 
        2.34061         78.0031         6.96308 
        2.35635         76.5202          6.8496 
        2.37203          75.691         6.73904 
        2.38768         74.9935         6.63116 
        2.40339         74.1629         6.52524 
        2.41914         73.0655          6.4214 
        2.43483         72.6232         6.32019 
         2.4505          71.605         6.22132 
        2.46622         70.7911         6.12424 
        2.48195         69.9777         6.02922 
        2.49759          69.218         5.93672 
        2.51328         68.4801         5.84593 
        2.52906          67.695         5.75646 
        2.54479         67.0516          5.6692 
        2.56049         66.0299         5.58392 
        2.57618         65.4253         5.50046 
        2.59189         64.4264         5.41859 
        2.60758         63.7121         5.33852 
        2.62325         63.0823         5.26016 
        2.63898         62.3748          5.1831 
        2.65468         61.7115         5.10774 
        2.67044         60.8817         5.03357 
        2.68618         60.4165         4.96104 
        2.70184         60.0593         4.89022 
        2.71755         59.2714         4.82062 
        2.73329         58.4019         4.75226 
        2.74897         57.9268         4.68545 
        2.76462         57.1506         4.62007 
        2.78034         56.3663         4.55567 
        2.79607         55.8145         4.49244 
        2.81179         55.3087         4.43047 
        2.82749          54.682         4.36975 
        2.84321         54.1715         4.31009 
        2.85893         53.4513         4.25157 
        2.87462         52.9313         4.19423 
        2.89033         52.3189          4.1379 
        2.90605         51.6175         4.08255 
        2.92176         51.2901         4.02825 
        2.93747         50.7792         3.97496 
        2.95318         50.0703         3.92262 
        2.96891         49.3622          3.8712 
        2.98456         49.0464         3.82094 
        3.00023          48.259         3.77149 
        3.01596         47.9123         3.72276 
        3.03164         47.3721         3.67503 
        3.04738         46.8943           3.628 
         3.0631         46.4496         3.58181 
        3.07883         45.9451         3.53642 
        3.09456         45.5817         3.49183 
        3.11026         44.9549         3.44807 
        3.12596         44.5665         3.40507 
        3.14163         43.9835          3.3629 
        3.15734         43.6551         3.32134 
        3.17308         43.2501         3.28039 
        3.18879         42.8285         3.24024 
        3.20447         42.0617         3.20082 
         3.2202         41.9522         3.16193 
         3.2359         41.4398         3.12376 
        3.25157         41.1382         3.08631 
        3.26729         40.6009         3.04936 
        3.28304         40.0873         3.01295 
        3.29877         39.7242         2.97717 
        3.31446         39.3017         2.94206 
        3.33014         38.9717         2.90754 
        3.34585         38.7558         2.87352 
        3.36158           38.32            2.84 
        3.37727         37.7923         2.80711 
        3.39294         37.4661         2.77478 
        3.40867         37.0087         2.74284 
        3.42439         36.7055         2.71142 
        3.44008         36.3274         2.68055 
        3.45578         35.9286         2.65014 
        3.47153         35.6453         2.62014 
        3.48724         35.3125         2.59065 
        3.50292         34.9991         2.56168 
        3.51859          34.449         2.53317 
        3.53431         34.2023         2.50501 
        3.55007         33.9035         2.47721 
        3.56577         33.6287         2.44993 
        3.58146         33.2491         2.42308 
        3.59719         32.9225         2.39657 
        3.61292         32.6772         2.37047 
        3.62859         32.3298         2.34485 
        3.64429         32.0203         2.31956 
        3.66003         31.6886         2.29457 
        3.67578         31.3786         2.26995 
        3.69146         31.1914         2.24579 
        3.70712         30.7922         2.22203 
        3.72284         30.5726         2.19852 
        3.73853         30.3201         2.17539 
        3.75422         30.0312         2.15258 
        3.76993          29.732         2.13008 
        3.78564         29.4786         2.10791 
        3.80137         29.1212         2.08603 
        3.81707          28.852         2.06449 
        3.83279         28.6358         2.04325 
        3.84853         28.4523         2.02227 
        3.86424         28.0994         2.00162 
        3.87992         27.9247          1.9813 
        3.89561         27.6304         1.96125 
        3.91134         27.3556         1.94144 
        3.92704         27.1403         1.92193 
        3.94273          26.902          1.9027 
        3.95845         26.5003          1.8837 
        3.97418         26.4092         1.86496 
        3.98988         26.1597          1.8465 
        4.00554         25.8841         1.82834 
        4.02125         25.7546         1.81037 
        4.03698         25.3568         1.79261 
        4.05268         25.3033         1.77513 
        4.06839         25.0131         1.75788 
         4.0841          24.789         1.74085 
        4.09983         24.5507         1.72403 
        4.11555         24.3823         1.70744 
        4.13124         24.1074         1.69111 
        4.14693         23.9589         1.67498 
        4.16266         23.6835         1.65902 
        4.17839         23.4238         1.64328 
        4.19408         23.2937         1.62778 
        4.20977         23.0861         1.61248 
        4.22551         22.9132         1.59733 
        4.24123         22.6549          1.5824 
        4.25691         22.5398         1.56769 
        4.27259         22.3017         1.55317 
        4.28831          22.097          1.5388 
        4.30404         21.8741          1.5246 
        4.31974         21.7697         1.51061 
        4.33543         21.4948          1.4968 
        4.35116         21.3536         1.48314 
        4.36688         21.1692         1.46965 
        4.38255         21.0117         1.45637 
        4.39825         20.8006         1.44323 
        4.41398         20.6322         1.43023 
         4.4297         20.4935          1.4174 
        4.44541         20.3174         1.40474 
        4.46111         20.1561         1.39223 
        4.47683         19.9342         1.37987 
        4.49251         19.8231         1.36768 
        4.50819         19.6199         1.35565 
         4.5239          19.467         1.34374 
        4.53962         19.3456         1.33196 
        4.55535          19.178         1.32031 
        4.57106         19.0287         1.30882 
        4.58678         18.8549         1.29747 
         4.6025         18.7154         1.28625 
        4.61821         18.5591         1.27516 
        4.63391         18.3921         1.26422 
         4.6496         18.2399          1.2534 
        4.66532         18.0956          1.2427 
        4.68103         17.9377         1.23213 
        4.69673         17.7901         1.22169 
        4.71241         17.6397         1.21139 
        4.72811         17.5118         1.20118 
        4.74384         17.3574         1.19108 
        4.75955         17.2489         1.18111 
        4.77525         17.1079         1.17126 
        4.79096         16.9713         1.16151 
        4.80669         16.8414         1.15187 
         4.8224         16.6802         1.14235 
        4.83809         16.5757         1.13294 
        4.85379         16.4435         1.12364 
         4.8695         16.3232         1.11443 
        4.88521         16.1904         1.10533 
        4.90093         16.0555         1.09632 
        4.91663         15.9183         1.08743 
        4.93234         15.7871         1.07863 
        4.94807         15.6478         1.06992 
        4.96377         15.5881         1.06132 
        4.97943         15.4496         1.05283 
        4.99514         15.3303         1.04441 
        5.01086         15.1918         1.03608 
        5.02654         15.0944         1.02786 
        5.04227         14.9502         1.01971 
          5.058         14.8697         1.01164 
        5.07371         14.7535         1.00367 
        5.08942         14.6662        0.995793 
        5.10513         14.5174        0.987996 
        5.12084          14.416        0.980277 
        5.13656         14.2953        0.972643 
        5.15225          14.203        0.965103 
        5.16796         14.0589        0.957631 
        5.18369          13.977        0.950231 
         5.1994         13.8431        0.942922 
        5.21509         13.7406        0.935697 
        5.23079         13.6615         0.92854 
        5.24649         13.5389        0.921462 
        5.26217         13.4811        0.914463 
        5.27788          13.343        0.907527 
        5.29359         13.2349        0.900662 
        5.30933         13.1531        0.893857 
        5.32504         13.0644        0.887135 
        5.34073         12.9646        0.880488 
        5.35646         12.8786        0.873897 
        5.37218         12.7527        0.867371 
        5.38789          12.666        0.860923 
        5.40357         12.5743        0.854548 
        5.41929         12.4856        0.848223 
        5.43502         12.3915        0.841961 
         5.4507         12.2949        0.835777 
        5.46639          12.222        0.829655 
        5.48212         12.1345         0.82358 
        5.49786         12.0511        0.817558 
        5.51353         11.9332        0.811626 
        5.52921         11.8788        0.805747 
        5.54495          11.789        0.799909 
        5.56066           11.68        0.794135 
        5.57637         11.5947        0.788418 
        5.59207         11.5147        0.782764 
        5.60778         11.4432        0.777162 
        5.62346         11.3623        0.771623 
        5.63916         11.2946        0.766132 
        5.65487         11.2057        0.760693 
         5.6706         11.1353        0.755299 
        5.68633         11.0444        0.749956 
        5.70203         10.9583        0.744676 
        5.71773         10.8772        0.739447 
        5.73344         10.8146        0.734265 
        5.74916         10.7584        0.729129 
        5.76486         10.6611        0.724048 
        5.78054         10.5962        0.719024 
        5.79626         10.5056        0.714033 
          5.812         10.4386        0.709085 
         5.8277         10.3816        0.704198 
        5.84339         10.2862        0.699357 
        5.85911         10.2227        0.694552 
        5.87484         10.1642        0.689793 
        5.89053         10.0831        0.685088 
        5.90623         10.0209        0.680425 
        5.92195         9.94822        0.675797 
        5.93767         9.87038        0.671215 
        5.95336         9.80346        0.666683 
        5.96905         9.75186        0.662194 
        5.98476         9.68897         0.65774 
        6.00048         9.60975        0.653326 
        6.01617         9.53971        0.648958 
        6.03185         9.45425        0.644635 
        6.04756         9.40275        0.640341 
        6.06331         9.33747        0.636077 
        6.07903          9.2833        0.631861 
        6.09473         9.21536        0.627687 
        6.11044         9.16755        0.623547 
        6.12616         9.10518        0.619445 
        6.14186         9.04365        0.615384 
        6.15755         8.99789        0.611359 
        6.17326         8.92361        0.607368 
        6.18898         8.85384         0.60341 
        6.20467         8.79343        0.599494 
        6.22036         8.74318        0.595614 
         6.2361         8.67857        0.591757 
         6.2518         8.61406         0.58794 
        6.26748         8.57002        0.584166 
        6.28319         8.49287        0.580414 
        6.29893          8.4467        0.576693 
        6.31463           8.399         0.57301 
        6.33033         8.34528         0.56936 
        6.34604         8.27591        0.565739 
        6.36177         8.23826        0.562147 
        6.37747         8.18989        0.558592 
