# k  (h/Mpc)    Pcb(k)  (Mpc/h)^3    Pcb_linear(k) (Mpc/h)^3   ShotnoiseSubtracted = true
      0.0200456         25106.4         25569.7 
      0.0350414         19194.7         18588.3 
      0.0492313         13165.1         13505.9 
      0.0637834         10607.7         11227.4 
      0.0800726         8316.01         8910.87 
       0.096163         6727.76         6465.61 
       0.111083          5479.6         5157.14 
       0.126058         4525.93         4570.27 
       0.142273         3980.14         3872.03 
       0.158546         3264.02         3058.09 
        0.17375         2937.86         2576.44 
       0.188953         2803.57         2332.91 
       0.204907         2413.93         2064.15 
       0.220756         2189.89         1746.39 
        0.23588         1956.33         1519.21 
         0.2514         1779.91         1380.19 
       0.267535          1711.8         1248.83 
       0.283568         1535.36          1101.3 
       0.299022          1461.8         981.204 
       0.314451         1526.01         896.754 
       0.330372         1365.93         822.671 
       0.346141         1254.68         746.699 
       0.361624         1202.99         678.647 
       0.377134         1158.62         624.463 
       0.392932         1098.76         577.803 
       0.408854         1058.53         532.623 
       0.424564         1037.02         490.926 
       0.440253         969.068         455.145 
       0.455999         926.376         424.033 
       0.471626         938.395          395.44 
        0.48727         888.166         368.694 
       0.502856         862.397         344.666 
       0.518488         829.771         323.227 
       0.534347         803.363         303.296 
       0.550082          767.36         284.919 
       0.565732         753.033         268.107 
       0.581496         736.596         252.709 
       0.597222         725.333         238.587 
       0.612804         706.098         225.602 
       0.628434         678.065         213.498 
       0.644267         660.726         202.182 
       0.660051         653.668         191.753 
       0.675724          642.03         182.123 
       0.691403         618.773         173.146 
       0.707174         603.662         164.724 
       0.722871         600.219         156.895 
        0.73838         582.936         149.659 
       0.754018         572.601         142.825 
       0.769845         563.568         136.343 
        0.78569         550.903         130.258 
       0.801365         534.364         124.605 
       0.817031         528.362         119.292 
       0.832809         519.218         114.258 
       0.848511         510.632         109.537 
       0.864097         501.445         105.117 
       0.879701         502.717         100.938 
       0.895507         483.012         96.9381 
       0.911279         477.917          93.164 
        0.92691         470.129         89.6231 
       0.942635         463.523         86.2475 
       0.958396         451.903         83.0393 
       0.974128         444.242          80.001 
       0.989692         434.089         77.1452 
        1.00528         427.912         74.4253 
        1.02113         420.601         71.7944 
        1.03692         414.644          69.301 
        1.05264         409.595         66.9379 
        1.06832         399.818         64.6891 
        1.08405         398.502         62.5381 
        1.09979         388.845          60.484 
        1.11537         380.225         58.5428 
        1.13105         375.518         56.6757 
        1.14679         368.871          54.883 
        1.16256         366.638         53.1647 
        1.17828         360.996         51.5259 
        1.19395           352.4          49.962 
         1.2097         347.663         48.4552 
        1.22537         343.132         47.0181 
          1.241         336.098         45.6438 
        1.25666          332.76         44.3212 
        1.27241         329.422          43.045 
        1.28819         320.557         41.8171 
        1.30392         319.628         40.6408 
        1.31957         312.456         39.5151 
        1.33529         307.775          38.428 
        1.35108         307.014         37.3777 
        1.36674         298.948         36.3743 
         1.3824         293.831         35.4087 
        1.39811         290.164         34.4751 
        1.41389         285.441         33.5717 
        1.42964         281.094         32.7022 
        1.44531         276.843         31.8679 
        1.46101         271.472          31.061 
        1.47667         269.747         30.2845 
        1.49229         266.105         29.5367 
        1.50793         260.974         28.8134 
        1.52367         256.826         28.1097 
        1.53953         253.826         27.4249 
        1.55526         249.473         26.7684 
        1.57092         247.395         26.1361 
        1.58662         242.272         25.5228 
        1.60235         238.828         24.9281 
        1.61809         236.996          24.352 
        1.63369         232.446         23.7993 
        1.64941         229.517         23.2599 
        1.66519         226.091         22.7352 
        1.68085           222.1         22.2305 
        1.69652         219.419          21.741 
        1.71228         216.064         21.2635 
        1.72806         213.504            20.8 
        1.74368         210.613          20.355 
        1.75933         208.756         19.9222 
        1.77505         205.462         19.4999 
        1.79081         202.671         19.0892 
         1.8065         201.553          18.692 
        1.82218          196.11         18.3065 
        1.83797         194.579         17.9293 
        1.85367         191.844         17.5648 
        1.86928         188.484         17.2127 
        1.88497         186.605         16.8683 
        1.90073         185.011          16.532 
        1.91647         181.951         16.2053 
        1.93218         178.789         15.8881 
        1.94787         176.215         15.5798 
        1.96363          175.24         15.2785 
        1.97935         172.806         14.9859 
        1.99499         170.543         14.7025 
        2.01064         166.906         14.4261 
         2.0264         166.197         14.1551 
        2.04216         163.091         13.8911 
        2.05781         161.189         13.6356 
        2.07353         160.084         13.3856 
        2.08928         158.175         13.1413 
        2.10499         155.381         12.9038 
        2.12065         153.841         12.6729 
        2.13633         151.606         12.4474 
        2.15211         149.629          12.226 
        2.16785         148.204         12.0106 
        2.18349         146.306         11.8017 
        2.19916         144.637         11.5974 
        2.21489         142.135         11.3972 
        2.23063          140.49         11.2016 
         2.2463         138.755         11.0115 
        2.26194         137.545         10.8263 
        2.27765         135.381         10.6444 
        2.29341         134.151         10.4662 
        2.30914         132.149         10.2925 
        2.32486         130.875         10.1228 
        2.34061         128.561         9.95663 
        2.35635         127.433         9.79437 
        2.37203         126.022         9.63628 
        2.38768         124.777         9.48201 
        2.40339         122.867         9.33057 
        2.41914         121.003         9.18208 
        2.43483         119.822         9.03735 
         2.4505         119.043         8.89598 
        2.46622         116.737         8.75716 
        2.48195         115.663         8.62129 
        2.49759         113.779         8.48903 
        2.51328         112.723          8.3592 
        2.52906         111.713         8.23127 
        2.54479          110.11         8.10649 
        2.56049         108.808         7.98455 
        2.57618          107.56         7.86522 
        2.59189         106.842         7.74815 
        2.60758         105.235         7.63364 
        2.62325         103.852          7.5216 
        2.63898         102.467         7.41141 
        2.65468         101.597         7.30366 
        2.67044         100.693         7.19759 
        2.68618         99.1937         7.09388 
        2.70184         98.2994         6.99262 
        2.71755         96.9934         6.89309 
        2.73329         95.5997         6.79534 
        2.74897          94.741         6.69981 
        2.76462         94.1992         6.60633 
        2.78034         93.0979         6.51424 
        2.79607         91.6271         6.42382 
        2.81179         90.7715         6.33521 
        2.82749         90.0805         6.24838 
        2.84321         88.6039         6.16308 
        2.85893         87.5285         6.07939 
        2.87462         86.8034          5.9974 
        2.89033         85.8141         5.91686 
        2.90605         84.8016         5.83772 
        2.92176         84.1268         5.76006 
        2.93747         83.1605         5.68386 
        2.95318          82.001         5.60903 
        2.96891         81.6465          5.5355 
        2.98456         80.1214         5.46363 
        3.00023         79.4821         5.39292 
        3.01596         79.0412         5.32324 
        3.03164         77.7829         5.25499 
        3.04738         77.4113         5.18775 
         3.0631         76.3901          5.1217 
        3.07883         75.5726         5.05679 
        3.09456         74.5994         4.99303 
        3.11026         74.1995         4.93046 
        3.12596         73.1258         4.86897 
        3.14163         72.5393         4.80867 
        3.15734         71.5443         4.74925 
        3.17308         71.0651         4.69069 
        3.18879         70.2831         4.63328 
        3.20447         69.7485         4.57691 
         3.2202         68.6146         4.52131 
         3.2359         68.1811         4.46673 
        3.25157         67.4568         4.41318 
        3.26729         66.5865         4.36034 
        3.28304         65.8976         4.30827 
        3.29877         65.3794         4.25712 
        3.31446         64.5661          4.2069 
        3.33014         64.0463         4.15754 
        3.34585         63.2804          4.1089 
        3.36158         62.7943         4.06097 
        3.37727         62.1356         4.01394 
        3.39294         61.4404         3.96771 
        3.40867         61.0545         3.92204 
        3.42439         60.1209         3.87711 
        3.44008         59.5915         3.83297 
        3.45578         59.1406         3.78949 
        3.47153         58.5784         3.74658 
        3.48724         57.8917         3.70442 
        3.50292         57.4804           3.663 
        3.51859         56.8488         3.62223 
        3.53431         56.2405         3.58196 
        3.55007          55.537          3.5422 
        3.56577         55.0318         3.50321 
        3.58146         54.5847         3.46481 
        3.59719         54.1371          3.4269 
        3.61292         53.5432         3.38958 
        3.62859         53.1331         3.35294 
        3.64429         52.6326         3.31678 
        3.66003         52.0058         3.28105 
        3.67578         51.4984         3.24585 
        3.69146         51.0943          3.2113 
        3.70712         50.5455         3.17732 
        3.72284         50.0017          3.1437 
        3.73853         49.7188         3.11062 
        3.75422         49.2772         3.07801 
        3.76993         48.7903         3.04584 
        3.78564         48.2979         3.01415 
        3.80137         47.7404         2.98285 
        3.81707         47.3325         2.95206 
        3.83279          46.923         2.92168 
        3.84853         46.5209         2.89168 
        3.86424          46.088         2.86216 
        3.87992         45.5998         2.83309 
        3.89561         45.3384         2.80443 
        3.91134         44.7713          2.7761 
        3.92704         44.5014          2.7482 
        3.94273         44.0711         2.72071 
        3.95845         43.5394         2.69354 
        3.97418         43.1797         2.66674 
        3.98988         42.8412         2.64034 
        4.00554         42.4096         2.61437 
        4.02125         41.9717         2.58868 
        4.03698         41.7044         2.56329 
        4.05268         41.3167          2.5383 
        4.06839         40.9439         2.51362 
         4.0841         40.6161         2.48928 
        4.09983         40.3321         2.46522 
        4.11555         39.9852          2.4415 
        4.13124          39.409         2.41815 
        4.14693         39.1712         2.39508 
        4.16266         38.8723         2.37227 
        4.17839         38.3924         2.34976 
        4.19408         38.1907          2.3276 
        4.20977         37.7602         2.30571 
        4.22551         37.4488         2.28405 
        4.24123         37.1248          2.2627 
        4.25691         36.7749         2.24167 
        4.27259         36.4635          2.2209 
        4.28831         36.2137         2.20036 
        4.30404         35.9382         2.18006 
        4.31974         35.5057         2.16005 
        4.33543         35.1561         2.14031 
        4.35116         34.9361         2.12077 
        4.36688         34.5861         2.10147 
        4.38255         34.3453         2.08249 
        4.39825         34.1255         2.06371 
        4.41398         33.8728         2.04512 
         4.4297         33.4632         2.02677 
        4.44541         33.2874         2.00866 
        4.46111         33.0032         1.99078 
        4.47683          32.752          1.9731 
        4.49251         32.4252         1.95568 
        4.50819         32.1404         1.93846 
         4.5239         31.8145         1.92144 
        4.53962         31.5821         1.90459 
        4.55535         31.3146         1.88794 
        4.57106         31.0296         1.87151 
        4.58678         30.8401         1.85528 
         4.6025         30.5566         1.83923 
        4.61821         30.3595         1.82337 
        4.63391         30.0503         1.80772 
         4.6496         29.8724         1.79227 
        4.66532            29.6         1.77696 
        4.68103         29.2653         1.76185 
        4.69673          29.115         1.74692 
        4.71241         28.8241         1.73218 
        4.72811         28.5938         1.71759 
        4.74384         28.4125         1.70315 
        4.75955          28.242         1.68889 
        4.77525         27.9734         1.67481 
        4.79096         27.7598         1.66087 
        4.80669         27.5252         1.64708 
         4.8224         27.3153         1.63346 
        4.83809         27.0624         1.62001 
        4.85379         26.9047         1.60671 
         4.8695         26.6322         1.59354 
        4.88521         26.4446         1.58053 
        4.90093          26.237         1.56765 
        4.91663         26.0579         1.55494 
        4.93234         25.8537         1.54235 
        4.94807         25.6166         1.52989 
        4.96377         25.4182          1.5176 
        4.97943         25.2505         1.50546 
        4.99514         25.0902         1.49343 
        5.01086         24.9009         1.48151 
        5.02654         24.6707         1.46976 
        5.04227          24.435          1.4581 
          5.058         24.2718         1.44656 
        5.07371         24.1093         1.43517 
        5.08942          23.931          1.4239 
        5.10513         23.6928         1.41275 
        5.12084         23.5055         1.40172 
        5.13656         23.3343          1.3908 
        5.15225         23.2063         1.38002 
        5.16796         22.9637         1.36933 
        5.18369         22.8156         1.35875 
         5.1994         22.6183          1.3483 
        5.21509         22.4445         1.33797 
        5.23079         22.3068         1.32774 
        5.24649          22.127         1.31762 
        5.26217         21.9604         1.30761 
        5.27788         21.7992         1.29769 
        5.29359         21.6183         1.28787 
        5.30933         21.4137         1.27814 
        5.32504         21.3177         1.26853 
        5.34073         21.1405         1.25903 
        5.35646         20.9551          1.2496 
        5.37218         20.8073         1.24027 
        5.38789         20.6933         1.23105 
        5.40357         20.5115         1.22193 
        5.41929         20.3736         1.21289 
        5.43502         20.1845         1.20394 
         5.4507         20.0992         1.19509 
        5.46639         19.9232         1.18634 
        5.48212         19.8024         1.17765 
        5.49786         19.6441         1.16904 
        5.51353         19.4746         1.16056 
        5.52921          19.332         1.15215 
        5.54495         19.2328          1.1438 
        5.56066          19.025         1.13555 
        5.57637         18.8915         1.12737 
        5.59207         18.7887         1.11929 
        5.60778         18.6638         1.11128 
        5.62346          18.483         1.10336 
        5.63916         18.3626         1.09551 
        5.65487          18.236         1.08773 
         5.6706         18.1092         1.08002 
        5.68633         17.9809         1.07238 
        5.70203         17.8347         1.06483 
        5.71773         17.7544         1.05735 
        5.73344         17.6195         1.04994 
        5.74916         17.4751         1.04259 
        5.76486         17.3678         1.03533 
        5.78054         17.2047         1.02815 
        5.79626         17.1539         1.02101 
          5.812         16.9691         1.01393 
         5.8277         16.8352         1.00695 
        5.84339         16.7562         1.00002 
        5.85911         16.6252        0.993153 
        5.87484         16.4911        0.986348 
        5.89053         16.3855        0.979621 
        5.90623          16.292        0.972953 
        5.92195         16.1363        0.966335 
        5.93767         16.0451        0.959783 
        5.95336         15.9462        0.953302 
        5.96905         15.8361        0.946883 
        5.98476         15.7401        0.940515 
        6.00048          15.616        0.934202 
        6.01617         15.4854        0.927957 
        6.03185         15.3975        0.921775 
        6.04756         15.2941        0.915636 
        6.06331          15.208        0.909539 
        6.07903          15.065         0.90351 
        6.09473          14.983        0.897541 
        6.11044         14.8942        0.891622 
        6.12616         14.7883        0.885756 
        6.14186         14.6815        0.879949 
        6.15755         14.5746        0.874194 
        6.17326          14.521        0.868486 
        6.18898         14.4012        0.862827 
        6.20467         14.2847        0.857228 
        6.22036         14.1777        0.851679 
         6.2361         14.0826        0.846164 
         6.2518         13.9892        0.840707 
        6.26748         13.9137         0.83531 
        6.28319         13.8199        0.829945 
        6.29893         13.7143        0.824623 
        6.31463         13.6294        0.819357 
        6.33033         13.5453        0.814138 
        6.34604          13.453        0.808961 
        6.36177          13.383        0.803824 
        6.37747         13.2684        0.798741 
