# k  (h/Mpc)    Pcb(k)  (Mpc/h)^3    Pcb_linear(k) (Mpc/h)^3   ShotnoiseSubtracted = true
      0.0200456         14408.9           14635 
      0.0350414           10938         10639.1 
      0.0492313         7630.73         7730.18 
      0.0637834         6165.84         6426.03 
      0.0800726         4851.88         5100.18 
       0.096163         3833.61         3700.62 
       0.111083         3118.24         2951.71 
       0.126058         2590.58         2615.82 
       0.142273         2244.57         2216.17 
       0.158546         1843.79         1750.31 
        0.17375         1622.09         1474.64 
       0.188953         1512.81         1335.25 
       0.204907          1294.9         1181.42 
       0.220756         1163.26         999.557 
        0.23588         1035.59         869.528 
         0.2514         928.712         789.957 
       0.267535         901.183         714.775 
       0.283568         790.948         630.336 
       0.299022         755.177         561.597 
       0.314451         771.515         513.261 
       0.330372         665.042          470.86 
       0.346141         614.804         427.377 
       0.361624         588.553         388.427 
       0.377134         555.419         357.414 
       0.392932         536.313         330.708 
       0.408854         510.807         304.849 
       0.424564         495.425         280.984 
       0.440253         450.702         260.505 
       0.455999         431.751         242.697 
       0.471626         436.725         226.332 
        0.48727         413.038         211.024 
       0.502856         382.538         197.271 
       0.518488         382.195         185.001 
       0.534347           356.8         173.593 
       0.550082         344.194         163.075 
       0.565732         342.201         153.452 
       0.581496          329.17         144.639 
       0.597222           319.7         136.556 
       0.612804         311.672         129.124 
       0.628434         299.551         122.197 
       0.644267         287.333          115.72 
       0.660051         283.153         109.751 
       0.675724          279.24         104.239 
       0.691403         272.061         99.1011 
       0.707174         261.983         94.2805 
       0.722871         258.027         89.7998 
        0.73838         255.325         85.6581 
       0.754018         243.894         81.7465 
       0.769845         243.268         78.0366 
        0.78569         237.304         74.5537 
       0.801365         230.785         71.3182 
       0.817031         226.514         68.2776 
       0.832809          222.72         65.3959 
       0.848511         217.021         62.6942 
       0.864097         211.964         60.1644 
       0.879701         210.944         57.7725 
       0.895507          205.82          55.483 
       0.911279         199.881         53.3229 
        0.92691         197.497         51.2962 
       0.942635         195.766         49.3642 
       0.958396         191.107          47.528 
       0.974128         187.729         45.7889 
       0.989692         181.823         44.1544 
        1.00528         181.095         42.5977 
        1.02113         177.628         41.0919 
        1.03692         174.248         39.6647 
        1.05264         171.655         38.3122 
        1.06832         170.599         37.0251 
        1.08405         166.059          35.794 
        1.09979         165.063         34.6183 
        1.11537         161.685         33.5073 
        1.13105         159.314         32.4386 
        1.14679         157.314         31.4126 
        1.16256         154.785         30.4291 
        1.17828         153.024         29.4911 
        1.19395         149.147          28.596 
         1.2097         148.333         27.7336 
        1.22537         146.667          26.911 
          1.241         143.659         26.1244 
        1.25666         141.257         25.3675 
        1.27241         138.007          24.637 
        1.28819         137.076         23.9342 
        1.30392         134.947         23.2609 
        1.31957         132.212         22.6166 
        1.33529          130.88         21.9945 
        1.35108         129.195         21.3933 
        1.36674         126.919          20.819 
         1.3824         126.487         20.2663 
        1.39811         123.269          19.732 
        1.41389         122.121         19.2149 
        1.42964         119.835         18.7173 
        1.44531          118.78         18.2398 
        1.46101         116.396         17.7779 
        1.47667         116.239         17.3335 
        1.49229         114.625         16.9055 
        1.50793         112.413         16.4915 
        1.52367         110.989         16.0887 
        1.53953         109.528         15.6968 
        1.55526         108.511          15.321 
        1.57092         107.311         14.9591 
        1.58662          105.63         14.6081 
        1.60235         103.916         14.2677 
        1.61809         103.284          13.938 
        1.63369         101.289         13.6217 
        1.64941         101.102         13.3129 
        1.66519         99.2094         13.0126 
        1.68085         97.6677         12.7238 
        1.69652         96.4126         12.4436 
        1.71228          95.517         12.1703 
        1.72806          94.403          11.905 
        1.74368         92.7285         11.6503 
        1.75933         92.1176         11.4026 
        1.77505         90.8254         11.1609 
        1.79081         89.4776         10.9258 
         1.8065         88.4739         10.6985 
        1.82218          87.318         10.4778 
        1.83797         86.9384         10.2619 
        1.85367         85.0049         10.0533 
        1.86928         84.5861         9.85175 
        1.88497         83.5407         9.65463 
        1.90073         82.6974         9.46219 
        1.91647          81.164         9.27517 
        1.93218         80.2256         9.09361 
        1.94787          79.274         8.91718 
        1.96363         78.3977         8.74475 
        1.97935         77.7493         8.57723 
        1.99499         76.8513         8.41506 
        2.01064         75.4602         8.25685 
         2.0264         74.6131         8.10172 
        2.04216         73.6199         7.95066 
        2.05781         72.9775          7.8044 
        2.07353         72.0664         7.66131 
        2.08928         71.1238          7.5215 
        2.10499         70.2268         7.38556 
        2.12065         69.7953         7.25339 
        2.13633         69.0218         7.12434 
        2.15211         67.8798         6.99761 
        2.16785         66.7706         6.87431 
        2.18349         66.2024         6.75476 
        2.19916         65.4664         6.63781 
        2.21489         64.5342         6.52324 
        2.23063          63.802          6.4113 
         2.2463         63.2852         6.30249 
        2.26194         62.5964         6.19649 
        2.27765         61.7633         6.09237 
        2.29341         61.0392         5.99039 
        2.30914           60.29         5.89095 
        2.32486         59.2753         5.79382 
        2.34061         58.9649         5.69873 
        2.35635         58.1809         5.60585 
        2.37203         57.5142         5.51537 
        2.38768         56.9645         5.42708 
        2.40339         56.2938          5.3404 
        2.41914         55.5039         5.25541 
        2.43483          55.064         5.17257 
         2.4505         54.4794         5.09166 
        2.46622         53.9251          5.0122 
        2.48195         53.1983         4.93444 
        2.49759         52.6458         4.85874 
        2.51328         52.2041         4.78443 
        2.52906         51.4491         4.71121 
        2.54479         50.9084         4.63979 
        2.56049          50.121         4.56999 
        2.57618         49.6928         4.50169 
        2.59189         49.3393         4.43469 
        2.60758         48.5169         4.36915 
        2.62325         48.1292         4.30502 
        2.63898         47.6358         4.24195 
        2.65468         47.1489         4.18028 
        2.67044         46.5989         4.11958 
        2.68618         46.2395         4.06021 
        2.70184         45.4112         4.00226 
        2.71755          45.073         3.94529 
        2.73329         44.6194         3.88935 
        2.74897         44.3218         3.83467 
        2.76462         43.6924         3.78116 
        2.78034          43.214         3.72846 
        2.79607         42.6736          3.6767 
        2.81179         42.3345         3.62599 
        2.82749         41.8608         3.57629 
        2.84321         41.5305         3.52747 
        2.85893         40.9309         3.47957 
        2.87462         40.3349         3.43264 
        2.89033         40.1053         3.38654 
        2.90605         39.5614         3.34124 
        2.92176         39.2933          3.2968 
        2.93747         38.9206         3.25319 
        2.95318         38.5836         3.21035 
        2.96891         38.0315         3.16827 
        2.98456         37.7691         3.12713 
        3.00023         37.3171         3.08666 
        3.01596         36.9901         3.04678 
        3.03164          36.568         3.00772 
        3.04738         36.1162         2.96923 
         3.0631         35.9818         2.93143 
        3.07883         35.5209         2.89428 
        3.09456         35.0304         2.85778 
        3.11026         34.6498         2.82197 
        3.12596         34.3478         2.78678 
        3.14163          34.011         2.75226 
        3.15734         33.7517         2.71825 
        3.17308         33.4406         2.68474 
        3.18879          32.968         2.65188 
        3.20447         32.5927         2.61962 
         3.2202         32.3752         2.58779 
         3.2359         32.1147         2.55655 
        3.25157         31.7815          2.5259 
        3.26729          31.437         2.49566 
        3.28304         31.1878         2.46586 
        3.29877         30.6869         2.43658 
        3.31446         30.5096         2.40784 
        3.33014          30.121         2.37959 
        3.34585         29.8751         2.35175 
        3.36158         29.5791         2.32431 
        3.37727         29.3275          2.2974 
        3.39294         29.0518         2.27094 
        3.40867         28.7746          2.2448 
        3.42439         28.5398         2.21908 
        3.44008         28.2398         2.19382 
        3.45578         27.9899         2.16893 
        3.47153         27.6986         2.14437 
        3.48724         27.4283         2.12024 
        3.50292         27.2216         2.09653 
        3.51859         26.8581          2.0732 
        3.53431         26.6136         2.05015 
        3.55007         26.3523          2.0274 
        3.56577          26.051         2.00508 
        3.58146         25.8701          1.9831 
        3.59719         25.6695          1.9614 
        3.61292         25.4563         1.94004 
        3.62859          25.191         1.91907 
        3.64429         24.8822         1.89838 
        3.66003         24.7596         1.87792 
        3.67578         24.4697         1.85778 
        3.69146         24.3627           1.838 
        3.70712         24.0664         1.81855 
        3.72284         23.9074         1.79931 
        3.73853          23.674         1.78038 
        3.75422         23.3657         1.76172 
        3.76993         23.1626          1.7433 
        3.78564         22.9788         1.72516 
        3.80137         22.7066         1.70725 
        3.81707         22.5559         1.68962 
        3.83279          22.367         1.67224 
        3.84853         22.1772         1.65507 
        3.86424         21.9184         1.63817 
        3.87992         21.7178         1.62153 
        3.89561         21.6176         1.60513 
        3.91134          21.328         1.58892 
        3.92704         21.1949         1.57295 
        3.94273         20.9482         1.55721 
        3.95845         20.8392         1.54166 
        3.97418         20.5953         1.52632 
        3.98988         20.4035         1.51121 
        4.00554         20.2689         1.49635 
        4.02125         20.0633         1.48164 
        4.03698         19.8997         1.46711 
        4.05268         19.7254         1.45281 
        4.06839         19.5851         1.43868 
         4.0841         19.4066         1.42475 
        4.09983         19.1671         1.41098 
        4.11555         18.9865          1.3974 
        4.13124         18.9286         1.38404 
        4.14693         18.7006         1.37084 
        4.16266         18.5815         1.35778 
        4.17839         18.4085          1.3449 
        4.19408         18.1999         1.33221 
        4.20977         18.1043         1.31969 
        4.22551         17.9026         1.30729 
        4.24123         17.7641         1.29507 
        4.25691         17.5854         1.28303 
        4.27259         17.4731         1.27115 
        4.28831           17.32         1.25939 
        4.30404         17.1812         1.24776 
        4.31974         17.0693         1.23632 
        4.33543         16.9235         1.22502 
        4.35116         16.7252         1.21383 
        4.36688         16.6119         1.20279 
        4.38255         16.4389         1.19193 
        4.39825          16.308         1.18117 
        4.41398         16.1981         1.17053 
         4.4297         16.0879         1.16003 
        4.44541         15.8858         1.14966 
        4.46111         15.7659         1.13943 
        4.47683         15.6402         1.12931 
        4.49251         15.5759         1.11934 
        4.50819         15.4137         1.10949 
         4.5239         15.2605         1.09974 
        4.53962         15.1658          1.0901 
        4.55535         14.9941         1.08057 
        4.57106         14.9259         1.07117 
        4.58678         14.7624         1.06188 
         4.6025         14.6443         1.05269 
        4.61821         14.5521         1.04362 
        4.63391         14.4077         1.03466 
         4.6496         14.2704         1.02581 
        4.66532         14.1684         1.01705 
        4.68103         14.0843          1.0084 
        4.69673         13.9643         0.99986 
        4.71241         13.8483        0.991424 
        4.72811         13.7223        0.983072 
        4.74384         13.6193        0.974805 
        4.75955         13.5217        0.966646 
        4.77525         13.3914        0.958585 
        4.79096         13.2635        0.950605 
        4.80669         13.1939        0.942713 
         4.8224         13.0645        0.934919 
        4.83809         12.9914        0.927222 
        4.85379          12.881        0.919606 
         4.8695         12.7651         0.91207 
        4.88521         12.6667        0.904621 
        4.90093         12.5981        0.897255 
        4.91663         12.5098        0.889977 
        4.93234         12.4218        0.882772 
        4.94807         12.3208        0.875641 
        4.96377          12.223        0.868603 
        4.97943         12.1303        0.861657 
        4.99514         12.0233        0.854769 
        5.01086         11.9221        0.847951 
        5.02654         11.8364        0.841225 
        5.04227          11.722        0.834552 
          5.058         11.6444        0.827948 
        5.07371         11.5601        0.821428 
        5.08942          11.471        0.814978 
        5.10513         11.3947        0.808596 
        5.12084         11.2847        0.802279 
        5.13656         11.2318        0.796031 
        5.15225         11.1496         0.78986 
        5.16796         11.0569        0.783745 
        5.18369         10.9484        0.777689 
         5.1994         10.8933        0.771707 
        5.21509         10.8138        0.765794 
        5.23079         10.7111        0.759936 
        5.24649         10.6345        0.754144 
        5.26217         10.5484        0.748416 
        5.27788         10.4821        0.742739 
        5.29359         10.4046         0.73712 
        5.30933         10.3231        0.731551 
        5.32504         10.2559        0.726049 
        5.34073         10.1882         0.72061 
        5.35646         10.1282        0.715215 
        5.37218         10.0117        0.709875 
        5.38789         9.95234        0.704597 
        5.40357         9.89605         0.69938 
        5.41929         9.84572        0.694203 
        5.43502         9.75148        0.689078 
         5.4507          9.6547        0.684017 
        5.46639         9.61096        0.679007 
        5.48212         9.53052        0.674035 
        5.49786         9.46446        0.669106 
        5.51353         9.39421        0.664251 
        5.52921          9.3277         0.65944 
        5.54495         9.25712        0.654662 
        5.56066         9.20173        0.649936 
        5.57637         9.11353        0.645258 
        5.59207         9.07783         0.64063 
        5.60778         8.99244        0.636045 
        5.62346         8.93183        0.631512 
        5.63916         8.87766        0.627019 
        5.65487         8.81574        0.622567 
         5.6706         8.72914        0.618152 
        5.68633         8.67733         0.61378 
        5.70203         8.61827        0.609458 
        5.71773         8.56029        0.605179 
        5.73344           8.525        0.600938 
        5.74916         8.44822        0.596734 
        5.76486         8.39388        0.592576 
        5.78054         8.33153        0.588464 
        5.79626         8.24716         0.58438 
          5.812         8.21447         0.58033 
         5.8277         8.17074         0.57633 
        5.84339         8.09705        0.572368 
        5.85911          8.0509        0.568436 
        5.87484         7.99012        0.564541 
        5.89053          7.9328        0.560691 
        5.90623         7.87317        0.556874 
        5.92195         7.83797        0.553086 
        5.93767         7.76916        0.549336 
        5.95336         7.73826        0.545627 
        5.96905         7.67226        0.541953 
        5.98476         7.62154        0.538308 
        6.00048         7.56114        0.534695 
        6.01617         7.50913         0.53112 
        6.03185         7.46656        0.527583 
        6.04756         7.42118        0.524068 
        6.06331         7.36873        0.520579 
        6.07903         7.32644        0.517128 
        6.09473         7.26119        0.513712 
        6.11044         7.23723        0.510324 
        6.12616         7.18051        0.506967 
        6.14186         7.13196        0.503643 
        6.15755         7.07622        0.500349 
        6.17326         7.04683        0.497082 
        6.18898         6.98886        0.493843 
        6.20467         6.92804        0.490638 
        6.22036         6.90318        0.487462 
         6.2361         6.84306        0.484306 
         6.2518         6.80922        0.481183 
        6.26748         6.75021        0.478094 
        6.28319         6.72104        0.475023 
        6.29893         6.67695        0.471977 
        6.31463         6.62646        0.468963 
        6.33033         6.59756        0.465976 
        6.34604         6.54867        0.463013 
        6.36177         6.49609        0.460073 
        6.37747         6.45475        0.457163 
