# k  (h/Mpc)    Pcb(k)  (Mpc/h)^3    Pcb_linear(k) (Mpc/h)^3   ShotnoiseSubtracted = true
      0.0200456         4805.33         4883.12 
      0.0350414            3490         3549.86 
      0.0492313         2576.83         2579.26 
      0.0637834         2178.01         2144.12 
      0.0800726         1726.19         1701.73 
       0.096163         1220.65         1234.76 
       0.111083         968.179         984.872 
       0.126058         883.335         872.797 
       0.142273         758.945         739.452 
       0.158546         614.273         584.012 
        0.17375         499.917         492.029 
       0.188953         470.946         445.521 
       0.204907         438.115         394.196 
       0.220756         366.418         333.513 
        0.23588          320.04         290.128 
         0.2514         283.485         263.578 
       0.267535         266.374         238.493 
       0.283568         240.178         210.319 
       0.299022         220.015         187.383 
       0.314451          199.61         171.255 
       0.330372         185.386         157.108 
       0.346141         167.181         142.599 
       0.361624           157.6         129.603 
       0.377134         148.278         119.255 
       0.392932         133.785         110.345 
       0.408854         128.576         101.716 
       0.424564         122.851         93.7534 
       0.440253         114.346         86.9203 
       0.455999         107.633         80.9786 
       0.471626         99.7324         75.5183 
        0.48727         96.4384         70.4104 
       0.502856         91.5853         65.8218 
       0.518488         88.2386         61.7275 
       0.534347         84.6774         57.9213 
       0.550082         77.9523         54.4118 
       0.565732         74.1343         51.2011 
       0.581496         71.6988         48.2605 
       0.597222         69.3512         45.5636 
       0.612804         65.4379         43.0837 
       0.628434         63.7685         40.7723 
       0.644267         61.8525         38.6113 
       0.660051         59.5723         36.6196 
       0.675724         56.9042         34.7805 
       0.691403         55.1964         33.0662 
       0.707174         53.5087         31.4578 
       0.722871         51.6941         29.9627 
        0.73838         50.3085         28.5808 
       0.754018         47.9218         27.2756 
       0.769845         46.8238         26.0378 
        0.78569         45.5093         24.8757 
       0.801365          43.885         23.7961 
       0.817031         42.8576         22.7816 
       0.832809         42.1102         21.8201 
       0.848511         39.8193         20.9186 
       0.864097         39.0629         20.0745 
       0.879701         38.3598         19.2764 
       0.895507          37.735         18.5125 
       0.911279         36.5507         17.7918 
        0.92691          35.672         17.1156 
       0.942635         34.3815         16.4709 
       0.958396         34.0623         15.8582 
       0.974128         33.0429          15.278 
       0.989692         32.6066         14.7326 
        1.00528         31.8699         14.2132 
        1.02113         30.7596         13.7108 
        1.03692         30.1697         13.2346 
        1.05264         29.7093         12.7833 
        1.06832         28.9668         12.3538 
        1.08405         28.4207         11.9431 
        1.09979         27.8501         11.5508 
        1.11537          27.138         11.1801 
        1.13105         26.9573         10.8235 
        1.14679         26.5738         10.4812 
        1.16256         25.6874          10.153 
        1.17828         25.4464         9.84004 
        1.19395         24.8098         9.54137 
         1.2097         24.6339         9.25362 
        1.22537         24.1205         8.97917 
          1.241         23.6602         8.71672 
        1.25666          23.048         8.46414 
        1.27241         22.7663         8.22042 
        1.28819         22.2227         7.98591 
        1.30392         22.0502         7.76127 
        1.31957         21.8469          7.5463 
        1.33529         21.5504          7.3387 
        1.35108         21.0406         7.13812 
        1.36674         20.7219         6.94649 
         1.3824         20.3138          6.7621 
        1.39811         20.0801          6.5838 
        1.41389         19.8886         6.41127 
        1.42964         19.5432         6.24523 
        1.44531          19.425          6.0859 
        1.46101         18.8907          5.9318 
        1.47667         18.6763         5.78352 
        1.49229         18.4875         5.64071 
        1.50793         18.2359         5.50257 
        1.52367          18.015         5.36819 
        1.53953         17.8003          5.2374 
        1.55526         17.4813         5.11202 
        1.57092         17.2236         4.99128 
        1.58662          17.057         4.87416 
        1.60235          16.825         4.76058 
        1.61809         16.6285         4.65057 
        1.63369         16.4186         4.54502 
        1.64941         16.1038           4.442 
        1.66519         16.0393         4.34181 
        1.68085          15.787         4.24542 
        1.69652         15.5854         4.15194 
        1.71228         15.4211         4.06076 
        1.72806         15.2844         3.97224 
        1.74368         15.0543         3.88725 
        1.75933          14.891         3.80459 
        1.77505         14.7106         3.72395 
        1.79081         14.5029         3.64551 
         1.8065         14.4333         3.56966 
        1.82218         14.1612         3.49605 
        1.83797         14.0049         3.42401 
        1.85367         13.8566          3.3544 
        1.86928         13.7999         3.28715 
        1.88497         13.5448         3.22138 
        1.90073         13.5249         3.15717 
        1.91647         13.3332         3.09477 
        1.93218          13.215         3.03419 
        1.94787         13.0694         2.97532 
        1.96363         12.9663         2.91778 
        1.97935         12.7872         2.86189 
        1.99499          12.612         2.80778 
        2.01064         12.5014         2.75499 
         2.0264         12.3826         2.70323 
        2.04216         12.2455         2.65283 
        2.05781         12.0643         2.60403 
        2.07353         11.9976         2.55628 
        2.08928         11.8738         2.50963 
        2.10499         11.7849         2.46428 
        2.12065         11.6017         2.42018 
        2.13633         11.5908         2.37712 
        2.15211         11.4051         2.33483 
        2.16785         11.3784         2.29369 
        2.18349         11.2862          2.2538 
        2.19916         11.1214         2.21478 
        2.21489         11.0346         2.17655 
        2.23063         10.9095          2.1392 
         2.2463         10.7894          2.1029 
        2.26194          10.699         2.06753 
        2.27765         10.6602         2.03279 
        2.29341         10.5265         1.99876 
        2.30914          10.364         1.96558 
        2.32486         10.3354         1.93317 
        2.34061         10.2342         1.90144 
        2.35635         10.1507         1.87046 
        2.37203         10.0805         1.84027 
        2.38768         9.91717         1.81081 
        2.40339         9.84361         1.78188 
        2.41914         9.74229         1.75353 
        2.43483         9.71882         1.72589 
         2.4505         9.63128         1.69889 
        2.46622         9.52509         1.67238 
        2.48195         9.46562         1.64643 
        2.49759         9.37159         1.62117 
        2.51328         9.27091         1.59638 
        2.52906         9.21302         1.57195 
        2.54479         9.12143         1.54812 
        2.56049         9.08272         1.52483 
        2.57618         9.01577         1.50204 
        2.59189         8.88449         1.47968 
        2.60758          8.8692         1.45782 
        2.62325         8.79605         1.43642 
        2.63898         8.65543         1.41538 
        2.65468         8.57641          1.3948 
        2.67044         8.54098         1.37454 
        2.68618         8.45424         1.35474 
        2.70184         8.40706          1.3354 
        2.71755         8.31933         1.31639 
        2.73329         8.24029         1.29772 
        2.74897         8.19258         1.27948 
        2.76462         8.16849         1.26163 
        2.78034          8.0413         1.24404 
        2.79607         8.00157         1.22677 
        2.81179           7.946         1.20985 
        2.82749         7.89965         1.19327 
        2.84321         7.85005         1.17698 
        2.85893         7.77624           1.161 
        2.87462          7.6967         1.14534 
        2.89033         7.62427         1.12996 
        2.90605         7.57662         1.11484 
        2.92176         7.51896         1.10001 
        2.93747          7.4632         1.08546 
        2.95318         7.44396         1.07117 
        2.96891         7.35461         1.05713 
        2.98456         7.28357          1.0434 
        3.00023         7.22894          1.0299 
        3.01596         7.19923         1.01659 
        3.03164         7.14988         1.00356 
        3.04738         7.11588        0.990718 
         3.0631         7.02296        0.978104 
        3.07883         6.97684        0.965709 
        3.09456         6.92627        0.953532 
        3.11026         6.87745        0.941583 
        3.12596         6.83621        0.929839 
        3.14163         6.76424        0.918324 
        3.15734         6.72527        0.906976 
        3.17308         6.67662        0.895793 
        3.18879         6.61145        0.884829 
        3.20447         6.58843        0.874065 
         3.2202         6.50946        0.863446 
         3.2359         6.49488        0.853023 
        3.25157         6.43729        0.842796 
        3.26729         6.41112        0.832706 
        3.28304         6.33761        0.822762 
        3.29877         6.28847        0.812993 
        3.31446         6.25496        0.803403 
        3.33014         6.21316        0.793977 
        3.34585         6.18243        0.784688 
        3.36158         6.12379        0.775533 
        3.37727          6.0932        0.766553 
        3.39294          6.0595        0.757724 
        3.40867         5.98665        0.749002 
        3.42439         5.96514        0.740422 
        3.44008         5.91086        0.731992 
        3.45578         5.87075        0.723688 
        3.47153         5.83773        0.715495 
        3.48724         5.80371        0.707442 
        3.50292         5.76428        0.699532 
        3.51859         5.71652        0.691747 
        3.53431         5.66355        0.684057 
        3.55007         5.64647        0.676464 
        3.56577         5.61061        0.669016 
        3.58146         5.58131        0.661684 
        3.59719         5.52478        0.654445 
        3.61292         5.50564        0.647316 
        3.62859         5.45007        0.640321 
        3.64429         5.42115        0.633415 
        3.66003         5.37586         0.62659 
        3.67578         5.34736        0.619868 
        3.69146         5.28495         0.61327 
        3.70712         5.27946         0.60678 
        3.72284         5.23212         0.60036 
        3.73853         5.20406        0.594044 
        3.75422         5.16446        0.587817 
        3.76993         5.14179        0.581673 
        3.78564         5.08925        0.575619 
        3.80137         5.06935        0.569642 
        3.81707         5.03403        0.563762 
        3.83279         4.99924        0.557961 
        3.84853         4.95095        0.552231 
        3.86424         4.91842        0.546594 
        3.87992         4.89689        0.541043 
        3.89561         4.87487        0.535569 
        3.91134         4.82439         0.53016 
        3.92704         4.78876        0.524831 
        3.94273         4.76906        0.519581 
        3.95845         4.74592        0.514393 
        3.97418         4.70859        0.509275 
        3.98988         4.68119        0.504234 
        4.00554         4.64946        0.499274 
        4.02125         4.62438        0.494367 
        4.03698         4.58248        0.489518 
        4.05268         4.54881        0.484745 
        4.06839         4.53189        0.480032 
         4.0841         4.48744        0.475384 
        4.09983         4.45762         0.47079 
        4.11555         4.41585        0.466259 
        4.13124         4.39395          0.4618 
        4.14693         4.36067        0.457395 
        4.16266         4.33669        0.453038 
        4.17839         4.31061         0.44874 
        4.19408         4.26567        0.444508 
        4.20977         4.24787        0.440328 
        4.22551         4.21372        0.436192 
        4.24123          4.1984        0.432113 
        4.25691         4.17337        0.428098 
        4.27259         4.15462        0.424132 
        4.28831         4.11926        0.420209 
        4.30404         4.08947        0.416331 
        4.31974         4.06262        0.412511 
        4.33543          4.0204         0.40874 
        4.35116         4.00324        0.405008 
        4.36688         3.97284        0.401324 
        4.38255          3.9464          0.3977 
        4.39825         3.93935        0.394112 
        4.41398         3.91648        0.390561 
         4.4297         3.88622        0.387058 
        4.44541         3.85731        0.383598 
        4.46111         3.84144        0.380184 
        4.47683         3.79845        0.376808 
        4.49251         3.78485         0.37348 
        4.50819         3.76445        0.370194 
         4.5239         3.74296        0.366942 
        4.53962         3.72614        0.363725 
        4.55535         3.69928        0.360545 
        4.57106         3.67149        0.357408 
        4.58678         3.64856        0.354307 
         4.6025         3.63227        0.351242 
        4.61821         3.60909        0.348214 
        4.63391         3.58655        0.345226 
         4.6496          3.5717        0.342274 
        4.66532         3.53431        0.339352 
        4.68103         3.50839        0.336465 
        4.69673         3.49622        0.333614 
        4.71241         3.46474          0.3308 
        4.72811          3.4509        0.328013 
        4.74384         3.43887        0.325255 
        4.75955          3.4111        0.322532 
        4.77525         3.38855        0.319843 
        4.79096         3.36397         0.31718 
        4.80669         3.34916        0.314547 
         4.8224         3.33523        0.311946 
        4.83809         3.31162        0.309378 
        4.85379         3.29167        0.306837 
         4.8695         3.26994        0.304322 
        4.88521          3.2499        0.301837 
        4.90093         3.23952        0.299379 
        4.91663         3.21723        0.296951 
        4.93234         3.19677        0.294547 
        4.94807         3.18426        0.292168 
        4.96377         3.15379        0.289819 
        4.97943         3.13803        0.287502 
        4.99514         3.11335        0.285203 
        5.01086         3.10241        0.282928 
        5.02654         3.08121        0.280684 
        5.04227         3.07064        0.278458 
          5.058         3.06044        0.276254 
        5.07371         3.03134        0.274079 
        5.08942         3.02005        0.271927 
        5.10513         3.00096        0.269797 
        5.12084         2.98262         0.26769 
        5.13656         2.96771        0.265605 
        5.15225         2.94868        0.263546 
        5.16796          2.9283        0.261505 
        5.18369         2.91811        0.259485 
         5.1994         2.90038        0.257489 
        5.21509         2.88164        0.255516 
        5.23079          2.8654        0.253561 
        5.24649         2.85425        0.251629 
        5.26217         2.83723        0.249717 
        5.27788         2.81518        0.247823 
        5.29359         2.80248        0.245948 
        5.30933         2.78773         0.24409 
        5.32504         2.76667        0.242255 
        5.34073         2.75331         0.24044 
        5.35646         2.74249         0.23864 
        5.37218         2.71973        0.236858 
        5.38789         2.71198        0.235097 
        5.40357         2.69842        0.233356 
        5.41929         2.67838        0.231629 
        5.43502         2.66643        0.229919 
         5.4507         2.65085         0.22823 
        5.46639         2.63566        0.226558 
        5.48212         2.62389        0.224899 
        5.49786         2.60688        0.223255 
        5.51353         2.59009        0.221635 
        5.52921         2.58556         0.22003 
        5.54495          2.5672        0.218435 
        5.56066         2.55266        0.216859 
        5.57637          2.5382        0.215298 
        5.59207          2.5247        0.213753 
        5.60778         2.51534        0.212224 
        5.62346         2.49532        0.210711 
        5.63916         2.48481        0.209212 
        5.65487         2.47404        0.207726 
         5.6706         2.45845        0.206254 
        5.68633         2.44735        0.204794 
        5.70203          2.4306        0.203352 
        5.71773         2.41846        0.201925 
        5.73344          2.4029         0.20051 
        5.74916         2.39604        0.199107 
        5.76486         2.38545         0.19772 
        5.78054         2.37233        0.196348 
        5.79626         2.36579        0.194985 
          5.812         2.34351        0.193634 
         5.8277         2.33418        0.192299 
        5.84339         2.32102        0.190977 
        5.85911          2.3123        0.189665 
        5.87484         2.29827        0.188366 
        5.89053         2.28735        0.187081 
        5.90623         2.27628        0.185807 
        5.92195         2.26449        0.184544 
        5.93767         2.25365        0.183292 
        5.95336         2.23925        0.182055 
        5.96905         2.22957        0.180829 
        5.98476         2.21615        0.179613 
        6.00048         2.20383        0.178407 
        6.01617         2.19973        0.177214 
        6.03185         2.18276        0.176034 
        6.04756         2.17114        0.174861 
        6.06331         2.16126        0.173697 
        6.07903          2.1501        0.172546 
        6.09473         2.14396        0.171406 
        6.11044          2.1287        0.170275 
        6.12616         2.11815        0.169155 
        6.14186         2.11334        0.168046 
        6.15755         2.10349        0.166947 
        6.17326         2.09035        0.165857 
        6.18898         2.08364        0.164776 
        6.20467         2.06985        0.163707 
        6.22036         2.05957        0.162647 
         6.2361         2.04782        0.161594 
         6.2518         2.04049        0.160552 
        6.26748         2.02886        0.159521 
        6.28319          2.0197        0.158497 
        6.29893         2.01236         0.15748 
        6.31463         2.00436        0.156475 
        6.33033         1.98899        0.155478 
        6.34604         1.98399        0.154489 
        6.36177          1.9746        0.153508 
        6.37747         1.96669        0.152538 
