# k  (h/Mpc)    Pcb(k)  (Mpc/h)^3    Pcb_linear(k) (Mpc/h)^3   ShotnoiseSubtracted = true
      0.0200456         15829.1         16083.3 
      0.0350414         12029.1           11692 
      0.0492313         8371.27         8495.19 
      0.0637834         6760.11         7061.98 
      0.0800726         5316.58         5604.92 
       0.096163         4215.84         4066.86 
       0.111083         3430.56         3243.83 
       0.126058         2845.95         2874.69 
       0.142273          2471.6          2435.5 
       0.158546         2030.34         1923.53 
        0.17375         1791.53         1620.57 
       0.188953         1676.41         1467.39 
       0.204907         1436.58         1298.34 
       0.220756         1292.03         1098.48 
        0.23588         1151.16          955.58 
         0.2514         1033.75         868.135 
       0.267535         1002.79         785.513 
       0.283568         882.426         692.717 
       0.299022         842.745         617.175 
       0.314451         865.529         564.056 
       0.330372         748.431         517.458 
       0.346141         690.884         469.672 
       0.361624         661.962         426.868 
       0.377134         627.215         392.786 
       0.392932         604.254         363.437 
       0.408854         575.998         335.019 
       0.424564         559.763         308.791 
       0.440253         511.039         286.285 
       0.455999         489.428         266.716 
       0.471626         496.655         248.731 
        0.48727         469.247         231.908 
       0.502856         437.288         216.794 
       0.518488         434.845         203.309 
       0.534347         407.727         190.773 
       0.550082         392.017         179.214 
       0.565732         389.249         168.639 
       0.581496         376.948         158.953 
       0.597222         366.145         150.071 
       0.612804         357.345         141.903 
       0.628434         343.221          134.29 
       0.644267         329.946         127.172 
       0.660051         325.394         120.612 
       0.675724         320.221         114.555 
       0.691403          312.47         108.909 
       0.707174         300.653         103.611 
       0.722871         296.009         98.6868 
        0.73838         292.481         94.1353 
       0.754018         280.728         89.8365 
       0.769845         279.553         85.7594 
        0.78569         273.035         81.9319 
       0.801365         265.265         78.3762 
       0.817031         261.248         75.0347 
       0.832809         256.698         71.8677 
       0.848511         250.222         68.8987 
       0.864097         244.238         66.1185 
       0.879701         243.055         63.4899 
       0.895507         236.752         60.9738 
       0.911279         230.348         58.5999 
        0.92691         227.962         56.3727 
       0.942635         226.178         54.2495 
       0.958396         220.241         52.2316 
       0.974128         216.913         50.3204 
       0.989692         209.487         48.5242 
        1.00528         209.011         46.8133 
        1.02113           205.6         45.1585 
        1.03692         201.024         43.5901 
        1.05264         197.838         42.1038 
        1.06832         197.421         40.6893 
        1.08405         191.727         39.3363 
        1.09979         190.491         38.0443 
        1.11537         186.638         36.8233 
        1.13105          183.51         35.6489 
        1.14679          181.67         34.5213 
        1.16256         178.914         33.4405 
        1.17828         176.911         32.4097 
        1.19395         172.243          31.426 
         1.2097          171.43         30.4782 
        1.22537         170.052         29.5743 
          1.241         165.736         28.7098 
        1.25666         163.674         27.8779 
        1.27241         160.007         27.0752 
        1.28819         158.667         26.3028 
        1.30392         156.435         25.5629 
        1.31957         152.784         24.8549 
        1.33529         151.134         24.1711 
        1.35108           149.4         23.5105 
        1.36674         146.791         22.8793 
         1.3824         145.972          22.272 
        1.39811         142.711         21.6848 
        1.41389         140.742         21.1165 
        1.42964         138.669         20.5696 
        1.44531         137.307         20.0448 
        1.46101           134.4         19.5373 
        1.47667          134.15         19.0489 
        1.49229         131.969         18.5785 
        1.50793         129.541         18.1236 
        1.52367         127.969         17.6809 
        1.53953         125.813         17.2502 
        1.55526         125.225         16.8372 
        1.57092         123.478         16.4395 
        1.58662         121.136         16.0538 
        1.60235         119.611         15.6797 
        1.61809         118.452         15.3174 
        1.63369         116.437         14.9697 
        1.64941         115.892         14.6304 
        1.66519          113.93         14.3004 
        1.68085          111.91          13.983 
        1.69652         110.927         13.6751 
        1.71228         109.937         13.3747 
        1.72806         108.514         13.0832 
        1.74368         106.708         12.8033 
        1.75933         105.918          12.531 
        1.77505         103.989         12.2654 
        1.79081         102.757          12.007 
         1.8065         100.996         11.7572 
        1.82218         99.9734         11.5148 
        1.83797         99.6034         11.2775 
        1.85367         97.5109         11.0482 
        1.86928         97.1306         10.8267 
        1.88497         95.3971         10.6101 
        1.90073         94.6797         10.3986 
        1.91647         92.9928         10.1931 
        1.93218         91.8688         9.99356 
        1.94787          90.643         9.79967 
        1.96363         89.8004         9.61017 
        1.97935         88.9468         9.42608 
        1.99499          88.088         9.24785 
        2.01064         86.0563         9.07399 
         2.0264         85.5393          8.9035 
        2.04216         83.9173         8.73749 
        2.05781         83.4592         8.57676 
        2.07353         82.3987         8.41951 
        2.08928         81.2241         8.26587 
        2.10499         80.1822         8.11647 
        2.12065         79.8034         7.97122 
        2.13633         78.7548          7.8294 
        2.15211         77.4345         7.69012 
        2.16785         76.3072         7.55462 
        2.18349         75.4272         7.42324 
        2.19916         74.6191         7.29472 
        2.21489         73.6643         7.16881 
        2.23063         72.7365         7.04579 
         2.2463         72.2793         6.92622 
        2.26194         71.2625         6.80972 
        2.27765          70.419          6.6953 
        2.29341         69.6086         6.58322 
        2.30914         68.7907         6.47394 
        2.32486         67.2916         6.36721 
        2.34061         66.9947          6.2627 
        2.35635         66.2565         6.16063 
        2.37203         65.2541          6.0612 
        2.38768         64.6699         5.96416 
        2.40339         63.9222         5.86891 
        2.41914         62.9217         5.77551 
        2.43483         62.5605         5.68447 
         2.4505         61.6501         5.59555 
        2.46622         61.2263         5.50823 
        2.48195         60.2924         5.42277 
        2.49759         59.6643         5.33958 
        2.51328         59.0336         5.25792 
        2.52906         58.3403         5.17745 
        2.54479         57.6322         5.09897 
        2.56049         56.9103         5.02226 
        2.57618         56.2008          4.9472 
        2.59189         55.8029         4.87357 
        2.60758         55.0206         4.80154 
        2.62325         54.5039         4.73107 
        2.63898          53.904         4.66176 
        2.65468         53.3432         4.59398 
        2.67044         52.7785         4.52727 
        2.68618         52.2919         4.46203 
        2.70184         51.5072         4.39834 
        2.71755         50.8553         4.33574 
        2.73329         50.5328         4.27425 
        2.74897         50.1016         4.21417 
        2.76462          49.576         4.15537 
        2.78034         48.9136         4.09744 
        2.79607         48.1647         4.04057 
        2.81179          47.736         3.98483 
        2.82749          47.356         3.93022 
        2.84321         46.9746         3.87656 
        2.85893           46.37         3.82392 
        2.87462         45.6416         3.77235 
        2.89033         45.2724         3.72169 
        2.90605         44.7035         3.67191 
        2.92176         44.3722         3.62307 
        2.93747         43.8597         3.57514 
        2.95318         43.4327         3.52807 
        2.96891         42.9297         3.48182 
        2.98456         42.5819         3.43661 
        3.00023         41.9223         3.39213 
        3.01596         41.6733         3.34831 
        3.03164         41.1501         3.30538 
        3.04738         40.7413         3.26308 
         3.0631         40.4871         3.22154 
        3.07883         39.9767         3.18071 
        3.09456         39.5251          3.1406 
        3.11026         39.0636         3.10125 
        3.12596         38.6863         3.06257 
        3.14163         38.3269         3.02464 
        3.15734         37.9769         2.98727 
        3.17308         37.6894         2.95043 
        3.18879         37.2508         2.91432 
        3.20447         36.7188         2.87887 
         3.2202         36.3997         2.84389 
         3.2359          36.152         2.80956 
        3.25157         35.6425         2.77588 
        3.26729         35.4241         2.74265 
        3.28304         35.0932         2.70989 
        3.29877         34.5636         2.67772 
        3.31446         34.3582         2.64613 
        3.33014         33.8906         2.61509 
        3.34585         33.5361         2.58449 
        3.36158          33.251         2.55434 
        3.37727         32.9123         2.52476 
        3.39294          32.607         2.49568 
        3.40867         32.3579         2.46695 
        3.42439         31.9957         2.43869 
        3.44008         31.7293         2.41093 
        3.45578         31.3915         2.38358 
        3.47153          31.197         2.35659 
        3.48724         30.7864         2.33007 
        3.50292         30.5623         2.30402 
        3.51859         30.2371         2.27838 
        3.53431          29.965         2.25305 
        3.55007         29.5177         2.22804 
        3.56577         29.3435         2.20351 
        3.58146         29.0548         2.17936 
        3.59719          28.787         2.15551 
        3.61292         28.6064         2.13204 
        3.62859         28.2259         2.10899 
        3.64429         27.9562         2.08625 
        3.66003         27.7194         2.06377 
        3.67578          27.491         2.04163 
        3.69146          27.308          2.0199 
        3.70712         26.9066         1.99852 
        3.72284         26.7432         1.97738 
        3.73853         26.5261         1.95658 
        3.75422         26.2871         1.93606 
        3.76993         25.9878         1.91583 
        3.78564         25.7329         1.89589 
        3.80137         25.5571          1.8762 
        3.81707         25.2791         1.85684 
        3.83279         25.0022         1.83773 
        3.84853         24.8519         1.81886 
        3.86424         24.4593         1.80029 
        3.87992         24.3019         1.78201 
        3.89561         24.1834         1.76398 
        3.91134         23.8684         1.74616 
        3.92704         23.6533         1.72861 
        3.94273         23.3972         1.71132 
        3.95845         23.2588         1.69423 
        3.97418         23.0744         1.67738 
        3.98988         22.8446         1.66077 
        4.00554         22.5782         1.64444 
        4.02125         22.4082         1.62827 
        4.03698         22.2266          1.6123 
        4.05268         22.0242         1.59658 
        4.06839         21.8228         1.58106 
         4.0841          21.652         1.56575 
        4.09983         21.4026         1.55062 
        4.11555          21.263          1.5357 
        4.13124          21.131         1.52101 
        4.14693         20.9459          1.5065 
        4.16266          20.713         1.49215 
        4.17839         20.5623         1.47799 
        4.19408         20.3151         1.46405 
        4.20977         20.2031         1.45029 
        4.22551         20.0444         1.43666 
        4.24123          19.833         1.42323 
        4.25691          19.681         1.41001 
        4.27259         19.5281         1.39694 
        4.28831         19.3449         1.38402 
        4.30404         19.1367         1.37125 
        4.31974         19.0187         1.35867 
        4.33543         18.8914         1.34625 
        4.35116         18.7109         1.33396 
        4.36688         18.5484         1.32182 
        4.38255         18.3496         1.30988 
        4.39825         18.2562         1.29807 
        4.41398         18.0509         1.28637 
         4.4297         17.9672         1.27483 
        4.44541         17.7667         1.26344 
        4.46111         17.5438         1.25219 
        4.47683         17.4492         1.24108 
        4.49251         17.3549         1.23012 
        4.50819          17.193         1.21929 
         4.5239         17.0597         1.20858 
        4.53962         16.9634         1.19798 
        4.55535         16.7742         1.18751 
        4.57106         16.6617         1.17718 
        4.58678         16.4832         1.16696 
         4.6025         16.3131         1.15687 
        4.61821         16.2575          1.1469 
        4.63391         16.0808         1.13705 
         4.6496         15.9551         1.12733 
        4.66532         15.8302         1.11771 
        4.68103          15.712          1.1082 
        4.69673         15.5622         1.09881 
        4.71241         15.4877         1.08954 
        4.72811         15.3267         1.08036 
        4.74384         15.1812         1.07128 
        4.75955         15.0851         1.06231 
        4.77525         14.9671         1.05345 
        4.79096         14.8426         1.04468 
        4.80669         14.7526         1.03601 
         4.8224         14.6322         1.02744 
        4.83809         14.4845         1.01898 
        4.85379         14.3794         1.01061 
         4.8695         14.2877         1.00233 
        4.88521         14.1484        0.994147 
        4.90093         14.0158        0.986051 
        4.91663         13.9539        0.978053 
        4.93234         13.8296        0.970135 
        4.94807         13.7277        0.962299 
        4.96377         13.6259        0.954564 
        4.97943         13.5283        0.946931 
        4.99514         13.4088        0.939361 
        5.01086         13.3204        0.931868 
        5.02654         13.2066        0.924476 
        5.04227         13.1114        0.917143 
          5.058         12.9907        0.909885 
        5.07371         12.9124         0.90272 
        5.08942          12.797        0.895632 
        5.10513         12.7203        0.888618 
        5.12084         12.6199        0.881676 
        5.13656         12.5287         0.87481 
        5.15225         12.4277        0.868029 
        5.16796         12.3278        0.861308 
        5.18369         12.2296        0.854652 
         5.1994         12.1473        0.848079 
        5.21509         12.0538        0.841581 
        5.23079         11.9592        0.835143 
        5.24649         11.8823        0.828777 
        5.26217         11.7854        0.822482 
        5.27788         11.6884        0.816244 
        5.29359         11.6027        0.810069 
        5.30933         11.5277        0.803949 
        5.32504         11.4325        0.797902 
        5.34073         11.3737        0.791925 
        5.35646         11.3019        0.785996 
        5.37218         11.1856        0.780127 
        5.38789         11.1064        0.774327 
        5.40357         11.0223        0.768593 
        5.41929         10.9494        0.762905 
        5.43502         10.8758        0.757273 
         5.4507         10.7926        0.751711 
        5.46639         10.6895        0.746204 
        5.48212         10.6371         0.74074 
        5.49786         10.5724        0.735324 
        5.51353         10.4912        0.729989 
        5.52921         10.4233        0.724701 
        5.54495         10.3259         0.71945 
        5.56066          10.251        0.714257 
        5.57637         10.2048        0.709116 
        5.59207         10.1228         0.70403 
        5.60778         10.0463        0.698991 
        5.62346         9.96756        0.694009 
        5.63916         9.90846        0.689071 
        5.65487         9.84219        0.684179 
         5.6706         9.76114        0.679328 
        5.68633         9.67856        0.674522 
        5.70203         9.62228        0.669773 
        5.71773         9.54603         0.66507 
        5.73344         9.49955         0.66041 
        5.74916         9.44204         0.65579 
        5.76486         9.36975         0.65122 
        5.78054         9.30085        0.646701 
        5.79626         9.23451        0.642213 
          5.812         9.15965        0.637762 
         5.8277         9.10807        0.633367 
        5.84339         9.01748        0.629012 
        5.85911         8.98321        0.624691 
        5.87484         8.90448        0.620411 
        5.89053           8.849        0.616179 
        5.90623         8.80485        0.611985 
        5.92195         8.73755        0.607823 
        5.93767         8.66999        0.603701 
        5.95336         8.60259        0.599625 
        5.96905         8.56562        0.595587 
        5.98476         8.48894        0.591581 
        6.00048         8.43655        0.587611 
        6.01617         8.38232        0.583683 
        6.03185          8.3383        0.579795 
        6.04756         8.27714        0.575933 
        6.06331         8.22005        0.572098 
        6.07903         8.15946        0.568306 
        6.09473          8.1026        0.564551 
        6.11044         8.05295        0.560828 
        6.12616         8.00831        0.557138 
        6.14186          7.9616        0.553486 
        6.15755         7.90935        0.549866 
        6.17326         7.83091        0.546276 
        6.18898         7.79983        0.542716 
        6.20467         7.74565        0.539194 
        6.22036         7.68109        0.535704 
         6.2361         7.64365        0.532235 
         6.2518         7.58909        0.528803 
        6.26748         7.54092        0.525408 
        6.28319         7.50405        0.522034 
        6.29893         7.44654        0.518686 
        6.31463         7.38733        0.515374 
        6.33033         7.34293        0.512091 
        6.34604          7.2908        0.508835 
        6.36177         7.25995        0.505603 
        6.37747          7.2048        0.502406 
