# k  (h/Mpc)    Pcb(k)  (Mpc/h)^3    Pcb_linear(k) (Mpc/h)^3   ShotnoiseSubtracted = true
      0.0200456         20552.6         21031.3 
      0.0350414         14608.9           15289 
      0.0492313           10886         11108.7 
      0.0637834         9414.87         9234.56 
      0.0800726         7430.24         7329.25 
       0.096163         5152.88         5318.01 
       0.111083         4137.55         4241.78 
       0.126058         3811.39         3759.08 
       0.142273         3300.03         3184.77 
       0.158546         2877.43          2515.3 
        0.17375         2300.97         2119.14 
       0.188953         2248.55         1918.83 
       0.204907         2113.02         1697.77 
       0.220756         1828.99         1436.42 
        0.23588         1632.18         1249.56 
         0.2514         1420.21         1135.21 
       0.267535         1418.35         1027.17 
       0.283568         1285.76         905.828 
       0.299022         1215.08         807.046 
       0.314451          1157.9         737.585 
       0.330372         1063.14         676.652 
       0.346141         1011.53         614.165 
       0.361624         971.998         558.192 
       0.377134         904.216         513.624 
       0.392932         868.708         475.246 
       0.408854         850.065         438.085 
       0.424564          787.66          403.79 
       0.440253         774.182          374.36 
       0.455999         742.991         348.769 
       0.471626         714.529         325.252 
        0.48727         685.175         303.253 
       0.502856         666.434          283.49 
       0.518488         659.043         265.856 
       0.534347         617.083         249.463 
       0.550082         599.718         234.348 
       0.565732         597.819          220.52 
       0.581496         563.564         207.854 
       0.597222         553.416         196.239 
       0.612804         541.849         185.559 
       0.628434         525.724         175.603 
       0.644267         511.906         166.296 
       0.660051         495.892         157.718 
       0.675724         491.331         149.797 
       0.691403         474.784         142.414 
       0.707174         459.047         135.486 
       0.722871          453.85         129.047 
        0.73838         445.895         123.096 
       0.754018         434.798         117.474 
       0.769845         426.047         112.143 
        0.78569         419.491         107.138 
       0.801365         408.388         102.488 
       0.817031         396.137         98.1188 
       0.832809         393.401         93.9775 
       0.848511          384.18          90.095 
       0.864097          373.68         86.4596 
       0.879701         368.722         83.0223 
       0.895507         365.205         79.7321 
       0.911279         353.797          76.628 
        0.92691         349.399         73.7155 
       0.942635         341.152         70.9391 
       0.958396         333.085         68.3004 
       0.974128          327.75         65.8013 
       0.989692         324.825         63.4524 
        1.00528         316.943         61.2153 
        1.02113         315.049         59.0513 
        1.03692         305.984         57.0005 
        1.05264         303.982         55.0568 
        1.06832         295.898         53.2072 
        1.08405         291.527         51.4379 
        1.09979         286.041         49.7484 
        1.11537         281.402         48.1518 
        1.13105         275.854         46.6161 
        1.14679         270.754         45.1416 
        1.16256         265.827         43.7283 
        1.17828         263.958         42.3804 
        1.19395         257.409          41.094 
         1.2097         255.413         39.8547 
        1.22537         249.546         38.6727 
          1.241         248.161         37.5423 
        1.25666         242.814         36.4545 
        1.27241         239.587         35.4048 
        1.28819         236.127         34.3948 
        1.30392         230.351         33.4273 
        1.31957         230.647         32.5014 
        1.33529         225.552         31.6073 
        1.35108         220.334         30.7434 
        1.36674         218.502         29.9181 
         1.3824         216.915         29.1239 
        1.39811         213.507          28.356 
        1.41389         210.089         27.6129 
        1.42964         207.805         26.8978 
        1.44531          204.61         26.2116 
        1.46101         201.559         25.5479 
        1.47667          198.29         24.9092 
        1.49229         196.574         24.2941 
        1.50793         192.027         23.6992 
        1.52367         190.632         23.1204 
        1.53953         187.814         22.5571 
        1.55526         183.374         22.0171 
        1.57092         182.456         21.4971 
        1.58662         180.201         20.9927 
        1.60235         176.849         20.5035 
        1.61809         175.718         20.0297 
        1.63369         172.216         19.5751 
        1.64941         168.674         19.1314 
        1.66519         168.049         18.6999 
        1.68085         165.719         18.2848 
        1.69652         163.159         17.8821 
        1.71228         159.984         17.4894 
        1.72806         158.382         17.1082 
        1.74368         156.526         16.7421 
        1.75933         153.625         16.3861 
        1.77505         152.476         16.0388 
        1.79081         151.048         15.7009 
         1.8065         148.816         15.3743 
        1.82218         146.518         15.0572 
        1.83797          145.41          14.747 
        1.85367         143.165         14.4472 
        1.86928         140.662         14.1575 
        1.88497         138.929         13.8743 
        1.90073         137.704         13.5977 
        1.91647         135.882         13.3289 
        1.93218         134.276          13.068 
        1.94787         132.148         12.8145 
        1.96363         130.167         12.5667 
        1.97935         128.948          12.326 
        1.99499         126.732         12.0929 
        2.01064         125.582         11.8656 
         2.0264         123.804         11.6426 
        2.04216         122.261         11.4255 
        2.05781           121.2         11.2154 
        2.07353         119.932         11.0097 
        2.08928         117.432         10.8088 
        2.10499         116.315         10.6135 
        2.12065         114.465         10.4235 
        2.13633          113.86         10.2381 
        2.15211         111.422          10.056 
        2.16785         109.914         9.87877 
        2.18349         109.129         9.70697 
        2.19916          107.87          9.5389 
        2.21489         106.457         9.37426 
        2.23063         104.669          9.2134 
         2.2463          103.61         9.05704 
        2.26194         102.161          8.9047 
        2.27765         101.216         8.75509 
        2.29341         100.156         8.60852 
        2.30914         98.9457         8.46562 
        2.32486         97.8075         8.32605 
        2.34061         96.5524         8.18939 
        2.35635         95.2448         8.05593 
        2.37203         93.9726          7.9259 
        2.38768         93.0011         7.79901 
        2.40339         92.0369         7.67445 
        2.41914         90.8124         7.55232 
        2.43483         89.8998         7.43328 
         2.4505         88.7129           7.317 
        2.46622         87.5723         7.20282 
        2.48195          86.456         7.09106 
        2.49759         85.2538         6.98228 
        2.51328         84.9655         6.87549 
        2.52906          83.329         6.77027 
        2.54479         82.4932         6.66764 
        2.56049         81.6066         6.56734 
        2.57618          80.689         6.46919 
        2.59189         79.7399          6.3729 
        2.60758         79.0512         6.27872 
        2.62325         77.9145         6.18656 
        2.63898         76.7586         6.09593 
        2.65468         76.0698          6.0073 
        2.67044         75.2224         5.92006 
        2.68618         74.3997         5.83476 
        2.70184         73.9519         5.75147 
        2.71755          72.856         5.66961 
        2.73329         72.1059         5.58921 
        2.74897         71.1943         5.51064 
        2.76462         70.3105         5.43375 
        2.78034         69.7463           5.358 
        2.79607         68.5139         5.28363 
        2.81179         67.9335         5.21075 
        2.82749         67.1173         5.13933 
        2.84321         66.6538         5.06917 
        2.85893         65.8763         5.00034 
        2.87462         64.9171          4.9329 
        2.89033         64.2268         4.86665 
        2.90605          63.572         4.80156 
        2.92176         62.9049         4.73769 
        2.93747         62.5088         4.67501 
        2.95318          61.615         4.61346 
        2.96891         61.1925         4.55299 
        2.98456         60.5115         4.49387 
        3.00023         59.5918         4.43571 
        3.01596         59.1434          4.3784 
        3.03164         58.3143         4.32227 
        3.04738         57.9031         4.26695 
         3.0631         57.2186         4.21263 
        3.07883         56.6344         4.15924 
        3.09456         56.0062          4.1068 
        3.11026         55.3084         4.05533 
        3.12596         54.7602         4.00475 
        3.14163         54.2368         3.95516 
        3.15734         53.8026         3.90629 
        3.17308         52.9875         3.85812 
        3.18879         52.7421          3.8109 
        3.20447         51.8414         3.76454 
         3.2202         51.5693          3.7188 
         3.2359         50.9268         3.67391 
        3.25157         50.3747         3.62987 
        3.26729         49.9629         3.58641 
        3.28304         49.4614         3.54358 
        3.29877         48.9719          3.5015 
        3.31446         48.2497          3.4602 
        3.33014         47.9514         3.41961 
        3.34585          47.638          3.3796 
        3.36158         47.0786         3.34017 
        3.37727         46.6806         3.30149 
        3.39294         46.1869         3.26346 
        3.40867          45.678          3.2259 
        3.42439         45.0869         3.18894 
        3.44008         44.7902         3.15264 
        3.45578         44.2628         3.11688 
        3.47153         43.8489         3.08159 
        3.48724         43.4211          3.0469 
        3.50292         43.1002         3.01284 
        3.51859         42.6027         2.97931 
        3.53431         42.2292         2.94618 
        3.55007         41.6597         2.91348 
        3.56577         41.4105         2.88141 
        3.58146          40.921         2.84983 
        3.59719         40.6087         2.81865 
        3.61292         40.0657         2.78795 
        3.62859         39.8188         2.75782 
        3.64429         39.5059         2.72808 
        3.66003         39.0834         2.69868 
        3.67578         38.5742         2.66973 
        3.69146         38.2954         2.64131 
        3.70712         37.9607         2.61336 
        3.72284         37.4801         2.58571 
        3.73853         37.2025         2.55851 
        3.75422         36.7422         2.53169 
        3.76993         36.5958         2.50523 
        3.78564         36.2471         2.47915 
        3.80137         35.8657         2.45341 
        3.81707         35.5236         2.42809 
        3.83279         35.3634          2.4031 
        3.84853         34.9026         2.37842 
        3.86424         34.5117         2.35414 
        3.87992         34.3524         2.33023 
        3.89561         33.9732         2.30666 
        3.91134         33.5201         2.28336 
        3.92704         33.4056         2.26041 
        3.94273         32.9609          2.2378 
        3.95845         32.8106         2.21546 
        3.97418          32.459         2.19341 
        3.98988         32.1893          2.1717 
        4.00554           31.85         2.15034 
        4.02125         31.5176          2.1292 
        4.03698         31.2936         2.10832 
        4.05268         31.0309         2.08776 
        4.06839         30.7107         2.06747 
         4.0841         30.5043         2.04745 
        4.09983         30.2043         2.02766 
        4.11555         29.9258         2.00815 
        4.13124         29.7228         1.98894 
        4.14693         29.3693         1.96997 
        4.16266          29.139          1.9512 
        4.17839         28.8504         1.93269 
        4.19408         28.6181         1.91446 
        4.20977         28.3742         1.89646 
        4.22551         28.1028         1.87865 
        4.24123         27.9778         1.86108 
        4.25691          27.665         1.84379 
        4.27259         27.4485         1.82671 
        4.28831          27.171         1.80981 
        4.30404         26.9935         1.79311 
        4.31974          26.674         1.77665 
        4.33543         26.4628         1.76042 
        4.35116         26.3622         1.74434 
        4.36688         26.0482         1.72848 
        4.38255         25.7886         1.71286 
        4.39825         25.5777         1.69741 
        4.41398         25.3681         1.68212 
         4.4297         25.1827         1.66703 
        4.44541         24.9176         1.65213 
        4.46111          24.756         1.63743 
        4.47683         24.5716         1.62289 
        4.49251         24.3104         1.60855 
        4.50819         24.1248          1.5944 
         4.5239         23.9291         1.58039 
        4.53962         23.7426         1.56654 
        4.55535         23.5382         1.55284 
        4.57106         23.3462         1.53933 
        4.58678         23.1637         1.52598 
         4.6025          22.982         1.51278 
        4.61821         22.8213         1.49973 
        4.63391         22.5982         1.48686 
         4.6496         22.3991         1.47415 
        4.66532         22.2489         1.46156 
        4.68103         22.0356         1.44913 
        4.69673         21.8738         1.43685 
        4.71241         21.7324         1.42473 
        4.72811         21.5166         1.41273 
        4.74384         21.3689         1.40085 
        4.75955         21.2138         1.38912 
        4.77525          20.996         1.37754 
        4.79096         20.8688         1.36607 
        4.80669         20.6817         1.35473 
         4.8224         20.5245         1.34353 
        4.83809         20.3633         1.33247 
        4.85379         20.1116         1.32153 
         4.8695         20.0493          1.3107 
        4.88521         19.8802         1.29999 
        4.90093         19.6698         1.28941 
        4.91663         19.5086         1.27895 
        4.93234         19.4229         1.26859 
        4.94807         19.2136         1.25835 
        4.96377         19.1257         1.24823 
        4.97943         18.9929         1.23825 
        4.99514          18.803         1.22835 
        5.01086         18.6731         1.21855 
        5.02654         18.4921         1.20889 
        5.04227          18.392          1.1993 
          5.058         18.2028         1.18981 
        5.07371         18.0903         1.18044 
        5.08942         17.9556         1.17117 
        5.10513         17.8208           1.162 
        5.12084         17.6736         1.15292 
        5.13656          17.485         1.14394 
        5.15225          17.431         1.13507 
        5.16796         17.3142         1.12629 
        5.18369         17.1253         1.11758 
         5.1994           17.06         1.10899 
        5.21509         16.8563         1.10049 
        5.23079         16.7616         1.09207 
        5.24649         16.6476         1.08375 
        5.26217         16.4997         1.07552 
        5.27788         16.3693         1.06736 
        5.29359         16.2814         1.05928 
        5.30933         16.1143         1.05128 
        5.32504         16.0118         1.04337 
        5.34073         15.8989         1.03556 
        5.35646         15.8002          1.0278 
        5.37218         15.6522         1.02013 
        5.38789         15.5443         1.01255 
        5.40357         15.4305         1.00505 
        5.41929         15.3556        0.997609 
        5.43502         15.2127        0.990244 
         5.4507         15.1161        0.982972 
        5.46639         14.9935        0.975771 
        5.48212         14.8658        0.968626 
        5.49786         14.7415        0.961543 
        5.51353         14.6576        0.954567 
        5.52921         14.5776        0.947652 
        5.54495         14.4845        0.940786 
        5.56066         14.3695        0.933995 
        5.57637         14.2469        0.927272 
        5.59207          14.124        0.920621 
        5.60778          14.069        0.914033 
        5.62346         13.9587        0.907518 
        5.63916         13.8322        0.901061 
        5.65487         13.7452        0.894663 
         5.6706         13.6312         0.88832 
        5.68633         13.5521        0.882036 
        5.70203         13.4596        0.875825 
        5.71773         13.3737        0.869676 
        5.73344         13.2767        0.863582 
        5.74916         13.1778        0.857541 
        5.76486         13.0726        0.851565 
        5.78054         12.9921        0.845656 
        5.79626         12.9009        0.839786 
          5.812         12.7928        0.833967 
         5.8277         12.7035        0.828219 
        5.84339         12.6315        0.822525 
        5.85911         12.5356        0.816874 
        5.87484         12.4451        0.811277 
        5.89053         12.3524        0.805744 
        5.90623         12.2771        0.800259 
        5.92195         12.1854        0.794816 
        5.93767         12.0985        0.789427 
        5.95336         12.0141        0.784097 
        5.96905         11.9427        0.778817 
        5.98476         11.8576        0.773579 
        6.00048         11.7566        0.768387 
        6.01617         11.6968         0.76325 
        6.03185          11.616        0.758166 
        6.04756         11.5531        0.753116 
        6.06331         11.4526        0.748101 
        6.07903          11.373        0.743142 
        6.09473         11.2963        0.738233 
        6.11044         11.2254        0.733364 
        6.12616         11.1558         0.72854 
        6.14186          11.085        0.723763 
        6.15755         11.0013         0.71903 
        6.17326         10.8997        0.714335 
        6.18898         10.8659         0.70968 
        6.20467         10.7791        0.705075 
        6.22036         10.6936        0.700511 
         6.2361         10.6381        0.695975 
         6.2518           10.58        0.691486 
        6.26748         10.5009        0.687047 
        6.28319         10.4223        0.682635 
        6.29893         10.3479        0.678258 
        6.31463          10.283        0.673926 
        6.33033         10.2039        0.669634 
        6.34604         10.1656        0.665375 
        6.36177          10.077         0.66115 
        6.37747         10.0264         0.65697 
