# k  (h/Mpc)    Pcb(k)  (Mpc/h)^3    Pcb_linear(k) (Mpc/h)^3   ShotnoiseSubtracted = true
      0.0200456         12289.3         12475.3 
      0.0350414         9312.47         9069.09 
      0.0492313         6521.78         6589.43 
      0.0637834         5275.48         5477.73 
      0.0800726         4154.79         4347.54 
       0.096163         3264.07         3154.52 
       0.111083         2652.83         2516.13 
       0.126058         2209.66          2229.8 
       0.142273         1907.57         1889.13 
       0.158546         1566.36         1492.02 
        0.17375         1371.95         1257.02 
       0.188953         1272.77         1138.21 
       0.204907         1087.57         1007.08 
       0.220756         975.237         852.051 
        0.23588         866.882          741.21 
         0.2514          776.43         673.382 
       0.267535         752.874         609.295 
       0.283568         658.436         537.317 
       0.299022         627.757         478.721 
       0.314451         635.355         437.519 
       0.330372         546.198         401.374 
       0.346141         505.869         364.308 
       0.361624         483.326         331.106 
       0.377134         452.756          304.67 
       0.392932         438.771         281.905 
       0.408854         417.292         259.862 
       0.424564         403.409         239.519 
       0.440253          365.24         222.062 
       0.455999         349.611         206.882 
       0.471626          351.11         192.932 
        0.48727         332.932         179.883 
       0.502856          305.94          168.16 
       0.518488          306.96           157.7 
       0.534347         285.327         147.976 
       0.550082         276.838          139.01 
       0.565732          275.24         130.807 
       0.581496         261.291         123.294 
       0.597222         254.229         116.405 
       0.612804         247.343         110.069 
       0.628434         238.238         104.164 
       0.644267         227.791         98.6431 
       0.660051         223.919         93.5548 
       0.675724          221.31         88.8564 
       0.691403          215.34         84.4766 
       0.707174         207.814         80.3674 
       0.722871           204.6         76.5479 
        0.73838          202.72         73.0175 
       0.754018         191.984          69.683 
       0.769845         191.829         66.5206 
        0.78569         186.862         63.5518 
       0.801365         181.629         60.7937 
       0.817031         177.474         58.2018 
       0.832809         174.538         55.7453 
       0.848511         170.259         53.4423 
       0.864097         166.587         51.2859 
       0.879701         165.308         49.2469 
       0.895507         161.198         47.2953 
       0.911279         156.581          45.454 
        0.92691         154.218         43.7264 
       0.942635         152.047         42.0794 
       0.958396         149.316         40.5142 
       0.974128         146.291         39.0318 
       0.989692         142.309         37.6385 
        1.00528         141.203         36.3115 
        1.02113          137.78         35.0279 
        1.03692         136.296         33.8114 
        1.05264         134.477         32.6584 
        1.06832         131.874         31.5613 
        1.08405         129.597         30.5118 
        1.09979         128.784         29.5096 
        1.11537         125.667         28.5626 
        1.13105         124.373         27.6516 
        1.14679         122.238          26.777 
        1.16256         120.074         25.9386 
        1.17828         118.792         25.1391 
        1.19395         115.912          24.376 
         1.2097         115.161         23.6409 
        1.22537         112.962         22.9397 
          1.241         111.884         22.2692 
        1.25666         108.947         21.6239 
        1.27241         107.096         21.0013 
        1.28819          106.61         20.4022 
        1.30392         104.633         19.8283 
        1.31957         103.035         19.2791 
        1.33529         101.856         18.7487 
        1.35108         101.028         18.2363 
        1.36674         99.0358         17.7467 
         1.3824         98.6955         17.2756 
        1.39811         96.1352         16.8201 
        1.41389         95.2455         16.3793 
        1.42964         93.3735         15.9551 
        1.44531          92.668         15.5481 
        1.46101         91.3863         15.1544 
        1.47667         90.6791         14.7756 
        1.49229         89.6948         14.4107 
        1.50793         88.0098         14.0578 
        1.52367         87.2686         13.7145 
        1.53953         86.1266         13.3804 
        1.55526         84.6957         13.0601 
        1.57092         84.3489         12.7516 
        1.58662         83.1369         12.4524 
        1.60235         81.7934         12.1622 
        1.61809         80.9484         11.8811 
        1.63369         79.6464         11.6115 
        1.64941          79.668         11.3483 
        1.66519         77.8336         11.0923 
        1.68085         76.9688         10.8461 
        1.69652         75.6475         10.6073 
        1.71228         74.8607         10.3743 
        1.72806         74.4564         10.1482 
        1.74368         73.1861         9.93105 
        1.75933         72.5223         9.71986 
        1.77505         71.8768         9.51384 
        1.79081         70.5918         9.31344 
         1.8065         70.3411         9.11968 
        1.82218         68.7269         8.93161 
        1.83797         68.4123         8.74756 
        1.85367          67.332         8.56973 
        1.86928         66.7056         8.39792 
        1.88497         66.0035         8.22989 
        1.90073         65.1248         8.06584 
        1.91647         64.3234         7.90642 
        1.93218         63.6995         7.75166 
        1.94787         62.8441         7.60127 
        1.96363         62.0651         7.45428 
        1.97935         61.4143         7.31148 
        1.99499         60.7908         7.17324 
        2.01064         60.1334         7.03838 
         2.0264          59.403         6.90614 
        2.04216         58.6816         6.77737 
        2.05781         57.9736          6.6527 
        2.07353         57.2848         6.53072 
        2.08928         56.6725         6.41155 
        2.10499         56.0841         6.29566 
        2.12065         55.5518           6.183 
        2.13633         55.0683         6.07299 
        2.15211         54.2377         5.96496 
        2.16785         53.4371         5.85986 
        2.18349         52.9213         5.75795 
        2.19916         52.3006         5.65826 
        2.21489         51.9721          5.5606 
        2.23063          51.153         5.46518 
         2.2463         50.7167         5.37243 
        2.26194         50.4112         5.28206 
        2.27765          49.587         5.19332 
        2.29341         48.9219         5.10638 
        2.30914         48.3942         5.02161 
        2.32486         47.8193         4.93882 
        2.34061         47.5137         4.85776 
        2.35635         46.7388         4.77859 
        2.37203         46.3458         4.70146 
        2.38768         45.9893          4.6262 
        2.40339         45.4804         4.55231 
        2.41914         45.0143         4.47986 
        2.43483         44.2324         4.40925 
         2.4505         44.0426         4.34028 
        2.46622         43.5661         4.27255 
        2.48195          42.995         4.20626 
        2.49759          42.514         4.14173 
        2.51328         42.1797         4.07839 
        2.52906         41.6751         4.01597 
        2.54479         41.3311         3.95509 
        2.56049         40.6244         3.89559 
        2.57618         40.3864         3.83737 
        2.59189         39.9318         3.78026 
        2.60758         39.3697         3.72439 
        2.62325         39.2642         3.66972 
        2.63898         38.7077         3.61596 
        2.65468         38.3437         3.56339 
        2.67044         38.0445         3.51165 
        2.68618         37.6728         3.46104 
        2.70184         37.0587         3.41164 
        2.71755         36.8509         3.36308 
        2.73329          36.237         3.31539 
        2.74897         36.0255         3.26878 
        2.76462         35.5293         3.22317 
        2.78034         35.2911         3.17825 
        2.79607         34.8244         3.13413 
        2.81179         34.5259          3.0909 
        2.82749         34.1746         3.04853 
        2.84321         33.7432         3.00691 
        2.85893         33.4319         2.96609 
        2.87462         33.1176         2.92608 
        2.89033         32.8568         2.88678 
        2.90605         32.5153         2.84817 
        2.92176          32.304         2.81029 
        2.93747          31.955         2.77311 
        2.95318         31.5701          2.7366 
        2.96891         31.2808         2.70073 
        2.98456         30.9889         2.66566 
        3.00023         30.6055         2.63116 
        3.01596         30.3645         2.59717 
        3.03164         30.0042         2.56387 
        3.04738         29.8068         2.53106 
         3.0631         29.5508         2.49883 
        3.07883         29.1248         2.46717 
        3.09456         28.7886         2.43606 
        3.11026         28.5346         2.40553 
        3.12596         28.2536         2.37553 
        3.14163         27.9822         2.34611 
        3.15734         27.7265         2.31712 
        3.17308         27.4011         2.28855 
        3.18879         27.1813         2.26054 
        3.20447         26.9478         2.23304 
         3.2202         26.6054         2.20591 
         3.2359         26.3531         2.17928 
        3.25157         26.1941         2.15315 
        3.26729         25.9383         2.12738 
        3.28304         25.5486         2.10197 
        3.29877         25.3225         2.07701 
        3.31446         25.1094         2.05251 
        3.33014         24.9131         2.02843 
        3.34585         24.6661          2.0047 
        3.36158         24.4506         1.98131 
        3.37727         24.1598         1.95837 
        3.39294         23.9654         1.93581 
        3.40867         23.7453         1.91353 
        3.42439         23.5293         1.89161 
        3.44008         23.2699         1.87007 
        3.45578         23.1609         1.84886 
        3.47153         22.8349         1.82793 
        3.48724         22.6533         1.80735 
        3.50292         22.4392         1.78715 
        3.51859         22.2474         1.76726 
        3.53431         22.0428         1.74761 
        3.55007         21.8264         1.72821 
        3.56577         21.6606         1.70918 
        3.58146          21.434         1.69045 
        3.59719         21.2043         1.67196 
        3.61292         21.0288         1.65375 
        3.62859         20.8088         1.63587 
        3.64429         20.5769         1.61823 
        3.66003         20.5207          1.6008 
        3.67578         20.3092         1.58362 
        3.69146         20.0494         1.56677 
        3.70712         19.9263         1.55019 
        3.72284         19.7123         1.53378 
        3.73853         19.5558         1.51765 
        3.75422         19.3453         1.50174 
        3.76993         19.2066         1.48604 
        3.78564          19.041         1.47058 
        3.80137         18.8704         1.45531 
        3.81707         18.7034         1.44028 
        3.83279         18.4991         1.42546 
        3.84853         18.3333         1.41083 
        3.86424         18.1682         1.39642 
        3.87992         17.9948         1.38224 
        3.89561         17.8823         1.36826 
        3.91134         17.6667         1.35444 
        3.92704         17.5449         1.34082 
        3.94273         17.3985         1.32741 
        3.95845         17.2384         1.31416 
        3.97418         17.0598         1.30108 
        3.98988         16.9166          1.2882 
        4.00554         16.8482         1.27553 
        4.02125         16.6001         1.26299 
        4.03698         16.4274         1.25061 
        4.05268         16.3587         1.23841 
        4.06839         16.2192         1.22637 
         4.0841         16.0567          1.2145 
        4.09983         15.8852         1.20276 
        4.11555         15.7688         1.19119 
        4.13124         15.6686         1.17979 
        4.14693         15.5593         1.16854 
        4.16266         15.4162         1.15741 
        4.17839         15.2496         1.14643 
        4.19408         15.1072         1.13562 
        4.20977         15.0059         1.12494 
        4.22551         14.8682         1.11437 
        4.24123         14.7289         1.10395 
        4.25691         14.5743         1.09369 
        4.27259          14.498         1.08356 
        4.28831         14.4186         1.07354 
        4.30404         14.2504         1.06363 
        4.31974         14.1507         1.05387 
        4.33543         14.0095         1.04424 
        4.35116         13.8842          1.0347 
        4.36688         13.7731         1.02529 
        4.38255         13.6723         1.01603 
        4.39825         13.5285         1.00687 
        4.41398         13.4574        0.997795 
         4.4297         13.3101        0.988845 
        4.44541         13.2081        0.980007 
        4.46111         13.1249        0.971283 
        4.47683         12.9999        0.962659 
        4.49251         12.8933        0.954158 
        4.50819         12.7925        0.945761 
         4.5239         12.6968        0.937453 
        4.53962         12.6005        0.929234 
        4.55535         12.4754        0.921111 
        4.57106         12.3859        0.913095 
        4.58678         12.2978        0.905174 
         4.6025         12.1948        0.897344 
        4.61821          12.091        0.889608 
        4.63391         11.9996        0.881974 
         4.6496         11.8937        0.874432 
        4.66532         11.8103        0.866966 
        4.68103         11.6999        0.859592 
        4.69673         11.5862        0.852309 
        4.71241         11.5312        0.845118 
        4.72811         11.4586        0.837999 
        4.74384         11.3243        0.830952 
        4.75955         11.2662        0.823997 
        4.77525         11.1771        0.817125 
        4.79096         11.1094        0.810324 
        4.80669         11.0101        0.803596 
         4.8224         10.9312        0.796952 
        4.83809         10.8293        0.790391 
        4.85379         10.7414        0.783899 
         4.8695         10.6467        0.777475 
        4.88521         10.5885        0.771125 
        4.90093         10.5168        0.764846 
        4.91663         10.4044        0.758642 
        4.93234          10.328          0.7525 
        4.94807          10.254        0.746422 
        4.96377         10.1854        0.740422 
        4.97943         10.1025        0.734501 
        4.99514         9.98418         0.72863 
        5.01086         9.96487        0.722818 
        5.02654         9.88868        0.717084 
        5.04227         9.77694        0.711396 
          5.058         9.72666        0.705766 
        5.07371         9.63751        0.700209 
        5.08942         9.59404        0.694711 
        5.10513         9.50068        0.689271 
        5.12084          9.4524        0.683886 
        5.13656         9.36035         0.67856 
        5.15225         9.27475          0.6733 
        5.16796         9.21812        0.668087 
        5.18369         9.15191        0.662924 
         5.1994         9.08645        0.657825 
        5.21509         9.00658        0.652785 
        5.23079         8.94092        0.647791 
        5.24649         8.86834        0.642854 
        5.26217         8.79767        0.637971 
        5.27788          8.7711        0.633132 
        5.29359         8.67272        0.628342 
        5.30933         8.63168        0.623595 
        5.32504         8.57361        0.618905 
        5.34073         8.51031        0.614269 
        5.35646         8.43094         0.60967 
        5.37218         8.38049        0.605118 
        5.38789         8.29622        0.600619 
        5.40357         8.24189        0.596171 
        5.41929         8.21032        0.591759 
        5.43502          8.1395         0.58739 
         5.4507          8.0762        0.583076 
        5.46639         8.01902        0.578805 
        5.48212          7.9703        0.574566 
        5.49786         7.91307        0.570365 
        5.51353         7.85606        0.566227 
        5.52921         7.80655        0.562125 
        5.54495         7.74926        0.558053 
        5.56066         7.67624        0.554024 
        5.57637         7.64041        0.550036 
        5.59207         7.58805        0.546091 
        5.60778         7.52447        0.542183 
        5.62346          7.4669        0.538319 
        5.63916         7.42433        0.534489 
        5.65487         7.38245        0.530694 
         5.6706         7.31679        0.526931 
        5.68633         7.27165        0.523203 
        5.70203         7.20619        0.519519 
        5.71773         7.17313        0.515872 
        5.73344         7.12544        0.512257 
        5.74916         7.07077        0.508673 
        5.76486         7.03309        0.505129 
        5.78054         6.97297        0.501624 
        5.79626         6.91756        0.498142 
          5.812         6.89338         0.49469 
         5.8277         6.82465         0.49128 
        5.84339         6.78252        0.487903 
        5.85911         6.72841        0.484551 
        5.87484         6.69419        0.481231 
        5.89053         6.65018        0.477949 
        5.90623         6.61462        0.474696 
        5.92195         6.56217        0.471467 
        5.93767         6.51081         0.46827 
        5.95336         6.47013        0.465108 
        5.96905         6.42904        0.461976 
        5.98476         6.38146        0.458869 
        6.00048         6.34608         0.45579 
        6.01617         6.30506        0.452742 
        6.03185         6.25629        0.449727 
        6.04756         6.21969        0.446731 
        6.06331         6.18293        0.443756 
        6.07903         6.12953        0.440815 
        6.09473         6.09975        0.437903 
        6.11044         6.06241        0.435015 
        6.12616         6.00501        0.432153 
        6.14186         5.97882         0.42932 
        6.15755         5.94628        0.426512 
        6.17326         5.89987        0.423727 
        6.18898         5.86354        0.420966 
        6.20467         5.81975        0.418234 
        6.22036         5.78686        0.415527 
         6.2361         5.75228        0.412836 
         6.2518         5.70493        0.410174 
        6.26748         5.68761        0.407541 
        6.28319         5.64115        0.404923 
        6.29893            5.61        0.402327 
        6.31463         5.57589        0.399757 
        6.33033         5.53778        0.397211 
        6.34604         5.49504        0.394685 
        6.36177         5.46687        0.392179 
        6.37747         5.42956        0.389699 
