# k  (h/Mpc)    Pcb(k)  (Mpc/h)^3    Pcb_linear(k) (Mpc/h)^3   ShotnoiseSubtracted = true
      0.0200456         11246.7         11413.8 
      0.0350414         8514.38         8297.46 
      0.0492313         5974.64         6028.78 
      0.0637834         4835.89         5011.67 
      0.0800726         3810.23         3977.64 
       0.096163         2984.31         2886.12 
       0.111083         2424.25         2302.04 
       0.126058         2022.33         2040.08 
       0.142273          1742.6          1728.4 
       0.158546         1430.33         1365.07 
        0.17375          1250.1         1150.07 
       0.188953         1156.57         1041.36 
       0.204907           987.4         921.394 
       0.220756         884.603         779.555 
        0.23588         785.567         678.146 
         0.2514         703.416         616.088 
       0.267535         681.324         557.454 
       0.283568          595.02           491.6 
       0.299022         566.525          437.99 
       0.314451         570.348         400.293 
       0.330372          490.19         367.224 
       0.346141         454.226         333.312 
       0.361624          433.37         302.935 
       0.377134         404.312         278.748 
       0.392932         392.492          257.92 
       0.408854         372.916         237.752 
       0.424564         359.855          219.14 
       0.440253         325.211         203.168 
       0.455999         310.865          189.28 
       0.471626         310.772         176.517 
        0.48727         295.272         164.578 
       0.502856         270.532         153.852 
       0.518488         271.477         144.282 
       0.534347         252.123         135.386 
       0.550082          245.34         127.182 
       0.565732         243.592         119.678 
       0.581496          229.56         112.804 
       0.597222         223.737         106.501 
       0.612804         217.382         100.704 
       0.628434         209.771         95.3013 
       0.644267         200.259         90.2502 
       0.660051         196.355         85.5949 
       0.675724         194.207         81.2962 
       0.691403         188.991         77.2891 
       0.707174         182.486         73.5295 
       0.722871         179.624          70.035 
        0.73838          177.81         66.8049 
       0.754018         167.726         63.7542 
       0.769845         167.595         60.8608 
        0.78569         163.189         58.1446 
       0.801365         158.479         55.6211 
       0.817031         154.503         53.2498 
       0.832809         151.923         51.0023 
       0.848511         148.266         48.8953 
       0.864097         145.378         46.9223 
       0.879701         143.856         45.0568 
       0.895507         139.937         43.2712 
       0.911279         136.274         41.5866 
        0.92691         133.843          40.006 
       0.942635         131.536         38.4992 
       0.958396         129.663         37.0671 
       0.974128         126.911         35.7108 
       0.989692         123.756         34.4361 
        1.00528          122.44          33.222 
        1.02113          119.27         32.0476 
        1.03692         118.507         30.9346 
        1.05264         116.999         29.8797 
        1.06832         113.886         28.8759 
        1.08405         112.506         27.9158 
        1.09979         111.703         26.9988 
        1.11537         108.782         26.1324 
        1.13105         107.689         25.2989 
        1.14679         105.766         24.4987 
        1.16256         103.738         23.7317 
        1.17828         102.762         23.0001 
        1.19395         100.113          22.302 
         1.2097         99.7048         21.6294 
        1.22537         97.4831         20.9879 
          1.241         97.0178         20.3745 
        1.25666          93.967         19.7841 
        1.27241         92.8915         19.2144 
        1.28819         92.4195         18.6663 
        1.30392         90.6632         18.1412 
        1.31957         89.4959         17.6387 
        1.33529         88.3298         17.1535 
        1.35108         87.8062         16.6847 
        1.36674         86.1079         16.2368 
         1.3824         85.6752         15.8058 
        1.39811         83.4411          15.389 
        1.41389         82.4686         14.9857 
        1.42964         81.1782         14.5976 
        1.44531         80.5785         14.2252 
        1.46101         79.6942          13.865 
        1.47667         78.6817         13.5184 
        1.49229         77.8278         13.1846 
        1.50793         76.6005         12.8617 
        1.52367         76.0284         12.5476 
        1.53953         74.8869         12.2419 
        1.55526         73.5766         11.9489 
        1.57092         73.4398         11.6666 
        1.58662         72.3754         11.3929 
        1.60235         71.3011         11.1274 
        1.61809         70.2733         10.8703 
        1.63369         69.3762         10.6235 
        1.64941         69.2861         10.3827 
        1.66519          67.564         10.1486 
        1.68085         67.0355         9.92327 
        1.69652         65.7685         9.70477 
        1.71228           65.24         9.49163 
        1.72806         64.8398         9.28473 
        1.74368         63.7812         9.08608 
        1.75933         63.2249         8.89286 
        1.77505         62.6074         8.70437 
        1.79081         61.5835         8.52102 
         1.8065         61.3696         8.34374 
        1.82218         59.6884         8.17168 
        1.83797         59.3944         8.00329 
        1.85367         58.7586         7.84059 
        1.86928         58.2221          7.6834 
        1.88497         57.3857         7.52966 
        1.90073         56.5941         7.37957 
        1.91647         56.2317         7.23372 
        1.93218            55.7         7.09212 
        1.94787         54.8618         6.95452 
        1.96363         54.1047         6.82004 
        1.97935         53.5663          6.6894 
        1.99499         53.0305         6.56292 
        2.01064         52.4316         6.43953 
         2.0264         52.0337         6.31854 
        2.04216          51.217         6.20073 
        2.05781         50.6151         6.08666 
        2.07353         49.8807         5.97507 
        2.08928         49.5695         5.86603 
        2.10499         49.1068         5.76001 
        2.12065         48.5473         5.65693 
        2.13633         48.1623         5.55628 
        2.15211         47.4477         5.45744 
        2.16785         46.7025         5.36128 
        2.18349         46.2285         5.26805 
        2.19916         45.7688         5.17683 
        2.21489         45.5454         5.08748 
        2.23063         44.7791         5.00018 
         2.2463         44.4247         4.91532 
        2.26194         44.0444         4.83265 
        2.27765         43.4065         4.75145 
        2.29341         42.7739         4.67191 
        2.30914         42.4097         4.59436 
        2.32486         41.8367         4.51861 
        2.34061         41.5479         4.44444 
        2.35635          40.981         4.37201 
        2.37203         40.6123         4.30144 
        2.38768         40.3539         4.23258 
        2.40339          39.927         4.16498 
        2.41914         39.5329          4.0987 
        2.43483         38.7948         4.03409 
         2.4505         38.6689         3.97099 
        2.46622         38.2248         3.90902 
        2.48195         37.8312         3.84837 
        2.49759         37.3551         3.78934 
        2.51328         37.0015         3.73138 
        2.52906          36.648         3.67428 
        2.54479         36.2884         3.61858 
        2.56049         35.8776         3.56414 
        2.57618         35.5536         3.51088 
        2.59189         35.1076         3.45862 
        2.60758         34.6804         3.40751 
        2.62325         34.6257         3.35749 
        2.63898         34.1234         3.30831 
        2.65468         33.7151         3.26021 
        2.67044         33.4799         3.21286 
        2.68618         33.1766         3.16657 
        2.70184         32.7302         3.12137 
        2.71755          32.462         3.07694 
        2.73329         32.0289         3.03331 
        2.74897         31.7246         2.99066 
        2.76462         31.3952         2.94893 
        2.78034         31.1721         2.90783 
        2.79607         30.7767         2.86747 
        2.81179         30.5585         2.82791 
        2.82749         30.2184         2.78915 
        2.84321         29.8978         2.75108 
        2.85893         29.6187         2.71372 
        2.87462         29.3912         2.67712 
        2.89033         29.0571         2.64117 
        2.90605         28.8509         2.60584 
        2.92176         28.6264         2.57118 
        2.93747          28.255         2.53716 
        2.95318         28.0267         2.50376 
        2.96891         27.7743         2.47094 
        2.98456         27.4495         2.43885 
        3.00023         27.1165         2.40729 
        3.01596         26.8849         2.37619 
        3.03164         26.6064         2.34573 
        3.04738         26.4353         2.31571 
         3.0631         26.1908         2.28622 
        3.07883         25.8293         2.25725 
        3.09456         25.5734         2.22879 
        3.11026         25.3142         2.20086 
        3.12596         25.0478         2.17341 
        3.14163         24.8498         2.14649 
        3.15734          24.673         2.11997 
        3.17308           24.35         2.09383 
        3.18879         24.1818          2.0682 
        3.20447         23.9317         2.04304 
         3.2202         23.6648         2.01822 
         3.2359         23.4768         1.99386 
        3.25157         23.2797         1.96996 
        3.26729         23.1161         1.94637 
        3.28304         22.8119         1.92313 
        3.29877         22.5986         1.90029 
        3.31446         22.4322         1.87788 
        3.33014         22.1926         1.85585 
        3.34585         22.0515         1.83413 
        3.36158         21.7656         1.81273 
        3.37727         21.5911         1.79174 
        3.39294         21.4381         1.77111 
        3.40867         21.2225         1.75072 
        3.42439         21.0115         1.73066 
        3.44008         20.7804         1.71096 
        3.45578         20.6516         1.69155 
        3.47153         20.4178          1.6724 
        3.48724         20.3248         1.65358 
        3.50292         20.0657         1.63509 
        3.51859         19.9178         1.61689 
        3.53431         19.7616         1.59892 
        3.55007         19.5255         1.58117 
        3.56577         19.3899         1.56376 
        3.58146         19.1661         1.54662 
        3.59719         19.0171          1.5297 
        3.61292         18.8547         1.51304 
        3.62859          18.629         1.49669 
        3.64429         18.4354         1.48055 
        3.66003         18.3847         1.46459 
        3.67578         18.2197         1.44888 
        3.69146         17.9941         1.43346 
        3.70712         17.8352         1.41829 
        3.72284         17.7049         1.40328 
        3.73853         17.5639         1.38852 
        3.75422         17.3914         1.37396 
        3.76993          17.227          1.3596 
        3.78564         17.0933         1.34546 
        3.80137         16.9355         1.33148 
        3.81707         16.7929         1.31774 
        3.83279         16.6103         1.30418 
        3.84853         16.4646         1.29079 
        3.86424         16.3143         1.27761 
        3.87992         16.1914         1.26464 
        3.89561         16.0631         1.25184 
        3.91134         15.9339          1.2392 
        3.92704          15.818         1.22674 
        3.94273         15.6833         1.21447 
        3.95845         15.4862         1.20234 
        3.97418         15.3634         1.19038 
        3.98988         15.2439          1.1786 
        4.00554         15.1518           1.167 
        4.02125         14.9566         1.15553 
        4.03698         14.8321          1.1442 
        4.05268         14.7615         1.13305 
        4.06839         14.5994         1.12203 
         4.0841          14.497         1.11116 
        4.09983         14.2953         1.10043 
        4.11555         14.2625         1.08984 
        4.13124         14.1408         1.07941 
        4.14693         13.9829         1.06912 
        4.16266         13.9092         1.05893 
        4.17839         13.7542         1.04889 
        4.19408         13.6322         1.03899 
        4.20977         13.5565         1.02922 
        4.22551         13.4136         1.01956 
        4.24123         13.2954         1.01002 
        4.25691         13.1864         1.00064 
        4.27259         13.0701        0.991368 
        4.28831         13.0131        0.982197 
        4.30404         12.9233        0.973133 
        4.31974         12.7854        0.964204 
        4.33543         12.6488        0.955392 
        4.35116         12.5648        0.946668 
        4.36688         12.4337        0.938057 
        4.38255         12.3666        0.929584 
        4.39825         12.2531        0.921199 
        4.41398         12.1502        0.912899 
         4.4297         12.0422        0.904711 
        4.44541         11.9564        0.896625 
        4.46111         11.8603        0.888643 
        4.47683         11.7486        0.880753 
        4.49251         11.6496        0.872975 
        4.50819         11.5565        0.865292 
         4.5239         11.4852        0.857691 
        4.53962         11.3932        0.850172 
        4.55535         11.2835        0.842739 
        4.57106         11.2372        0.835406 
        4.58678         11.1168        0.828158 
         4.6025          11.034        0.820995 
        4.61821         10.9401        0.813917 
        4.63391          10.871        0.806932 
         4.6496         10.7801        0.800032 
        4.66532         10.7012        0.793202 
        4.68103          10.594        0.786455 
        4.69673         10.5022        0.779792 
        4.71241         10.4346        0.773213 
        4.72811         10.3604        0.766699 
        4.74384          10.258        0.760252 
        4.75955         10.1936        0.753888 
        4.77525         10.1046        0.747601 
        4.79096         10.0552        0.741378 
        4.80669           9.945        0.735223 
         4.8224         9.87528        0.729145 
        4.83809          9.7923        0.723142 
        4.85379         9.72907        0.717202 
         4.8695         9.64527        0.711325 
        4.88521         9.55328        0.705515 
        4.90093         9.50101         0.69977 
        4.91663         9.40639        0.694094 
        4.93234         9.35822        0.688475 
        4.94807         9.25977        0.682914 
        4.96377         9.22369        0.677425 
        4.97943         9.13414        0.672008 
        4.99514         9.05877        0.666636 
        5.01086         9.02569        0.661318 
        5.02654         8.93713        0.656072 
        5.04227         8.85619        0.650868 
          5.058         8.78795        0.645717 
        5.07371         8.73015        0.640633 
        5.08942         8.67136        0.635602 
        5.10513         8.59053        0.630625 
        5.12084         8.55961        0.625699 
        5.13656         8.48138        0.620826 
        5.15225         8.39915        0.616013 
        5.16796         8.35011        0.611244 
        5.18369         8.28295         0.60652 
         5.1994         8.23186        0.601855 
        5.21509         8.18101        0.597244 
        5.23079         8.10036        0.592675 
        5.24649         8.04083        0.588158 
        5.26217         7.99347         0.58369 
        5.27788         7.93625        0.579263 
        5.29359         7.87686        0.574881 
        5.30933         7.81441        0.570538 
        5.32504         7.77215        0.566247 
        5.34073         7.71796        0.562005 
        5.35646         7.63478        0.557797 
        5.37218         7.59546        0.553632 
        5.38789         7.52202        0.549516 
        5.40357         7.48566        0.545447 
        5.41929         7.43979         0.54141 
        5.43502          7.3828        0.537413 
         5.4507         7.32941        0.533466 
        5.46639         7.28026        0.529558 
        5.48212          7.2233         0.52568 
        5.49786         7.18606        0.521837 
        5.51353         7.13923         0.51805 
        5.52921         7.06648        0.514298 
        5.54495         7.01391        0.510571 
        5.56066         6.96843        0.506886 
        5.57637         6.94235        0.503237 
        5.59207         6.88523        0.499628 
        5.60778         6.82856        0.496053 
        5.62346         6.78377        0.492517 
        5.63916         6.74482        0.489013 
        5.65487         6.70209         0.48554 
         5.6706          6.6541        0.482098 
        5.68633         6.60927        0.478687 
        5.70203         6.56278        0.475317 
        5.71773         6.51971        0.471979 
        5.73344         6.47058        0.468672 
        5.74916         6.41243        0.465394 
        5.76486         6.38303        0.462151 
        5.78054         6.32818        0.458944 
        5.79626         6.28629        0.455758 
          5.812         6.24889          0.4526 
         5.8277          6.2037        0.449481 
        5.84339         6.16931        0.446391 
        5.85911         6.11739        0.443324 
        5.87484         6.08954        0.440286 
        5.89053         6.04027        0.437283 
        5.90623         6.00769        0.434307 
        5.92195          5.9584        0.431353 
        5.93767         5.93072        0.428428 
        5.95336         5.87241        0.425535 
        5.96905         5.84732         0.42267 
        5.98476         5.80788        0.419827 
        6.00048         5.76718        0.417009 
        6.01617         5.72267        0.414221 
        6.03185         5.69555        0.411462 
        6.04756         5.65717        0.408722 
        6.06331         5.61614           0.406 
        6.07903         5.57103        0.403309 
        6.09473         5.54327        0.400645 
        6.11044          5.4991        0.398002 
        6.12616         5.46694        0.395384 
        6.14186         5.43293        0.392792 
        6.15755         5.40616        0.390223 
        6.17326         5.36632        0.387675 
        6.18898         5.32736        0.385149 
        6.20467         5.29456        0.382649 
        6.22036         5.26606        0.380173 
         6.2361         5.23087        0.377711 
         6.2518         5.19121        0.375275 
        6.26748         5.15964        0.372866 
        6.28319         5.13216        0.370471 
        6.29893         5.09795        0.368096 
        6.31463         5.07739        0.365745 
        6.33033          5.0262        0.363415 
        6.34604         5.00544        0.361104 
        6.36177         4.96869        0.358811 
        6.37747          4.9369        0.356542 
