# k  (h/Mpc)    Pcb(k)  (Mpc/h)^3    Pcb_linear(k) (Mpc/h)^3   ShotnoiseSubtracted = true
      0.0200456         1510.69         1532.77 
      0.0350414         1142.17         1151.56 
      0.0492313         859.468         857.808 
      0.0637834         723.432          716.52 
      0.0800726         573.725         568.666 
       0.096163         416.653         418.822 
       0.111083         335.403         339.154 
       0.126058          301.67         300.172 
       0.142273         255.786          252.47 
       0.158546         205.289         201.135 
        0.17375         171.714         171.777 
       0.188953         158.082         155.368 
       0.204907         143.673         136.406 
       0.220756         120.223         115.838 
        0.23588          105.57         101.784 
         0.2514         94.8003         92.6448 
       0.267535         86.5301         83.3655 
       0.283568         77.1966         73.5405 
       0.299022         70.0855         65.9525 
       0.314451         62.8984         60.4418 
       0.330372         58.3358         55.2954 
       0.346141         52.9566         50.1474 
       0.361624         48.9623          45.734 
       0.377134         45.9181         42.1916 
       0.392932         40.8116          39.015 
       0.408854          39.165         35.9349 
       0.424564         36.5354         33.1737 
       0.440253         33.7066         30.8148 
       0.455999         31.8017         28.7169 
       0.471626         29.8548          26.772 
        0.48727         28.1361         24.9779 
       0.502856         26.2821         23.3784 
       0.518488         25.1177         21.9365 
       0.534347         24.0172         20.5862 
       0.550082         21.9571         19.3454 
       0.565732         20.3677         18.2173 
       0.581496          19.966         17.1806 
       0.597222         19.2019         16.2254 
       0.612804          17.879         15.3468 
       0.628434          17.231           14.53 
       0.644267         16.6187         13.7664 
       0.660051         15.6896         13.0611 
       0.675724          14.896         12.4093 
       0.691403         14.3995         11.8015 
       0.707174           13.76          11.231 
       0.722871         13.2017         10.7006 
        0.73838         12.7057         10.2102 
       0.754018         12.2605         9.74677 
       0.769845         11.7042         9.30714 
        0.78569           11.34         8.89426 
       0.801365         10.8654         8.51056 
       0.817031         10.5342         8.14984 
       0.832809         10.2428         7.80785 
       0.848511         9.63508         7.48713 
       0.864097         9.36331         7.18672 
       0.879701         9.07099         6.90261 
       0.895507         8.68666         6.63057 
       0.911279         8.55485         6.37385 
        0.92691         8.25531         6.13291 
       0.942635         7.89939         5.90317 
       0.958396         7.65823         5.68476 
       0.974128         7.45966         5.47787 
       0.989692         7.35144         5.28336 
        1.00528         7.05265         5.09806 
        1.02113         6.78639         4.91879 
        1.03692         6.65727         4.74883 
        1.05264         6.45364         4.58773 
        1.06832         6.30779         4.43439 
        1.08405         6.05296         4.28767 
        1.09979         5.92186         4.14754 
        1.11537         5.80626         4.01509 
        1.13105         5.64314         3.88765 
        1.14679         5.50973         3.76528 
        1.16256         5.34821         3.64795 
        1.17828         5.25265         3.53604 
        1.19395         5.09799         3.42921 
         1.2097         4.92635         3.32627 
        1.22537         4.81295         3.22807 
          1.241         4.72879         3.13415 
        1.25666           4.685         3.04374 
        1.27241         4.50879         2.95649 
        1.28819         4.40245         2.87253 
        1.30392         4.33153         2.79208 
        1.31957         4.23721         2.71508 
        1.33529         4.13459         2.64072 
        1.35108         4.03655         2.56886 
        1.36674         3.98013         2.50019 
         1.3824         3.83391         2.43411 
        1.39811         3.77858          2.3702 
        1.41389         3.71886         2.30835 
        1.42964         3.64352         2.24882 
        1.44531         3.57441         2.19169 
        1.46101         3.50302         2.13643 
        1.47667         3.40553         2.08324 
        1.49229          3.3774         2.03201 
        1.50793         3.28432         1.98245 
        1.52367         3.25891         1.93424 
        1.53953         3.16162          1.8873 
        1.55526         3.10095         1.84231 
        1.57092         3.06214         1.79897 
        1.58662          2.9959         1.75692 
        1.60235          2.9445         1.71614 
        1.61809         2.89323         1.67664 
        1.63369         2.84941         1.63874 
        1.64941          2.7934         1.60174 
        1.66519         2.75329         1.56576 
        1.68085         2.68582         1.53113 
        1.69652         2.64501         1.49755 
        1.71228          2.6115         1.46479 
        1.72806         2.55465         1.43298 
        1.74368         2.51609         1.40244 
        1.75933         2.47406         1.37273 
        1.77505         2.43971         1.34374 
        1.79081         2.39584         1.31554 
         1.8065         2.35861         1.28827 
        1.82218         2.33141         1.26181 
        1.83797         2.30373          1.2359 
        1.85367         2.26835         1.21087 
        1.86928         2.23262         1.18668 
        1.88497         2.18564         1.16302 
        1.90073         2.15076         1.13993 
        1.91647          2.1227         1.11748 
        1.93218         2.10608         1.09568 
        1.94787         2.06651          1.0745 
        1.96363         2.03178         1.05379 
        1.97935         2.00019         1.03368 
        1.99499          1.9617          1.0142 
        2.01064         1.94567        0.995203 
         2.0264         1.93166        0.976571 
        2.04216         1.89667        0.958425 
        2.05781         1.86681        0.940856 
        2.07353         1.84787        0.923665 
        2.08928         1.82078        0.906867 
        2.10499         1.79451        0.890533 
        2.12065         1.78123         0.87465 
        2.13633         1.74868        0.859142 
        2.15211         1.72324         0.84391 
        2.16785         1.70243        0.829091 
        2.18349         1.68502        0.814721 
        2.19916         1.65239        0.800662 
        2.21489         1.63428        0.786888 
        2.23063         1.61186         0.77343 
         2.2463         1.60042        0.760347 
        2.26194         1.57043          0.7476 
        2.27765          1.5544        0.735081 
        2.29341         1.54002        0.722816 
        2.30914         1.52282        0.710856 
        2.32486         1.50597        0.699174 
        2.34061         1.48299        0.687735 
        2.35635         1.45996        0.676563 
        2.37203         1.45258        0.665678 
        2.38768         1.43575        0.655055 
        2.40339          1.4214        0.644626 
        2.41914         1.40283          0.6344 
        2.43483          1.3856        0.624432 
         2.4505         1.36546        0.614695 
        2.46622         1.35374        0.605133 
        2.48195         1.34379        0.595774 
        2.49759         1.32599        0.586662 
        2.51328         1.30665        0.577718 
        2.52906         1.29571        0.568904 
        2.54479          1.2819        0.560307 
        2.56049         1.26701        0.551904 
        2.57618         1.25669        0.543681 
        2.59189         1.24471        0.535614 
        2.60758         1.22607        0.527722 
        2.62325         1.21615            0.52 
        2.63898         1.20436        0.512405 
        2.65468         1.19236        0.504978 
        2.67044         1.18056        0.497667 
        2.68618         1.16302        0.490518 
        2.70184         1.15164        0.483537 
        2.71755         1.14087        0.476675 
        2.73329         1.13081        0.469936 
        2.74897         1.11984        0.463349 
        2.76462         1.10749        0.456903 
        2.78034         1.10142        0.450553 
        2.79607         1.08706        0.444317 
        2.81179         1.07468        0.438207 
        2.82749         1.06776        0.432218 
        2.84321         1.05949        0.426335 
        2.85893         1.04461        0.420563 
        2.87462         1.03877        0.414908 
        2.89033         1.02291        0.409351 
        2.90605         1.01604        0.403892 
        2.92176         1.00716        0.398535 
        2.93747        0.999518        0.393278 
        2.95318        0.990273        0.388115 
        2.96891        0.979826        0.383042 
        2.98456        0.975751        0.378082 
        3.00023        0.963024        0.373203 
        3.01596          0.9577        0.368395 
        3.03164        0.949765        0.363685 
        3.04738        0.934511        0.359044 
         3.0631        0.929662        0.354486 
        3.07883        0.922419        0.350006 
        3.09456        0.915672        0.345605 
        3.11026        0.905823        0.341286 
        3.12596        0.898442        0.337042 
        3.14163        0.890204        0.332879 
        3.15734        0.886454        0.328777 
        3.17308         0.87583        0.324735 
        3.18879        0.868159        0.320771 
        3.20447        0.860463         0.31688 
         3.2202        0.854875        0.313041 
         3.2359         0.84936        0.309272 
        3.25157        0.840725        0.305574 
        3.26729         0.83653        0.301926 
        3.28304        0.826886         0.29833 
        3.29877         0.81963        0.294797 
        3.31446          0.8151         0.29133 
        3.33014         0.81084        0.287921 
        3.34585        0.802707        0.284561 
        3.36158        0.793634         0.28125 
        3.37727        0.792231        0.278003 
        3.39294         0.78518        0.274809 
        3.40867        0.779707        0.271654 
        3.42439        0.771961        0.268551 
        3.44008        0.767999        0.265501 
        3.45578        0.762751        0.262497 
        3.47153        0.755607        0.259533 
        3.48724         0.75179         0.25662 
        3.50292        0.748207        0.253759 
        3.51859        0.741262        0.250942 
        3.53431        0.735895        0.248159 
        3.55007        0.733251        0.245412 
        3.56577        0.725541        0.242717 
        3.58146        0.719861        0.240064 
        3.59719        0.717961        0.237444 
        3.61292        0.712274        0.234865 
        3.62859        0.704029        0.232333 
        3.64429         0.70271        0.229834 
        3.66003        0.696678        0.227364 
        3.67578        0.691605        0.224931 
        3.69146        0.688489        0.222543 
        3.70712        0.682043        0.220194 
        3.72284        0.679415         0.21787 
        3.73853        0.672866        0.215584 
        3.75422        0.668168         0.21333 
        3.76993        0.667607        0.211106 
        3.78564        0.662219        0.208914 
        3.80137        0.655541        0.206751 
        3.81707        0.654419        0.204622 
        3.83279        0.647971        0.202521 
        3.84853         0.64346        0.200447 
        3.86424        0.641037        0.198406 
        3.87992        0.636438        0.196396 
        3.89561        0.633069        0.194414 
        3.91134        0.628176        0.192455 
        3.92704        0.623713        0.190526 
        3.94273        0.621129        0.188625 
        3.95845        0.617305        0.186746 
        3.97418        0.612072        0.184892 
        3.98988        0.609082        0.183067 
        4.00554        0.605148         0.18127 
        4.02125        0.599937        0.179493 
        4.03698        0.593617        0.177737 
        4.05268        0.589571        0.176008 
        4.06839        0.584843        0.174301 
         4.0841        0.581008        0.172617 
        4.09983        0.576964        0.170954 
        4.11555        0.571429        0.169312 
        4.13124        0.566687        0.167697 
        4.14693        0.562629        0.166101 
        4.16266        0.558794        0.164523 
        4.17839         0.55534        0.162966 
        4.19408        0.551199        0.161432 
        4.20977        0.547282        0.159918 
        4.22551        0.543517        0.158419 
        4.24123        0.539629        0.156942 
        4.25691        0.536399        0.155487 
        4.27259        0.533156         0.15405 
        4.28831        0.529687        0.152628 
        4.30404        0.525529        0.151223 
        4.31974        0.522537        0.149839 
        4.33543        0.519715        0.148472 
        4.35116        0.517475         0.14712 
        4.36688         0.51308        0.145785 
        4.38255        0.511409        0.144471 
        4.39825        0.508262        0.143171 
        4.41398        0.504729        0.141884 
         4.4297        0.502283        0.140615 
        4.44541        0.499396        0.139361 
        4.46111        0.498307        0.138123 
        4.47683        0.495292        0.136899 
        4.49251        0.492177        0.135693 
        4.50819        0.489453        0.134502 
         4.5239         0.48934        0.133323 
        4.53962        0.486305        0.132157 
        4.55535        0.484905        0.131004 
        4.57106        0.481651        0.129867 
        4.58678         0.47959        0.128743 
         4.6025        0.477383        0.127632 
        4.61821        0.476034        0.126534 
        4.63391        0.473761        0.125451 
         4.6496        0.471303         0.12438 
        4.66532        0.470742        0.123321 
        4.68103        0.468775        0.122274 
        4.69673        0.467676        0.121241 
        4.71241        0.464929         0.12022 
        4.72811        0.464675         0.11921 
        4.74384        0.462438        0.118209 
        4.75955        0.461848        0.117222 
        4.77525         0.45968        0.116247 
        4.79096         0.45981        0.115281 
        4.80669        0.456889        0.114326 
         4.8224        0.457417        0.113383 
        4.83809        0.454922        0.112452 
        4.85379         0.45463         0.11153 
         4.8695        0.453942        0.110618 
        4.88521        0.452208        0.109717 
        4.90093        0.452606        0.108826 
        4.91663        0.450157        0.107945 
        4.93234         0.44945        0.107073 
        4.94807         0.44974         0.10621 
        4.96377        0.449128        0.105358 
        4.97943        0.448705        0.104517 
        4.99514        0.446703        0.103684 
        5.01086        0.447966        0.102859 
        5.02654        0.446789        0.102044 
        5.04227        0.445862        0.101237 
          5.058         0.44551        0.100437 
        5.07371        0.444529       0.0996482 
        5.08942        0.445109       0.0988674 
        5.10513        0.444163       0.0980949 
        5.12084        0.444247       0.0973303 
        5.13656        0.444715        0.096574 
        5.15225        0.444493       0.0958269 
        5.16796        0.444149       0.0950866 
        5.18369        0.444873       0.0943534 
         5.1994        0.445781       0.0936293 
        5.21509         0.44434       0.0929135 
        5.23079        0.444446       0.0922042 
        5.24649        0.445219        0.091503 
        5.26217        0.444025       0.0908095 
        5.27788        0.445404       0.0901222 
        5.29359        0.445014       0.0894419 
        5.30933        0.445437       0.0887676 
        5.32504        0.445604       0.0881014 
        5.34073         0.44571       0.0874428 
        5.35646        0.446484       0.0867896 
        5.37218        0.447782       0.0861429 
        5.38789         0.44734       0.0855039 
        5.40357        0.448075       0.0848721 
        5.41929         0.44855       0.0842452 
        5.43502        0.449404       0.0836246 
         5.4507        0.449384       0.0830118 
        5.46639        0.451037        0.082405 
        5.48212        0.450307       0.0818028 
        5.49786        0.450582       0.0812059 
        5.51353         0.45219        0.080618 
        5.52921        0.452232       0.0800353 
        5.54495         0.45292       0.0794566 
        5.56066        0.454815       0.0788843 
        5.57637        0.453816       0.0783177 
        5.59207        0.455819       0.0777571 
        5.60778        0.456129       0.0772018 
        5.62346        0.456516       0.0766527 
        5.63916        0.457381       0.0761085 
        5.65487         0.45899       0.0755692 
         5.6706        0.459544       0.0750345 
        5.68633         0.46093       0.0745048 
        5.70203        0.462567       0.0739813 
        5.71773        0.462788        0.073463 
        5.73344        0.462561       0.0729493 
        5.74916        0.464246         0.07244 
        5.76486        0.465359       0.0719363 
        5.78054        0.466457       0.0714382 
        5.79626        0.466504       0.0709434 
          5.812        0.469062       0.0704527 
         5.8277        0.469095       0.0699682 
        5.84339        0.470934       0.0694882 
        5.85911        0.471039       0.0690118 
        5.87484         0.47161       0.0685399 
        5.89053        0.473647       0.0680734 
        5.90623        0.474373        0.067611 
        5.92195        0.474827       0.0671521 
        5.93767        0.476522       0.0666977 
        5.95336        0.476057       0.0662482 
        5.96905         0.47749       0.0658031 
        5.98476         0.47936       0.0653614 
        6.00048        0.481154       0.0649236 
        6.01617        0.481813       0.0644905 
        6.03185        0.481753       0.0640618 
        6.04756        0.484286       0.0636359 
        6.06331        0.485651       0.0632131 
        6.07903        0.487254       0.0627949 
        6.09473         0.48771       0.0623809 
        6.11044        0.489379       0.0619703 
        6.12616        0.489625       0.0615635 
        6.14186        0.489856       0.0611607 
        6.15755        0.491941       0.0607615 
        6.17326        0.492701       0.0603656 
        6.18898         0.49324        0.059973 
        6.20467        0.496408       0.0595846 
        6.22036        0.495162       0.0591997 
         6.2361        0.496659       0.0588171 
         6.2518         0.49679       0.0584386 
        6.26748        0.498645       0.0580642 
        6.28319        0.500936        0.057692 
        6.29893        0.501839       0.0573228 
        6.31463        0.502002       0.0569575 
        6.33033         0.50153       0.0565954 
        6.34604        0.503551       0.0562362 
        6.36177        0.504209       0.0558798 
        6.37747        0.506586       0.0555272 
