# k  (h/Mpc)    Pcb(k)  (Mpc/h)^3    Pcb_linear(k) (Mpc/h)^3   ShotnoiseSubtracted = true
      0.0200456         30356.3         30974.3 
      0.0350414         23991.2         23270.7 
      0.0492313         16713.8         17334.6 
      0.0637834           13512         14479.5 
      0.0800726         10576.8         11491.6 
       0.096163         8720.31         8463.57 
       0.111083         7180.09         6853.63 
       0.126058         5932.84         6065.89 
       0.142273         5230.23         5101.92 
       0.158546         4306.67         4064.55 
        0.17375         3943.37         3471.27 
       0.188953         3812.65         3139.68 
       0.204907         3286.02         2756.49 
       0.220756         3003.28         2340.85 
        0.23588         2694.24         2056.86 
         0.2514         2472.58         1872.17 
       0.267535         2364.89         1684.65 
       0.283568         2149.41         1486.11 
       0.299022         2047.22         1332.77 
       0.314451         2129.65         1221.41 
       0.330372         1956.67         1117.41 
       0.346141         1814.41         1013.38 
       0.361624            1729         924.193 
       0.377134         1685.27         852.609 
       0.392932          1584.2         788.417 
       0.408854         1540.23         726.173 
       0.424564         1508.64         670.375 
       0.440253         1438.49         622.705 
       0.455999         1372.66         580.312 
       0.471626         1367.49          541.01 
        0.48727         1312.13         504.754 
       0.502856         1295.25         472.431 
       0.518488         1232.05         443.293 
       0.534347         1197.85         416.006 
       0.550082         1163.26         390.931 
       0.565732            1131         368.135 
       0.581496         1103.14         347.186 
       0.597222         1097.75         327.884 
       0.612804         1060.51         310.128 
       0.628434         1026.25         293.623 
       0.644267         1006.66         278.193 
       0.660051         985.589         263.938 
       0.675724         975.532         250.766 
       0.691403         931.793         238.484 
       0.707174         915.625         226.957 
       0.722871          912.98         216.238 
        0.73838         876.742         206.327 
       0.754018         874.808         196.963 
       0.769845          849.79         188.079 
        0.78569         829.342         179.735 
       0.801365         812.875         171.982 
       0.817031         798.922         164.692 
       0.832809         781.045         157.781 
       0.848511         755.557           151.3 
       0.864097         750.367          145.23 
       0.879701         746.847         139.488 
       0.895507         729.222         133.991 
       0.911279         719.825         128.803 
        0.92691         705.734         123.934 
       0.942635         687.835         119.291 
       0.958396         686.094         114.878 
       0.974128          666.08         110.697 
       0.989692         657.157         106.766 
        1.00528         641.431         103.022 
        1.02113         628.937         99.3989 
        1.03692         617.002         95.9646 
        1.05264          611.15          92.709 
        1.06832         601.714         89.6102 
        1.08405         590.349         86.6454 
        1.09979         579.268         83.8136 
        1.11537         564.678         81.1369 
        1.13105         558.297         78.5617 
        1.14679         550.162         76.0888 
        1.16256         542.077          73.718 
        1.17828         534.839         71.4563 
        1.19395         523.848         69.2976 
         1.2097         510.467         67.2174 
        1.22537         505.292          65.233 
          1.241          494.33          63.335 
        1.25666         483.995          61.508 
        1.27241          482.65         59.7449 
        1.28819         472.836         58.0481 
        1.30392          466.27         56.4224 
        1.31957         455.806         54.8665 
        1.33529         450.889         53.3637 
        1.35108         448.959         51.9115 
        1.36674         439.591         50.5239 
         1.3824         431.372         49.1885 
        1.39811         425.944         47.8971 
        1.41389         421.345         46.6472 
        1.42964         410.392         45.4442 
        1.44531          408.05         44.2897 
        1.46101         397.579         43.1729 
        1.47667         394.104         42.0981 
        1.49229         390.307         41.0629 
        1.50793         379.095         40.0615 
        1.52367         376.666         39.0871 
        1.53953          369.48         38.1387 
        1.55526         361.031         37.2294 
        1.57092         357.084         36.3536 
        1.58662         353.576         35.5039 
        1.60235         347.684         34.6799 
        1.61809         341.162         33.8817 
        1.63369         337.009         33.1157 
        1.64941          332.22          32.368 
        1.66519         328.323         31.6408 
        1.68085          319.73         30.9412 
        1.69652         316.708         30.2625 
        1.71228         312.376         29.6004 
        1.72806         307.428         28.9577 
        1.74368         304.043         28.3405 
        1.75933         300.076         27.7401 
        1.77505          295.55         27.1543 
        1.79081         292.383         26.5845 
         1.8065         288.337         26.0335 
        1.82218         282.163         25.4986 
        1.83797         279.582         24.9751 
        1.85367         275.108         24.4693 
        1.86928         271.454         23.9805 
        1.88497         267.591         23.5024 
        1.90073         264.182         23.0356 
        1.91647         260.104          22.582 
        1.93218         256.943         22.1415 
        1.94787         253.592         21.7135 
        1.96363         251.058         21.2951 
        1.97935         243.995         20.8886 
        1.99499         243.298         20.4951 
        2.01064          238.57         20.1111 
         2.0264         235.109         19.7346 
        2.04216         232.687         19.3679 
        2.05781         228.119         19.0128 
        2.07353         226.839         18.6654 
        2.08928         222.398          18.326 
        2.10499         221.521         17.9959 
        2.12065         217.987          17.675 
        2.13633         214.307         17.3616 
        2.15211         211.934         17.0538 
        2.16785          209.21         16.7543 
        2.18349         205.286         16.4639 
        2.19916         203.961         16.1798 
        2.21489         201.009         15.9015 
        2.23063         198.364         15.6295 
         2.2463         195.302         15.3651 
        2.26194          192.07         15.1075 
        2.27765         190.706         14.8545 
        2.29341         188.611         14.6067 
        2.30914         185.689          14.365 
        2.32486         184.629         14.1289 
        2.34061         181.048         13.8978 
        2.35635         178.835          13.672 
        2.37203         177.382          13.452 
        2.38768         175.042         13.2374 
        2.40339           172.1         13.0266 
        2.41914         170.884           12.82 
        2.43483         168.425         12.6185 
         2.4505         166.145         12.4218 
        2.46622          164.36         12.2285 
        2.48195         162.159         12.0394 
        2.49759         160.653         11.8553 
        2.51328          158.02         11.6745 
        2.52906         156.562         11.4964 
        2.54479         154.122         11.3227 
        2.56049         152.303         11.1529 
        2.57618         150.831         10.9867 
        2.59189         149.584         10.8237 
        2.60758         148.013         10.6642 
        2.62325         145.228         10.5082 
        2.63898         143.833         10.3547 
        2.65468         142.425         10.2046 
        2.67044         140.834         10.0569 
        2.68618         139.087         9.91239 
        2.70184          137.82         9.77133 
        2.71755         135.689         9.63266 
        2.73329         134.385         9.49647 
        2.74897         133.005         9.36337 
        2.76462         131.301         9.23311 
        2.78034         129.772         9.10479 
        2.79607         128.498         8.97878 
        2.81179         126.162         8.85529 
        2.82749         125.474         8.73428 
        2.84321         124.322         8.61538 
        2.85893         122.808         8.49874 
        2.87462         121.068         8.38446 
        2.89033         120.253         8.27218 
        2.90605         118.385         8.16185 
        2.92176         117.709          8.0536 
        2.93747         116.084         7.94737 
        2.95318         114.721         7.84303 
        2.96891         113.804         7.74052 
        2.98456         112.431         7.64029 
        3.00023         111.398         7.54169 
        3.01596         110.113         7.44453 
        3.03164         108.843         7.34936 
        3.04738         107.692         7.25557 
         3.0631         106.704         7.16346 
        3.07883         105.714         7.07294 
        3.09456         104.631           6.984 
        3.11026         103.142         6.89672 
        3.12596         102.094         6.81095 
        3.14163         100.675         6.72683 
        3.15734         99.7278         6.64394 
        3.17308         98.8457         6.56225 
        3.18879         97.3847         6.48215 
        3.20447         96.8503         6.40351 
         3.2202         95.5173         6.32593 
         3.2359         94.9421         6.24977 
        3.25157         94.0749         6.17505 
        3.26729         92.9004         6.10133 
        3.28304         92.0821         6.02866 
        3.29877         91.0959         5.95727 
        3.31446         90.1029          5.8872 
        3.33014         89.3969         5.81831 
        3.34585         88.4602         5.75042 
        3.36158           87.29         5.68352 
        3.37727         86.3172         5.61788 
        3.39294         85.7529         5.55335 
        3.40867          84.834         5.48959 
        3.42439         83.8919         5.42688 
        3.44008         82.9859         5.36526 
        3.45578         82.1786         5.30455 
        3.47153         81.3754         5.24466 
        3.48724         80.3211         5.18579 
        3.50292          79.646         5.12796 
        3.51859          79.191         5.07104 
        3.53431         78.0435         5.01481 
        3.55007         77.2937         4.95929 
        3.56577         76.5664         4.90484 
        3.58146         75.9261         4.85122 
        3.59719         75.1275         4.79828 
        3.61292         74.6312         4.74615 
        3.62859         73.7035         4.69499 
        3.64429         73.1593         4.64449 
        3.66003         72.3644         4.59458 
        3.67578         71.4688         4.54542 
        3.69146         71.0025         4.49716 
        3.70712         70.5153         4.44969 
        3.72284         69.5487         4.40273 
        3.73853         69.0521         4.35653 
        3.75422         68.5272         4.31097 
        3.76993         67.6008         4.26603 
        3.78564         66.8325         4.22175 
        3.80137         66.4609         4.17802 
        3.81707         65.7461           4.135 
        3.83279          65.173         4.09256 
        3.84853         64.8406         4.05064 
        3.86424         64.1239         4.00939 
        3.87992           63.45         3.96877 
        3.89561         62.7402         3.92872 
        3.91134          62.365         3.88914 
        3.92704         61.9309         3.85015 
        3.94273         61.0697         3.81173 
        3.95845         60.4668         3.77376 
        3.97418         60.0869         3.73631 
        3.98988         59.5741         3.69941 
        4.00554         58.8902         3.66312 
        4.02125         58.1559          3.6272 
        4.03698         57.8351         3.59171 
        4.05268         57.3839         3.55678 
        4.06839         56.7293         3.52228 
         4.0841         56.4684         3.48826 
        4.09983         55.8166         3.45463 
        4.11555         55.4466         3.42146 
        4.13124         54.9996         3.38882 
        4.14693         54.2644         3.35658 
        4.16266         53.9279         3.32468 
        4.17839         53.4959         3.29321 
        4.19408         53.0065         3.26223 
        4.20977         52.4045         3.23163 
        4.22551         52.0175         3.20134 
        4.24123          51.576         3.17148 
        4.25691         51.1314         3.14208 
        4.27259         50.7655         3.11304 
        4.28831         50.3079         3.08431 
        4.30404         49.7729         3.05592 
        4.31974         49.4808         3.02794 
        4.33543         49.0034         3.00034 
        4.35116         48.4752           2.973 
        4.36688         48.2273         2.94602 
        4.38255         47.8005         2.91948 
        4.39825         47.3254          2.8932 
        4.41398         47.0004          2.8672 
         4.4297         46.6693         2.84154 
        4.44541         46.1661          2.8162 
        4.46111         45.6638         2.79119 
        4.47683         45.3868         2.76647 
        4.49251         45.0274         2.74209 
        4.50819         44.6613         2.71802 
         4.5239         44.2234          2.6942 
        4.53962         43.9323         2.67063 
        4.55535         43.5655         2.64734 
        4.57106         43.3175         2.62435 
        4.58678         42.8442         2.60164 
         4.6025         42.4618         2.57919 
        4.61821          42.104           2.557 
        4.63391         41.7641         2.53511 
         4.6496         41.4246         2.51348 
        4.66532         41.1775         2.49207 
        4.68103         40.7447         2.47092 
        4.69673         40.4945         2.45003 
        4.71241         40.1229         2.42941 
        4.72811         39.7924         2.40899 
        4.74384         39.5235         2.38878 
        4.75955         39.1744         2.36883 
        4.77525         38.7989         2.34912 
        4.79096         38.4213         2.32961 
        4.80669         38.2011         2.31031 
         4.8224         37.9813         2.29125 
        4.83809         37.5747         2.27243 
        4.85379         37.4068         2.25381 
         4.8695         36.9991         2.23538 
        4.88521         36.7635         2.21716 
        4.90093         36.4216         2.19915 
        4.91663         36.0546         2.18135 
        4.93234         35.8943         2.16373 
        4.94807         35.5788         2.14629 
        4.96377          35.238         2.12908 
        4.97943          34.923         2.11209 
        4.99514         34.7676         2.09524 
        5.01086         34.4395         2.07857 
        5.02654         34.1826         2.06212 
        5.04227         33.9327         2.04579 
          5.058         33.6135         2.02964 
        5.07371         33.3832         2.01369 
        5.08942         33.0801         1.99792 
        5.10513         32.8973          1.9823 
        5.12084         32.5794         1.96685 
        5.13656         32.3941         1.95157 
        5.15225         32.1579         1.93647 
        5.16796          31.882         1.92151 
        5.18369         31.6266          1.9067 
         5.1994         31.2927         1.89206 
        5.21509         31.1057          1.8776 
        5.23079         30.8493         1.86327 
        5.24649         30.6658         1.84909 
        5.26217         30.4084         1.83508 
        5.27788         30.2318         1.82119 
        5.29359         29.9473         1.80744 
        5.30933          29.701         1.79382 
        5.32504         29.4567         1.78036 
        5.34073         29.2884         1.76705 
        5.35646         29.0797         1.75385 
        5.37218         28.8626         1.74078 
        5.38789         28.6234         1.72786 
        5.40357         28.4147          1.7151 
        5.41929         28.1888         1.70243 
        5.43502         28.0231         1.68989 
         5.4507         27.7873          1.6775 
        5.46639         27.5576         1.66524 
        5.48212          27.369         1.65307 
        5.49786         27.1649         1.64101 
        5.51353         26.9875         1.62913 
        5.52921         26.8196         1.61735 
        5.54495         26.5711         1.60566 
        5.56066         26.4232         1.59409 
        5.57637         26.1797         1.58265 
        5.59207         25.9948         1.57132 
        5.60778          25.794          1.5601 
        5.62346         25.6027           1.549 
        5.63916         25.4917           1.538 
        5.65487          25.254          1.5271 
         5.6706         25.0546          1.5163 
        5.68633         24.8982          1.5056 
        5.70203         24.7454         1.49502 
        5.71773         24.5516         1.48454 
        5.73344          24.323         1.47416 
        5.74916         24.1723         1.46387 
        5.76486         24.0502         1.45369 
        5.78054         23.8301         1.44362 
        5.79626         23.6809         1.43363 
          5.812         23.5238         1.42371 
         5.8277         23.3395         1.41392 
        5.84339         23.1732         1.40422 
        5.85911         22.9437         1.39459 
        5.87484         22.8632         1.38506 
        5.89053         22.7134         1.37563 
        5.90623         22.4749         1.36628 
        5.92195         22.3688         1.35701 
        5.93767         22.1832         1.34783 
        5.95336         22.0287         1.33875 
        5.96905         21.8973         1.32975 
        5.98476         21.7568         1.32082 
        6.00048         21.5638         1.31198 
        6.01617         21.4498         1.30322 
        6.03185         21.2882         1.29456 
        6.04756         21.1522         1.28596 
        6.06331           20.94         1.27741 
        6.07903         20.8785         1.26896 
        6.09473         20.6815          1.2606 
        6.11044         20.5682          1.2523 
        6.12616         20.4228         1.24408 
        6.14186         20.2956         1.23594 
        6.15755         20.1495         1.22787 
        6.17326         20.0151         1.21987 
        6.18898         19.8501         1.21194 
        6.20467         19.7309         1.20409 
        6.22036          19.585         1.19631 
         6.2361          19.464         1.18858 
         6.2518         19.3063         1.18093 
        6.26748         19.1663         1.17336 
        6.28319         19.0348         1.16584 
        6.29893         18.9209         1.15838 
        6.31463         18.7881           1.151 
        6.33033         18.6841         1.14368 
        6.34604         18.5579         1.13642 
        6.36177         18.4338         1.12922 
        6.37747         18.2999          1.1221 
