# k  (h/Mpc)    Pcb(k)  (Mpc/h)^3    Pcb_linear(k) (Mpc/h)^3   ShotnoiseSubtracted = true
      0.0200456         5842.84         5942.65 
      0.0350414          4372.7         4464.66 
      0.0492313         3313.02         3325.78 
      0.0637834         2821.76            2778 
      0.0800726         2236.21         2204.76 
       0.096163         1598.36          1623.8 
       0.111083         1284.46         1314.92 
       0.126058         1175.35         1163.79 
       0.142273         1005.51         978.843 
       0.158546         825.147         779.815 
        0.17375         676.321         665.991 
       0.188953          640.87         602.372 
       0.204907         596.007         528.855 
       0.220756         501.355          449.11 
        0.23588         441.103         394.624 
         0.2514         390.207          359.19 
       0.267535         369.161         323.213 
       0.283568         334.046         285.121 
       0.299022         308.194         255.702 
       0.314451         282.534         234.337 
       0.330372         261.934         214.384 
       0.346141         236.245         194.425 
       0.361624         224.376         177.314 
       0.377134         211.216          163.58 
       0.392932         193.047         151.264 
       0.408854         185.375         139.322 
       0.424564         177.754         128.617 
       0.440253          166.81         119.471 
       0.455999         157.285         111.337 
       0.471626         145.298         103.797 
        0.48727         141.331         96.8409 
       0.502856         134.997         90.6396 
       0.518488         131.081         85.0492 
       0.534347         125.329          79.814 
       0.550082         116.034         75.0032 
       0.565732         111.565         70.6296 
       0.581496         107.248         66.6104 
       0.597222         103.835         62.9071 
       0.612804          98.644         59.5005 
       0.628434         96.5355         56.3339 
       0.644267         93.3691         53.3734 
       0.660051         90.7685         50.6386 
       0.675724          87.429         48.1115 
       0.691403          84.818          45.755 
       0.707174         81.9526         43.5434 
       0.722871         79.8945         41.4869 
        0.73838         78.1551         39.5854 
       0.754018         74.3791         37.7889 
       0.769845          72.882         36.0844 
        0.78569         71.0131         34.4836 
       0.801365         68.6463          32.996 
       0.817031         66.6828         31.5975 
       0.832809           65.83         30.2716 
       0.848511         62.8049         29.0281 
       0.864097         61.2965         27.8634 
       0.879701         60.5493         26.7618 
       0.895507         59.4935         25.7072 
       0.911279         58.1514         24.7118 
        0.92691         56.5639         23.7777 
       0.942635         54.7383          22.887 
       0.958396         54.4555         22.0402 
       0.974128         53.0137          21.238 
       0.989692         52.0115         20.4839 
        1.00528         50.9714         19.7655 
        1.02113         49.4904         19.0704 
        1.03692         48.5093         18.4115 
        1.05264         47.9363         17.7869 
        1.06832         46.8022         17.1924 
        1.08405         46.1655         16.6236 
        1.09979         45.3538         16.0803 
        1.11537         43.7778         15.5667 
        1.13105         43.9338         15.0727 
        1.14679         43.1577         14.5982 
        1.16256         42.0906         14.1434 
        1.17828         41.2269         13.7094 
        1.19395         40.6071         13.2953 
         1.2097         40.1093         12.8962 
        1.22537         39.6361         12.5154 
          1.241         38.7142         12.1513 
        1.25666         37.8186         11.8008 
        1.27241         37.5824         11.4625 
        1.28819         36.5212          11.137 
        1.30392         36.1337         10.8251 
        1.31957         35.8928         10.5266 
        1.33529          35.513         10.2382 
        1.35108         34.8124         9.95962 
        1.36674          34.174          9.6934 
         1.3824         33.4417         9.43719 
        1.39811         33.3041         9.18942 
        1.41389         32.8061         8.94963 
        1.42964         32.2417         8.71883 
        1.44531         31.9766         8.49732 
        1.46101         31.1582         8.28306 
        1.47667         31.0016         8.07685 
        1.49229         30.7311         7.87824 
        1.50793         30.1771          7.6861 
        1.52367         29.8993         7.49916 
        1.53953         29.5761         7.31719 
        1.55526         29.0043         7.14274 
        1.57092         28.6843         6.97471 
        1.58662         28.2965          6.8117 
        1.60235          27.982         6.65361 
        1.61809         27.6085         6.50046 
        1.63369         27.2709         6.35351 
        1.64941         26.7696         6.21006 
        1.66519         26.6415         6.07053 
        1.68085         26.2491          5.9363 
        1.69652         25.9505          5.8061 
        1.71228         25.7117         5.67907 
        1.72806         25.3291         5.55575 
        1.74368         24.9932         5.43734 
        1.75933         24.7053         5.32215 
        1.77505         24.5233         5.20977 
        1.79081         24.1376         5.10044 
         1.8065         23.9724         4.99472 
        1.82218         23.6416          4.8921 
        1.83797         23.3221         4.79167 
        1.85367         23.0678         4.69462 
        1.86928         22.8303         4.60084 
        1.88497         22.4864         4.50912 
        1.90073         22.5024         4.41957 
        1.91647         22.0842         4.33253 
        1.93218         21.8944         4.24802 
        1.94787         21.7288          4.1659 
        1.96363          21.529         4.08563 
        1.97935         21.2689         4.00764 
        1.99499         21.0042         3.93214 
        2.01064         20.8079         3.85847 
         2.0264         20.4908         3.78623 
        2.04216          20.328         3.71588 
        2.05781         20.1047         3.64776 
        2.07353         19.9015         3.58111 
        2.08928         19.7999         3.51598 
        2.10499         19.4951         3.45265 
        2.12065         19.2067         3.39108 
        2.13633          19.165         3.33095 
        2.15211         18.8381         3.27189 
        2.16785         18.7836         3.21444 
        2.18349          18.589         3.15873 
        2.19916         18.3424         3.10422 
        2.21489         18.1854         3.05082 
        2.23063         18.0079         2.99864 
         2.2463         17.8317         2.94792 
        2.26194         17.7079          2.8985 
        2.27765         17.4787         2.84996 
        2.29341         17.2741          2.8024 
        2.30914         17.1266         2.75603 
        2.32486         17.0304         2.71074 
        2.34061          16.815         2.66639 
        2.35635         16.5957         2.62308 
        2.37203         16.5349         2.58088 
        2.38768         16.3775         2.53969 
        2.40339         16.1456         2.49926 
        2.41914         16.0073         2.45961 
        2.43483         15.8824         2.42096 
         2.4505         15.7035         2.38321 
        2.46622         15.5824         2.34614 
        2.48195         15.4095         2.30985 
        2.49759         15.3166         2.27453 
        2.51328         15.1346         2.23985 
        2.52906         15.0102         2.20568 
        2.54479         14.8931         2.17235 
        2.56049         14.7639         2.13977 
        2.57618         14.6651         2.10789 
        2.59189         14.4785         2.07661 
        2.60758         14.3885         2.04601 
        2.62325          14.278         2.01607 
        2.63898         14.0708         1.98663 
        2.65468          14.022         1.95783 
        2.67044         13.8526         1.92949 
        2.68618         13.7413         1.90177 
        2.70184          13.614          1.8747 
        2.71755         13.4692          1.8481 
        2.73329         13.3662         1.82197 
        2.74897         13.2281         1.79643 
        2.76462         13.2225         1.77144 
        2.78034         13.0098         1.74682 
        2.79607         12.8941         1.72265 
        2.81179         12.7746         1.69896 
        2.82749         12.6974         1.67574 
        2.84321         12.5319         1.65293 
        2.85893         12.4645         1.63055 
        2.87462         12.3703         1.60862 
        2.89033         12.1967         1.58708 
        2.90605          12.122         1.56591 
        2.92176         12.0592         1.54515 
        2.93747          11.916         1.52476 
        2.95318         11.8333         1.50475 
        2.96891         11.6994         1.48508 
        2.98456         11.6337         1.46585 
        3.00023         11.5507         1.44693 
        3.01596         11.4282         1.42829 
        3.03164         11.3537         1.41003 
        3.04738         11.2275         1.39204 
         3.0631         11.1168         1.37436 
        3.07883         11.0306           1.357 
        3.09456         10.9649         1.33993 
        3.11026         10.8001         1.32319 
        3.12596         10.8005         1.30673 
        3.14163         10.6809         1.29059 
        3.15734         10.5756         1.27469 
        3.17308         10.5283         1.25902 
        3.18879         10.4384         1.24365 
        3.20447         10.3148         1.22856 
         3.2202         10.2318         1.21368 
         3.2359         10.1847         1.19907 
        3.25157         10.0947         1.18473 
        3.26729         9.99457         1.17059 
        3.28304         9.90691         1.15664 
        3.29877         9.82098         1.14295 
        3.31446         9.77446          1.1295 
        3.33014         9.65568         1.11629 
        3.34585         9.62929         1.10326 
        3.36158         9.52128         1.09043 
        3.37727          9.4549         1.07783 
        3.39294         9.37134         1.06545 
        3.40867         9.24414         1.05322 
        3.42439         9.22091         1.04119 
        3.44008         9.13613         1.02937 
        3.45578         9.07488         1.01772 
        3.47153         9.02456         1.00623 
        3.48724         8.94517        0.994933 
        3.50292         8.85775        0.983838 
        3.51859         8.79635        0.972918 
        3.53431         8.71944         0.96213 
        3.55007         8.67325        0.951479 
        3.56577         8.60699        0.941031 
        3.58146         8.53243        0.930744 
        3.59719         8.44706        0.920587 
        3.61292         8.39734        0.910586 
        3.62859           8.299        0.900771 
        3.64429         8.25854        0.891081 
        3.66003         8.18767        0.881505 
        3.67578         8.10633        0.872073 
        3.69146         8.06833        0.862814 
        3.70712         8.02636        0.853707 
        3.72284         7.92478        0.844697 
        3.73853         7.89264        0.835833 
        3.75422         7.81432        0.827093 
        3.76993         7.76215        0.818471 
        3.78564         7.70082        0.809974 
        3.80137         7.64373        0.801585 
        3.81707         7.56893        0.793332 
        3.83279         7.55193        0.785188 
        3.84853         7.47484        0.777146 
        3.86424         7.38957        0.769232 
        3.87992         7.34108         0.76144 
        3.89561          7.3035        0.753755 
        3.91134         7.23636        0.746161 
        3.92704         7.18794         0.73868 
        3.94273         7.13178         0.73131 
        3.95845         7.08538        0.724026 
        3.97418         7.02608         0.71684 
        3.98988         6.97479        0.709761 
        4.00554         6.91148        0.702797 
        4.02125          6.8612        0.695906 
        4.03698         6.82243        0.689098 
        4.05268         6.77364        0.682395 
        4.06839         6.71159        0.675777 
         4.0841         6.67533        0.669249 
        4.09983         6.63105        0.662798 
        4.11555         6.59083        0.656434 
        4.13124         6.52545        0.650172 
        4.14693         6.46756        0.643985 
        4.16266         6.41505        0.637865 
        4.17839         6.36745        0.631829 
        4.19408         6.31221        0.625884 
        4.20977         6.26338        0.620012 
        4.22551         6.22476        0.614202 
        4.24123         6.17717        0.608473 
        4.25691         6.13455        0.602832 
        4.27259         6.08577        0.597261 
        4.28831         6.04078        0.591749 
        4.30404         5.99071        0.586302 
        4.31974         5.94653        0.580934 
        4.33543          5.8998        0.575637 
        4.35116         5.87224        0.570394 
        4.36688         5.81596        0.565217 
        4.38255         5.76347        0.560125 
        4.39825         5.73102        0.555083 
        4.41398         5.68752        0.550094 
         4.4297          5.6796        0.545172 
        4.44541         5.60698         0.54031 
        4.46111         5.58532        0.535512 
        4.47683         5.51909        0.530768 
        4.49251         5.49917        0.526092 
        4.50819         5.45681        0.521473 
         4.5239         5.40478        0.516902 
        4.53962         5.38441        0.512381 
        4.55535         5.33076        0.507912 
        4.57106         5.29256        0.503502 
        4.58678         5.26138        0.499144 
         4.6025         5.21339        0.494837 
        4.61821         5.18589        0.490581 
        4.63391         5.14963         0.48638 
         4.6496         5.10518         0.48223 
        4.66532         5.08337        0.478123 
        4.68103         5.03111        0.474065 
        4.69673          5.0052        0.470058 
        4.71241         4.97055        0.466101 
        4.72811         4.93454        0.462183 
        4.74384         4.90381        0.458305 
        4.75955         4.86019        0.454478 
        4.77525         4.83236        0.450696 
        4.79096         4.79803        0.446953 
        4.80669         4.75939        0.443251 
         4.8224         4.73766        0.439595 
        4.83809         4.69605        0.435983 
        4.85379         4.65597         0.43241 
         4.8695         4.63067        0.428875 
        4.88521          4.6042         0.42538 
        4.90093         4.56832        0.421924 
        4.91663         4.53276        0.418509 
        4.93234          4.5188        0.415128 
        4.94807         4.47589        0.411783 
        4.96377         4.44763         0.40848 
        4.97943         4.40676        0.405221 
        4.99514         4.37978        0.401989 
        5.01086         4.34578        0.398789 
        5.02654         4.33469        0.395633 
        5.04227         4.29443        0.392501 
          5.058         4.26617        0.389402 
        5.07371         4.24249        0.386343 
        5.08942         4.21673        0.383315 
        5.10513         4.18753         0.38032 
        5.12084         4.15659        0.377356 
        5.13656         4.13726        0.374424 
        5.15225         4.10656        0.371527 
        5.16796         4.07854        0.368657 
        5.18369         4.04413        0.365814 
         5.1994         4.02378        0.363007 
        5.21509         3.99881        0.360232 
        5.23079         3.96866        0.357482 
        5.24649         3.94221        0.354763 
        5.26217         3.92184        0.352074 
        5.27788         3.89174         0.34941 
        5.29359         3.85943        0.346772 
        5.30933           3.836        0.344158 
        5.32504          3.8206        0.341575 
        5.34073         3.78619        0.339021 
        5.35646         3.76438        0.336489 
        5.37218         3.74101        0.333982 
        5.38789         3.72079        0.331504 
        5.40357         3.69792        0.329054 
        5.41929         3.66173        0.326624 
        5.43502          3.6497        0.324218 
         5.4507         3.61676        0.321842 
        5.46639         3.59784        0.319489 
        5.48212         3.58585        0.317155 
        5.49786         3.56171        0.314841 
        5.51353         3.52933        0.312561 
        5.52921         3.50518        0.310302 
        5.54495         3.48343        0.308058 
        5.56066          3.4673        0.305839 
        5.57637         3.44276        0.303643 
        5.59207         3.42489        0.301469 
        5.60778         3.40285        0.299317 
        5.62346          3.3703        0.297188 
        5.63916         3.35675        0.295078 
        5.65487          3.3376        0.292987 
         5.6706         3.32346        0.290914 
        5.68633          3.2938         0.28886 
        5.70203          3.2736         0.28683 
        5.71773          3.2638        0.284821 
        5.73344         3.24358        0.282829 
        5.74916         3.22081        0.280855 
        5.76486          3.1987        0.278902 
        5.78054         3.17598         0.27697 
        5.79626         3.16442        0.275052 
          5.812         3.14889         0.27315 
         5.8277         3.12956        0.271271 
        5.84339         3.10712         0.26941 
        5.85911         3.08748        0.267563 
        5.87484          3.0778        0.265734 
        5.89053         3.04282        0.263925 
        5.90623         3.03116        0.262132 
        5.92195         3.01525        0.260353 
        5.93767         3.00118        0.258591 
        5.95336         2.98313        0.256849 
        5.96905         2.96568        0.255123 
        5.98476         2.95065         0.25341 
        6.00048         2.92429        0.251713 
        6.01617         2.91429        0.250034 
        6.03185         2.89044        0.248372 
        6.04756         2.87529        0.246721 
        6.06331         2.85693        0.245081 
        6.07903         2.84442         0.24346 
        6.09473         2.82926        0.241855 
        6.11044         2.80754        0.240263 
        6.12616         2.79779        0.238686 
        6.14186         2.77617        0.237124 
        6.15755         2.76379        0.235576 
        6.17326         2.74865        0.234041 
        6.18898         2.72995        0.232519 
        6.20467         2.71743        0.231013 
        6.22036         2.69752        0.229521 
         6.2361         2.68671        0.228038 
         6.2518         2.66756         0.22657 
        6.26748         2.65661        0.225119 
        6.28319         2.63844        0.223676 
        6.29893         2.62547        0.222244 
        6.31463         2.61049        0.220828 
        6.33033         2.60123        0.219424 
        6.34604         2.58082        0.218032 
        6.36177         2.56695         0.21665 
        6.37747         2.55411        0.215283 
