# k  (h/Mpc)    Pcb(k)  (Mpc/h)^3    Pcb_linear(k) (Mpc/h)^3   ShotnoiseSubtracted = true
      0.0200456         24694.9         25338.1 
      0.0350414         18034.9         19036.3 
      0.0492313         13767.6         14180.3 
      0.0637834         12007.2         11844.7 
      0.0800726         9462.99         9400.57 
       0.096163         6623.95         6923.51 
       0.111083         5404.65         5606.52 
       0.126058         4969.07         4962.12 
       0.142273         4286.12         4173.56 
       0.158546          3827.4         3324.95 
        0.17375         3090.51         2839.63 
       0.188953         3029.06         2568.38 
       0.204907         2842.71         2254.92 
       0.220756         2482.29          1914.9 
        0.23588         2234.37         1682.58 
         0.2514         1957.57          1531.5 
       0.267535         1967.17         1378.11 
       0.283568         1785.42         1215.69 
       0.299022         1697.83         1090.26 
       0.314451         1618.28         999.158 
       0.330372          1481.2         914.084 
       0.346141         1448.87         828.982 
       0.361624         1392.51         756.024 
       0.377134         1301.41         697.466 
       0.392932         1248.14         644.954 
       0.408854         1230.09         594.036 
       0.424564         1133.83         548.391 
       0.440253         1111.07         509.396 
       0.455999         1090.72         474.717 
       0.471626         1049.78         442.566 
        0.48727         1009.71         412.907 
       0.502856         974.056         386.466 
       0.518488         972.758          362.63 
       0.534347         912.925         340.309 
       0.550082         898.643         319.796 
       0.565732         886.818         301.149 
       0.581496         846.032         284.011 
       0.597222         824.923         268.221 
       0.612804         814.095         253.696 
       0.628434         792.921         240.195 
       0.644267         772.066         227.572 
       0.660051         754.712         215.911 
       0.675724         746.215         205.136 
       0.691403         723.778         195.089 
       0.707174         700.239         185.659 
       0.722871         686.725         176.891 
        0.73838         674.287         168.783 
       0.754018         664.178         161.123 
       0.769845         651.911         153.855 
        0.78569         641.532          147.03 
       0.801365         623.565         140.687 
       0.817031         611.643         134.724 
       0.832809         603.596         129.071 
       0.848511         590.613         123.769 
       0.864097         571.357         118.803 
       0.879701         563.404         114.106 
       0.895507         562.587         109.609 
       0.911279         549.011         105.366 
        0.92691         540.991         101.383 
       0.942635         524.991         97.5847 
       0.958396         512.967         93.9744 
       0.974128         507.642         90.5541 
       0.989692         503.457         87.3388 
        1.00528         486.269         84.2756 
        1.02113         484.602          81.312 
        1.03692         473.205         78.5026 
        1.05264         466.726         75.8394 
        1.06832         455.621         73.3045 
        1.08405         450.258         70.8792 
        1.09979          443.08         68.5626 
        1.11537         435.441          66.373 
        1.13105         429.021         64.2664 
        1.14679         417.634         62.2435 
        1.16256         408.355          60.304 
        1.17828         407.868         58.4539 
        1.19395         399.284          56.688 
         1.2097         388.453         54.9863 
        1.22537         383.024          53.363 
          1.241         376.377         51.8104 
        1.25666          372.61         50.3159 
        1.27241         365.519         48.8735 
        1.28819         357.734         47.4855 
        1.30392         352.381         46.1557 
        1.31957         347.095         44.8828 
        1.33529         344.215         43.6535 
        1.35108         336.118         42.4655 
        1.36674         330.363         41.3304 
         1.3824         326.497          40.238 
        1.39811         320.386         39.1816 
        1.41389         316.541         38.1592 
        1.42964         312.168         37.1751 
        1.44531          308.91         36.2306 
        1.46101         300.506         35.3171 
        1.47667         296.587         34.4378 
        1.49229         293.183          33.591 
        1.50793         285.372         32.7718 
        1.52367         284.276         31.9747 
        1.53953         278.013         31.1988 
        1.55526         274.931          30.455 
        1.57092         272.018         29.7386 
        1.58662          267.93         29.0435 
        1.60235         263.089         28.3694 
        1.61809         258.924         27.7165 
        1.63369         255.976         27.0899 
        1.64941         251.055         26.4783 
        1.66519         248.858         25.8834 
        1.68085          246.25          25.311 
        1.69652         241.888         24.7559 
        1.71228         235.727         24.2142 
        1.72806         232.809         23.6884 
        1.74368         229.429         23.1836 
        1.75933         227.015         22.6924 
        1.77505         224.243         22.2133 
        1.79081         220.885         21.7471 
         1.8065         215.973         21.2964 
        1.82218         213.636         20.8588 
        1.83797         213.078         20.4306 
        1.85367         208.575         20.0168 
        1.86928         204.667         19.6169 
        1.88497         202.504         19.2259 
        1.90073         199.204          18.844 
        1.91647         197.319         18.4729 
        1.93218         193.589         18.1126 
        1.94787         190.573         17.7625 
        1.96363         187.946         17.4202 
        1.97935         185.349         17.0877 
        1.99499         183.419         16.7657 
        2.01064         180.495         16.4516 
         2.0264         179.164         16.1436 
        2.04216         176.622         15.8436 
        2.05781         173.824         15.5532 
        2.07353         171.291          15.269 
        2.08928         168.212         14.9913 
        2.10499         166.976         14.7213 
        2.12065         164.697         14.4588 
        2.13633          161.87         14.2024 
        2.15211         159.545         13.9506 
        2.16785          158.43         13.7056 
        2.18349         156.267         13.4681 
        2.19916         153.889         13.2357 
        2.21489         152.085          13.008 
        2.23063         150.205         12.7855 
         2.2463         147.524         12.5692 
        2.26194         145.223         12.3585 
        2.27765          143.91         12.1516 
        2.29341         141.868         11.9488 
        2.30914         140.505         11.7511 
        2.32486         138.734          11.558 
        2.34061          136.72         11.3689 
        2.35635          135.05         11.1842 
        2.37203         133.417         11.0043 
        2.38768         131.514         10.8287 
        2.40339         129.774         10.6563 
        2.41914          128.34         10.4872 
        2.43483         126.861         10.3224 
         2.4505         125.419         10.1615 
        2.46622         123.583         10.0034 
        2.48195         121.905         9.84869 
        2.49759         120.802         9.69807 
        2.51328         119.728         9.55021 
        2.52906          117.88         9.40451 
        2.54479         116.066         9.26239 
        2.56049         114.233         9.12348 
        2.57618         113.317         8.98755 
        2.59189         112.205         8.85418 
        2.60758         110.531         8.72374 
        2.62325         109.186         8.59608 
        2.63898         108.022         8.47053 
        2.65468         106.518         8.34776 
        2.67044         105.091         8.22689 
        2.68618          104.42          8.1087 
        2.70184         103.108         7.99331 
        2.71755         101.733         7.87987 
        2.73329         100.476         7.76847 
        2.74897         99.4615         7.65958 
        2.76462         98.0519         7.55303 
        2.78034         96.9937         7.44806 
        2.79607         95.8085         7.34497 
        2.81179         95.3089         7.24396 
        2.82749         93.9756         7.14496 
        2.84321         92.5538          7.0477 
        2.85893          91.467         6.95229 
        2.87462         90.5337          6.8588 
        2.89033         89.3763         6.76695 
        2.90605         88.5369          6.6767 
        2.92176          87.317         6.58814 
        2.93747         86.5303         6.50124 
        2.95318         86.0054         6.41589 
        2.96891         85.0114         6.33203 
        2.98456         83.8355         6.25004 
        3.00023         83.0411         6.16939 
        3.01596         81.9437          6.0899 
        3.03164         81.2057         6.01205 
        3.04738         80.2152         5.93533 
         3.0631         79.2955         5.85997 
        3.07883         78.4279         5.78593 
        3.09456         77.6623         5.71317 
        3.11026         76.9078         5.64177 
        3.12596         76.2267         5.57161 
        3.14163         75.1841          5.5028 
        3.15734         74.4858         5.43499 
        3.17308         73.6683         5.36816 
        3.18879         72.9213         5.30264 
        3.20447         71.9385         5.23831 
         3.2202         71.2622         5.17485 
         3.2359          70.477         5.11255 
        3.25157         70.0637         5.05142 
        3.26729          69.109         4.99111 
        3.28304         68.3812         4.93167 
        3.29877         67.6466         4.87327 
        3.31446         67.0413         4.81595 
        3.33014         66.2038          4.7596 
        3.34585         65.4093         4.70406 
        3.36158         64.8422         4.64933 
        3.37727         64.3105         4.59564 
        3.39294         63.4739         4.54285 
        3.40867         62.9792         4.49069 
        3.42439         62.1361         4.43939 
        3.44008         61.5072         4.38898 
        3.45578         60.8147         4.33932 
        3.47153         60.3352         4.29032 
        3.48724          59.831         4.24217 
        3.50292         59.3575         4.19486 
        3.51859         58.6083          4.1483 
        3.53431         57.9405          4.1023 
        3.55007         57.5251         4.05689 
        3.56577         56.9188         4.01234 
        3.58146         56.2688         3.96848 
        3.59719         55.7244         3.92517 
        3.61292         55.1805         3.88253 
        3.62859         54.6518         3.84068 
        3.64429         54.1319         3.79937 
        3.66003          53.586         3.75854 
        3.67578         52.9483         3.71832 
        3.69146         52.6436         3.67884 
        3.70712         52.1139         3.64001 
        3.72284         51.6225          3.6016 
        3.73853         51.1838          3.5638 
        3.75422         50.5726         3.52654 
        3.76993         50.1767         3.48977 
        3.78564         49.5907         3.45355 
        3.80137         49.1601         3.41777 
        3.81707         48.6417         3.38259 
        3.83279          48.221         3.34786 
        3.84853         47.7652         3.31357 
        3.86424         47.4037         3.27983 
        3.87992         46.8982         3.24661 
        3.89561         46.4694         3.21384 
        3.91134         46.0978         3.18146 
        3.92704         45.6725         3.14956 
        3.94273          45.245         3.11814 
        3.95845         44.7533         3.08708 
        3.97418         44.3202         3.05644 
        3.98988         43.9876         3.02626 
        4.00554         43.6128         2.99656 
        4.02125         43.0995         2.96719 
        4.03698         42.6877         2.93815 
        4.05268         42.2792         2.90958 
        4.06839         41.9457         2.88136 
         4.0841         41.6625         2.85352 
        4.09983          41.237         2.82602 
        4.11555         40.7356         2.79889 
        4.13124         40.4184         2.77218 
        4.14693         40.2584         2.74581 
        4.16266         39.8271         2.71971 
        4.17839         39.4749         2.69397 
        4.19408          38.986         2.66862 
        4.20977         38.7055         2.64359 
        4.22551         38.3959         2.61882 
        4.24123         38.0979         2.59439 
        4.25691         37.7259         2.57034 
        4.27259         37.3195         2.54658 
        4.28831         37.1567         2.52308 
        4.30404         36.7648         2.49986 
        4.31974         36.4169         2.47697 
        4.33543          36.069         2.45439 
        4.35116         35.8203         2.43203 
        4.36688          35.561         2.40996 
        4.38255         35.1304         2.38824 
        4.39825         34.9025         2.36675 
        4.41398         34.5586         2.34548 
         4.4297         34.1711         2.32449 
        4.44541          33.971         2.30376 
        4.46111          33.704          2.2833 
        4.47683         33.4151         2.26307 
        4.49251         33.1399         2.24313 
        4.50819         32.7956         2.22344 
         4.5239         32.5854         2.20395 
        4.53962         32.2515         2.18468 
        4.55535         32.0182         2.16562 
        4.57106         31.7663         2.14682 
        4.58678         31.3762         2.12824 
         4.6025         31.2002         2.10987 
        4.61821         30.9572         2.09172 
        4.63391         30.6527         2.07381 
         4.6496           30.34         2.05612 
        4.66532         30.1608         2.03861 
        4.68103         29.9691          2.0213 
        4.69673         29.6185         2.00422 
        4.71241         29.4647         1.98735 
        4.72811         29.2051         1.97064 
        4.74384         28.9144         1.95411 
        4.75955         28.7102         1.93779 
        4.77525         28.4891         1.92167 
        4.79096         28.2568         1.90571 
        4.80669         28.0122         1.88992 
         4.8224         27.8382         1.87433 
        4.83809         27.5805         1.85893 
        4.85379         27.3081          1.8437 
         4.8695         27.1103         1.82862 
        4.88521          26.928         1.81372 
        4.90093         26.7063         1.79899 
        4.91663         26.3938         1.78443 
        4.93234         26.2399         1.77001 
        4.94807          26.069         1.75575 
        4.96377         25.8449         1.74167 
        4.97943         25.6388         1.72777 
        4.99514         25.4208         1.71399 
        5.01086         25.2601         1.70035 
        5.02654         25.0274         1.68689 
        5.04227         24.7865         1.67354 
          5.058         24.7052         1.66032 
        5.07371         24.4408         1.64728 
        5.08942         24.2855         1.63437 
        5.10513         24.0261          1.6216 
        5.12084         23.8764         1.60896 
        5.13656         23.7067         1.59646 
        5.15225         23.4834         1.58411 
        5.16796         23.3114         1.57187 
        5.18369         23.1441         1.55975 
         5.1994         22.9533         1.54778 
        5.21509         22.8231         1.53594 
        5.23079         22.5828         1.52422 
        5.24649         22.3942         1.51263 
        5.26217         22.2239         1.50116 
        5.27788          22.099          1.4898 
        5.29359         21.9531         1.47856 
        5.30933         21.7369         1.46741 
        5.32504         21.5695          1.4564 
        5.34073         21.4104         1.44551 
        5.35646         21.2929         1.43471 
        5.37218         21.1208         1.42402 
        5.38789         20.9294         1.41346 
        5.40357          20.764         1.40301 
        5.41929         20.6125         1.39265 
        5.43502         20.4898         1.38239 
         5.4507         20.3192         1.37226 
        5.46639         20.1945         1.36223 
        5.48212         20.0144         1.35228 
        5.49786         19.8914         1.34241 
        5.51353         19.7029         1.33269 
        5.52921         19.5307         1.32306 
        5.54495         19.3919         1.31349 
        5.56066         19.3087         1.30403 
        5.57637         19.1464         1.29466 
        5.59207         18.9546          1.2854 
        5.60778         18.8309         1.27622 
        5.62346         18.6744         1.26714 
        5.63916         18.5683         1.25814 
        5.65487          18.445         1.24923 
         5.6706         18.2982         1.24039 
        5.68633         18.1588         1.23163 
        5.70203         17.9944         1.22298 
        5.71773         17.8823         1.21441 
        5.73344         17.7606         1.20592 
        5.74916         17.6302          1.1975 
        5.76486         17.5258         1.18917 
        5.78054         17.3603         1.18094 
        5.79626         17.2697         1.17276 
          5.812         17.1196         1.16465 
         5.8277         17.0399         1.15664 
        5.84339         16.9292          1.1487 
        5.85911         16.7843         1.14083 
        5.87484         16.6363         1.13303 
        5.89053          16.536         1.12532 
        5.90623         16.4425         1.11767 
        5.92195         16.3326         1.11008 
        5.93767         16.2112         1.10257 
        5.95336          16.091         1.09514 
        5.96905         15.9779         1.08779 
        5.98476         15.8475         1.08048 
        6.00048          15.735         1.07325 
        6.01617         15.6249         1.06609 
        6.03185         15.5233           1.059 
        6.04756         15.4086         1.05196 
        6.06331         15.2967         1.04497 
        6.07903         15.1844         1.03806 
        6.09473         15.1013         1.03121 
        6.11044         14.9945         1.02443 
        6.12616         14.8744          1.0177 
        6.14186         14.7956         1.01104 
        6.15755         14.6827         1.00444 
        6.17326         14.5717        0.997898 
        6.18898         14.4946        0.991409 
        6.20467         14.3803        0.984988 
        6.22036         14.2821        0.978625 
         6.2361         14.1777        0.972301 
         6.2518         14.0755        0.966043 
        6.26748         13.9896        0.959854 
        6.28319         13.9007        0.953702 
        6.29893         13.7785        0.947599 
        6.31463         13.7048        0.941559 
        6.33033         13.6002        0.935574 
        6.34604         13.5295        0.929636 
        6.36177         13.4598        0.923745 
        6.37747         13.3349        0.917915 
