# k  (h/Mpc)    Pcb(k)  (Mpc/h)^3    Pcb_linear(k) (Mpc/h)^3   ShotnoiseSubtracted = true
      0.0200456         2245.39         2279.24 
      0.0350414         1693.86         1712.37 
      0.0492313         1276.85         1275.57 
      0.0637834         1077.64         1065.47 
      0.0800726           854.6         845.611 
       0.096163         618.191         622.792 
       0.111083         497.285         504.324 
       0.126058         449.295         446.358 
       0.142273         381.809         375.425 
       0.158546         307.472          299.09 
        0.17375         255.974         255.434 
       0.188953         237.176         231.033 
       0.204907         216.981         202.837 
       0.220756         181.455         172.251 
        0.23588         159.363         151.354 
         0.2514         142.651         137.763 
       0.267535         131.099         123.965 
       0.283568         117.386         109.355 
       0.299022         106.963         98.0718 
       0.314451         96.0962         89.8773 
       0.330372         89.2554         82.2247 
       0.346141         80.9319         74.5695 
       0.361624         75.2288         68.0067 
       0.377134         70.7904         62.7393 
       0.392932         62.9237         58.0156 
       0.408854         60.5527         53.4354 
       0.424564         57.0017         49.3295 
       0.440253         52.5633         45.8218 
       0.455999          49.617         42.7022 
       0.471626         46.4408         39.8102 
        0.48727         44.2075         37.1423 
       0.502856         41.4454         34.7638 
       0.518488         39.6394         32.6197 
       0.534347         38.0176         30.6118 
       0.550082         34.7924         28.7667 
       0.565732         32.4673         27.0892 
       0.581496         31.7841         25.5477 
       0.597222         30.6876         24.1273 
       0.612804         28.6257         22.8208 
       0.628434         27.6143         21.6063 
       0.644267         26.8463         20.4708 
       0.660051         25.4284         19.4219 
       0.675724         24.1339         18.4526 
       0.691403         23.3519         17.5489 
       0.707174         22.5104         16.7006 
       0.722871         21.6016         15.9119 
        0.73838          20.833         15.1826 
       0.754018         20.0408         14.4935 
       0.769845         19.3229         13.8398 
        0.78569         18.7217         13.2258 
       0.801365         17.9891         12.6553 
       0.817031         17.5066         12.1189 
       0.832809         17.1185         11.6103 
       0.848511         16.0732         11.1334 
       0.864097         15.7393         10.6867 
       0.879701         15.3015         10.2642 
       0.895507         14.7392         9.85971 
       0.911279         14.4248         9.47796 
        0.92691         13.9967         9.11968 
       0.942635          13.412         8.77805 
       0.958396         13.0815         8.45329 
       0.974128         12.7269         8.14563 
       0.989692         12.5982          7.8564 
        1.00528         12.1848         7.58085 
        1.02113         11.6921         7.31427 
        1.03692         11.4467         7.06155 
        1.05264         11.1772         6.82199 
        1.06832         10.9241         6.59396 
        1.08405         10.5556          6.3758 
        1.09979         10.3237         6.16742 
        1.11537         10.1586         5.97046 
        1.13105         9.88965         5.78096 
        1.14679         9.71386         5.59899 
        1.16256         9.39871         5.42453 
        1.17828         9.32048         5.25811 
        1.19395         8.98691         5.09926 
         1.2097         8.80102         4.94619 
        1.22537         8.57947         4.80017 
          1.241         8.45662          4.6605 
        1.25666         8.32439         4.52607 
        1.27241         8.08634         4.39633 
        1.28819          7.9037         4.27147 
        1.30392         7.81148         4.15184 
        1.31957         7.64367         4.03735 
        1.33529         7.50198         3.92677 
        1.35108         7.30114         3.81991 
        1.36674         7.26908          3.7178 
         1.3824         7.00994         3.61953 
        1.39811         6.92186          3.5245 
        1.41389         6.80981         3.43253 
        1.42964         6.70366         3.34401 
        1.44531         6.58569         3.25906 
        1.46101         6.44834         3.17688 
        1.47667         6.32962         3.09779 
        1.49229         6.26447         3.02162 
        1.50793         6.09701         2.94792 
        1.52367         6.04279         2.87622 
        1.53953         5.91593         2.80643 
        1.55526         5.81814         2.73952 
        1.57092         5.76749         2.67508 
        1.58662         5.62645         2.61256 
        1.60235         5.56004         2.55192 
        1.61809         5.46212         2.49318 
        1.63369         5.36929         2.43682 
        1.64941         5.30081          2.3818 
        1.66519         5.23511         2.32829 
        1.68085         5.13039         2.27681 
        1.69652          5.0427         2.22687 
        1.71228         4.98362         2.17815 
        1.72806         4.90953         2.13085 
        1.74368         4.81964         2.08543 
        1.75933         4.77743         2.04125 
        1.77505         4.71045         1.99815 
        1.79081         4.60914         1.95622 
         1.8065          4.5758         1.91567 
        1.82218         4.51664         1.87631 
        1.83797         4.47361         1.83779 
        1.85367         4.38768         1.80057 
        1.86928         4.34815          1.7646 
        1.88497         4.27323         1.72943 
        1.90073          4.2016         1.69508 
        1.91647         4.15392          1.6617 
        1.93218         4.12009         1.62928 
        1.94787         4.07652         1.59779 
        1.96363         4.01119           1.567 
        1.97935          3.9564         1.53709 
        1.99499         3.88733         1.50813 
        2.01064         3.85955         1.47987 
         2.0264          3.8068         1.45217 
        2.04216         3.77248         1.42518 
        2.05781         3.71881         1.39906 
        2.07353         3.67452          1.3735 
        2.08928         3.64406         1.34852 
        2.10499         3.59018         1.32423 
        2.12065          3.5665         1.30061 
        2.13633         3.51184         1.27755 
        2.15211         3.46849          1.2549 
        2.16785         3.43519         1.23286 
        2.18349         3.39799          1.2115 
        2.19916         3.33471         1.19059 
        2.21489         3.32308         1.17011 
        2.23063          3.2689          1.1501 
         2.2463         3.24539         1.13064 
        2.26194         3.20258         1.11169 
        2.27765         3.18457         1.09307 
        2.29341         3.13894         1.07483 
        2.30914         3.10659         1.05705 
        2.32486         3.08383         1.03968 
        2.34061         3.05093         1.02267 
        2.35635         3.00087         1.00605 
        2.37203         2.99361        0.989868 
        2.38768         2.95691        0.974072 
        2.40339         2.92794        0.958564 
        2.41914         2.89024        0.943357 
        2.43483         2.87483        0.928535 
         2.4505         2.82782        0.914057 
        2.46622         2.82326        0.899837 
        2.48195           2.776         0.88592 
        2.49759         2.75369        0.872371 
        2.51328         2.72832        0.859071 
        2.52906         2.71813        0.845964 
        2.54479         2.67639         0.83318 
        2.56049         2.65595        0.820685 
        2.57618         2.62808        0.808458 
        2.59189         2.62209        0.796461 
        2.60758         2.58296        0.784727 
        2.62325         2.56099        0.773244 
        2.63898         2.52943        0.761951 
        2.65468         2.50871        0.750907 
        2.67044         2.49316        0.740035 
        2.68618         2.46529        0.729403 
        2.70184         2.44406        0.719023 
        2.71755         2.42812        0.708819 
        2.73329         2.40156        0.698798 
        2.74897         2.38994        0.689003 
        2.76462         2.36184        0.679418 
        2.78034         2.34653        0.669976 
        2.79607         2.31735        0.660703 
        2.81179         2.30534        0.651617 
        2.82749         2.28329        0.642712 
        2.84321         2.26502        0.633963 
        2.85893         2.25114         0.62538 
        2.87462          2.2275         0.61697 
        2.89033         2.20524        0.608708 
        2.90605         2.18872         0.60059 
        2.92176         2.17159        0.592624 
        2.93747         2.15398        0.584807 
        2.95318          2.1373        0.577129 
        2.96891         2.12471        0.569586 
        2.98456          2.1062        0.562211 
        3.00023         2.08995        0.554955 
        3.01596         2.07415        0.547806 
        3.03164         2.05829        0.540803 
        3.04738         2.03766        0.533901 
         3.0631         2.02027        0.527123 
        3.07883         2.01083        0.520462 
        3.09456         1.99808        0.513917 
        3.11026         1.97922        0.507495 
        3.12596         1.96474        0.501183 
        3.14163         1.94968        0.494994 
        3.15734         1.93898        0.488894 
        3.17308         1.91921        0.482883 
        3.18879          1.9148        0.476989 
        3.20447         1.89858        0.471202 
         3.2202         1.88014        0.465493 
         3.2359         1.86636        0.459889 
        3.25157         1.85676        0.454391 
        3.26729          1.8358        0.448966 
        3.28304          1.8354        0.443619 
        3.29877         1.81148        0.438366 
        3.31446         1.79804        0.433209 
        3.33014         1.79563         0.42814 
        3.34585         1.78113        0.423145 
        3.36158         1.76513        0.418221 
        3.37727         1.75579        0.413392 
        3.39294         1.73779        0.408643 
        3.40867         1.72354        0.403952 
        3.42439         1.71784        0.399337 
        3.44008          1.7098        0.394803 
        3.45578         1.70031        0.390336 
        3.47153         1.68298        0.385928 
        3.48724         1.67243        0.381596 
        3.50292         1.66391        0.377341 
        3.51859         1.65597        0.373152 
        3.53431         1.64145        0.369015 
        3.55007         1.62977         0.36493 
        3.56577         1.62082        0.360922 
        3.58146         1.61369        0.356977 
        3.59719         1.60071        0.353082 
        3.61292         1.59511        0.349246 
        3.62859         1.58072        0.345481 
        3.64429         1.57053        0.341765 
        3.66003         1.55794        0.338092 
        3.67578         1.54978        0.334474 
        3.69146         1.54417        0.330923 
        3.70712         1.52655         0.32743 
        3.72284         1.52383        0.323975 
        3.73853         1.51191        0.320575 
        3.75422          1.5062        0.317223 
        3.76993         1.49657        0.313916 
        3.78564         1.48672        0.310657 
        3.80137         1.47286        0.307439 
        3.81707         1.46968        0.304274 
        3.83279         1.45765        0.301151 
        3.84853         1.45213        0.298066 
        3.86424         1.43847        0.295031 
        3.87992         1.43843        0.292042 
        3.89561         1.42498        0.289095 
        3.91134         1.41835        0.286182 
        3.92704         1.40847        0.283313 
        3.94273         1.40412        0.280486 
        3.95845         1.39382        0.277692 
        3.97418          1.3856        0.274936 
        3.98988         1.37538        0.272221 
        4.00554         1.36544         0.26955 
        4.02125         1.36135        0.266908 
        4.03698         1.34897        0.264296 
        4.05268         1.33973        0.261726 
        4.06839         1.32852        0.259187 
         4.0841         1.32354        0.256683 
        4.09983         1.31289        0.254209 
        4.11555         1.30473        0.251768 
        4.13124         1.29728        0.249366 
        4.14693         1.28514        0.246994 
        4.16266         1.27624        0.244647 
        4.17839         1.27054        0.242331 
        4.19408         1.26426        0.240051 
        4.20977         1.25373        0.237799 
        4.22551          1.2482        0.235571 
        4.24123         1.24133        0.233373 
        4.25691         1.22926         0.23121 
        4.27259         1.22703        0.229073 
        4.28831         1.21662        0.226959 
        4.30404         1.21314         0.22487 
        4.31974         1.19943        0.222811 
        4.33543          1.1965         0.22078 
        4.35116         1.19141        0.218768 
        4.36688         1.17997        0.216783 
        4.38255          1.1732         0.21483 
        4.39825         1.16901        0.212896 
        4.41398         1.16324        0.210983 
         4.4297         1.15735        0.209095 
        4.44541         1.15115         0.20723 
        4.46111         1.14716         0.20539 
        4.47683         1.14314         0.20357 
        4.49251         1.13476        0.201777 
        4.50819         1.13068        0.200005 
         4.5239         1.12362        0.198252 
        4.53962          1.1186        0.196518 
        4.55535         1.11015        0.194804 
        4.57106         1.10862        0.193113 
        4.58678         1.10223        0.191441 
         4.6025         1.09807        0.189789 
        4.61821         1.09267        0.188157 
        4.63391         1.08595        0.186546 
         4.6496         1.08069        0.184954 
        4.66532         1.07721        0.183379 
        4.68103         1.07277        0.181823 
        4.69673         1.06849        0.180286 
        4.71241         1.06348        0.178768 
        4.72811         1.06016        0.177265 
        4.74384         1.05294        0.175778 
        4.75955         1.04855         0.17431 
        4.77525         1.04415         0.17286 
        4.79096         1.03998        0.171424 
        4.80669         1.03642        0.170004 
         4.8224         1.03283        0.168602 
        4.83809         1.02876        0.167217 
        4.85379         1.02409        0.165846 
         4.8695         1.02177         0.16449 
        4.88521         1.01449         0.16315 
        4.90093         1.01266        0.161824 
        4.91663         1.01196        0.160515 
        4.93234         1.00277        0.159218 
        4.94807         1.00028        0.157935 
        4.96377        0.997146        0.156668 
        4.97943        0.994611        0.155418 
        4.99514        0.990885        0.154178 
        5.01086        0.986044        0.152951 
        5.02654        0.985799        0.151741 
        5.04227        0.978159         0.15054 
          5.058        0.977153        0.149351 
        5.07371        0.975314        0.148178 
        5.08942        0.968102        0.147017 
        5.10513        0.967133        0.145868 
        5.12084        0.965432        0.144731 
        5.13656         0.96294        0.143606 
        5.15225        0.959663        0.142495 
        5.16796        0.955801        0.141394 
        5.18369        0.952448        0.140304 
         5.1994        0.949343        0.139227 
        5.21509         0.94723        0.138163 
        5.23079        0.945883        0.137108 
        5.24649        0.943373        0.136066 
        5.26217        0.935386        0.135034 
        5.27788        0.936832        0.134012 
        5.29359        0.933608        0.133001 
        5.30933        0.930056        0.131998 
        5.32504        0.930075        0.131007 
        5.34073        0.926629        0.130028 
        5.35646         0.92331        0.129057 
        5.37218        0.921438        0.128095 
        5.38789        0.921051        0.127145 
        5.40357           0.914        0.126205 
        5.41929        0.914456        0.125273 
        5.43502        0.911197         0.12435 
         5.4507        0.910253        0.123439 
        5.46639        0.907148        0.122537 
        5.48212        0.904561        0.121641 
        5.49786        0.902433        0.120754 
        5.51353        0.900582         0.11988 
        5.52921        0.897478        0.119013 
        5.54495        0.896094        0.118153 
        5.56066        0.894754        0.117301 
        5.57637         0.89538        0.116459 
        5.59207        0.891033        0.115625 
        5.60778        0.886599          0.1148 
        5.62346        0.887781        0.113983 
        5.63916        0.885172        0.113174 
        5.65487        0.884078        0.112372 
         5.6706         0.88372        0.111577 
        5.68633        0.880423        0.110789 
        5.70203        0.879081        0.110011 
        5.71773        0.877946         0.10924 
        5.73344        0.873634        0.108476 
        5.74916        0.873006        0.107719 
        5.76486        0.871436         0.10697 
        5.78054        0.868752        0.106229 
        5.79626        0.866945        0.105493 
          5.812          0.8661        0.104764 
         5.8277         0.86463        0.104043 
        5.84339        0.861919        0.103329 
        5.85911         0.86091        0.102621 
        5.87484        0.860062        0.101919 
        5.89053        0.858012        0.101226 
        5.90623        0.856269        0.100538 
        5.92195         0.85469       0.0998556 
        5.93767        0.851876       0.0991799 
        5.95336        0.851481       0.0985116 
        5.96905        0.848943       0.0978496 
        5.98476        0.846509       0.0971929 
        6.00048        0.846904       0.0965419 
        6.01617         0.84382       0.0958978 
        6.03185        0.842251       0.0952603 
        6.04756        0.842343       0.0946271 
        6.06331        0.840023       0.0939983 
        6.07903         0.83826       0.0933765 
        6.09473        0.837227       0.0927609 
        6.11044        0.837606       0.0921503 
        6.12616        0.833128       0.0915453 
        6.14186         0.83242       0.0909464 
        6.15755        0.832701       0.0903528 
        6.17326        0.830847       0.0897641 
        6.18898        0.829128       0.0891803 
        6.20467        0.827868       0.0886028 
        6.22036        0.824219       0.0880304 
         6.2361        0.824874       0.0874615 
         6.2518         0.82315       0.0868986 
        6.26748        0.822018       0.0863419 
        6.28319         0.81989       0.0857885 
        6.29893        0.818888       0.0852394 
        6.31463        0.817461       0.0846962 
        6.33033         0.81651       0.0841578 
        6.34604        0.816049       0.0836237 
        6.36177        0.813515       0.0830937 
        6.37747         0.81422       0.0825693 
