# k  (h/Mpc)    Pcb(k)  (Mpc/h)^3    Pcb_linear(k) (Mpc/h)^3   ShotnoiseSubtracted = true
      0.0200456         7124.64         7251.12 
      0.0350414         5319.81          5447.7 
      0.0492313         4035.31         4058.05 
      0.0637834         3445.36         3389.66 
      0.0800726         2729.47         2690.21 
       0.096163         1945.31         1981.33 
       0.111083         1563.58         1604.44 
       0.126058          1434.4         1420.03 
       0.142273         1228.82         1194.37 
       0.158546          1015.4         951.517 
        0.17375         829.083          812.63 
       0.188953         790.081         735.004 
       0.204907         736.844         645.299 
       0.220756         621.899         547.996 
        0.23588         547.635         481.513 
         0.2514         482.891         438.277 
       0.267535         460.818         394.379 
       0.283568          417.57           347.9 
       0.299022         386.652         312.003 
       0.314451         357.293         285.934 
       0.330372         330.726         261.587 
       0.346141         298.424         237.234 
       0.361624         284.829         216.355 
       0.377134         267.421         199.597 
       0.392932         247.262          184.57 
       0.408854         237.245         169.998 
       0.424564         227.426         156.936 
       0.440253         215.182         145.776 
       0.455999         202.814         135.852 
       0.471626         187.414         126.651 
        0.48727         182.537         118.164 
       0.502856         175.134         110.597 
       0.518488         171.173         103.776 
       0.534347         162.881         97.3877 
       0.550082         151.385         91.5176 
       0.565732         146.787         86.1811 
       0.581496         140.443         81.2768 
       0.597222         136.141         76.7581 
       0.612804          129.93         72.6015 
       0.628434         127.036         68.7376 
       0.644267         122.695         65.1253 
       0.660051         120.158         61.7883 
       0.675724         116.479         58.7048 
       0.691403          112.93         55.8295 
       0.707174         108.557         53.1309 
       0.722871         106.786         50.6216 
        0.73838         104.638         48.3015 
       0.754018         99.7793         46.1093 
       0.769845         97.8817         44.0295 
        0.78569         95.5077         42.0763 
       0.801365         92.6291         40.2611 
       0.817031          89.514         38.5547 
       0.832809         88.4388         36.9368 
       0.848511         85.1992         35.4196 
       0.864097         82.8847         33.9984 
       0.879701         81.9904         32.6543 
       0.895507         80.2236         31.3674 
       0.911279         78.9225         30.1529 
        0.92691         76.8169         29.0131 
       0.942635         74.6339         27.9263 
       0.958396         74.2741         26.8931 
       0.974128         72.3567         25.9143 
       0.989692         70.6677         24.9941 
        1.00528         69.3354         24.1175 
        1.02113         67.8324         23.2694 
        1.03692         66.0861         22.4654 
        1.05264         65.6637         21.7033 
        1.06832         64.0209         20.9779 
        1.08405         63.2192         20.2838 
        1.09979         62.4641         19.6209 
        1.11537         60.1461         18.9943 
        1.13105         60.4977         18.3914 
        1.14679         59.2384         17.8125 
        1.16256         58.1599         17.2575 
        1.17828         56.6407          16.728 
        1.19395          56.224         16.2227 
         1.2097         54.9796         15.7357 
        1.22537         54.8124         15.2711 
          1.241         53.4088         14.8268 
        1.25666         52.3692         14.3991 
        1.27241         51.9693         13.9864 
        1.28819         50.7151         13.5891 
        1.30392         49.9734         13.2086 
        1.31957         49.6108         12.8443 
        1.33529         48.9217         12.4925 
        1.35108         48.4101         12.1526 
        1.36674         47.5954         11.8277 
         1.3824         46.4309         11.5151 
        1.39811         46.2587         11.2128 
        1.41389         45.4948         10.9202 
        1.42964         44.7766         10.6386 
        1.44531         44.2622         10.3683 
        1.46101          43.255         10.1068 
        1.47667         43.2133         9.85524 
        1.49229         42.7497         9.61289 
        1.50793         41.8902         9.37845 
        1.52367         41.3997         9.15034 
        1.53953          41.073         8.92831 
        1.55526          40.352         8.71545 
        1.57092          39.981         8.51042 
        1.58662         39.4447         8.31152 
        1.60235         39.0103         8.11861 
        1.61809         38.3361         7.93175 
        1.63369         37.8166         7.75244 
        1.64941         37.2559         7.57741 
        1.66519         36.8763         7.40716 
        1.68085         36.5409         7.24337 
        1.69652         36.0781          7.0845 
        1.71228         35.8339          6.9295 
        1.72806         35.2407         6.77903 
        1.74368         34.7571         6.63455 
        1.75933         34.3599           6.494 
        1.77505         34.1386         6.35687 
        1.79081         33.5492         6.22347 
         1.8065         33.1852         6.09448 
        1.82218         32.8913         5.96926 
        1.83797         32.4538         5.84671 
        1.85367         31.9876         5.72829 
        1.86928         31.7677         5.61387 
        1.88497         31.2759         5.50195 
        1.90073         31.1609         5.39268 
        1.91647         30.6837         5.28648 
        1.93218         30.3796         5.18337 
        1.94787         30.0396         5.08316 
        1.96363         29.8117         4.98522 
        1.97935         29.4455         4.89006 
        1.99499         29.0591         4.79792 
        2.01064          28.831         4.70804 
         2.0264         28.3514         4.61989 
        2.04216         28.0312         4.53405 
        2.05781         27.8065         4.45093 
        2.07353         27.5227         4.36961 
        2.08928         27.4586         4.29014 
        2.10499         27.1158         4.21287 
        2.12065         26.6323         4.13773 
        2.13633         26.5233         4.06437 
        2.15211         26.0059         3.99231 
        2.16785         25.8323          3.9222 
        2.18349         25.6699         3.85422 
        2.19916         25.3966         3.78771 
        2.21489         25.0106         3.72255 
        2.23063         24.8689         3.65889 
         2.2463         24.6867           3.597 
        2.26194         24.4231         3.53669 
        2.27765         24.1127         3.47747 
        2.29341         23.8184         3.41944 
        2.30914         23.7198         3.36287 
        2.32486         23.4189          3.3076 
        2.34061         23.1846         3.25349 
        2.35635         22.8777         3.20064 
        2.37203         22.7206         3.14914 
        2.38768         22.4886         3.09889 
        2.40339         22.3625         3.04955 
        2.41914         22.0914         3.00117 
        2.43483         21.8022         2.95402 
         2.4505          21.602         2.90796 
        2.46622         21.3824         2.86272 
        2.48195         21.1924         2.81844 
        2.49759         20.9412         2.77534 
        2.51328         20.7597         2.73303 
        2.52906         20.6198         2.69133 
        2.54479         20.3374         2.65066 
        2.56049         20.1155         2.61091 
        2.57618         19.9515         2.57201 
        2.59189         19.8303         2.53384 
        2.60758         19.6404         2.49651 
        2.62325         19.4303         2.45998 
        2.63898         19.3217         2.42405 
        2.65468         19.0962         2.38892 
        2.67044         18.8841         2.35433 
        2.68618         18.7219          2.3205 
        2.70184         18.5743         2.28748 
        2.71755         18.3654         2.25502 
        2.73329          18.207         2.22314 
        2.74897         17.9557         2.19198 
        2.76462         18.0218         2.16148 
        2.78034         17.7359         2.13144 
        2.79607         17.5583         2.10194 
        2.81179         17.4483         2.07304 
        2.82749         17.2744         2.04471 
        2.84321         17.1313         2.01687 
        2.85893         16.9485         1.98957 
        2.87462         16.7636         1.96281 
        2.89033         16.6272         1.93653 
        2.90605         16.5374          1.9107 
        2.92176         16.2808         1.88536 
        2.93747         16.2117         1.86049 
        2.95318         16.0206         1.83606 
        2.96891         15.8776         1.81207 
        2.98456         15.7513          1.7886 
        3.00023         15.6213         1.76552 
        3.01596         15.4906         1.74278 
        3.03164         15.3671          1.7205 
        3.04738         15.1632         1.69854 
         3.0631         15.0405         1.67698 
        3.07883          14.905         1.65578 
        3.09456         14.7948         1.63496 
        3.11026         14.6644         1.61453 
        3.12596         14.4932         1.59445 
        3.14163         14.4445         1.57476 
        3.15734         14.2439         1.55536 
        3.17308         14.1293         1.53623 
        3.18879         14.0234         1.51748 
        3.20447         13.8865         1.49907 
         3.2202         13.7579         1.48091 
         3.2359         13.6737         1.46308 
        3.25157         13.5667         1.44559 
        3.26729         13.4038         1.42833 
        3.28304         13.3094         1.41132 
        3.29877         13.1721         1.39461 
        3.31446         13.0492          1.3782 
        3.33014         12.9213         1.36208 
        3.34585         12.8216         1.34618 
        3.36158           12.74         1.33052 
        3.37727         12.5935         1.31515 
        3.39294         12.5123         1.30005 
        3.40867          12.381         1.28512 
        3.42439         12.2897         1.27044 
        3.44008          12.216         1.25602 
        3.45578         12.1035          1.2418 
        3.47153         12.0033         1.22778 
        3.48724          11.899           1.214 
        3.50292         11.7579         1.20046 
        3.51859         11.7034         1.18714 
        3.53431         11.6013         1.17397 
        3.55007          11.519         1.16098 
        3.56577         11.4086         1.14823 
        3.58146         11.3374         1.13568 
        3.59719         11.1949         1.12328 
        3.61292         11.1163         1.11108 
        3.62859         10.9962         1.09911 
        3.64429         10.9258         1.08728 
        3.66003         10.8237          1.0756 
        3.67578         10.7532         1.06409 
        3.69146         10.6654         1.05279 
        3.70712         10.5613         1.04168 
        3.72284         10.4789         1.03069 
        3.73853         10.3868         1.01987 
        3.75422         10.3377          1.0092 
        3.76993         10.2353        0.998684 
        3.78564         10.1226        0.988317 
        3.80137         10.0648         0.97808 
        3.81707         9.95585         0.96801 
        3.83279         9.89065        0.958073 
        3.84853         9.80425         0.94826 
        3.86424         9.72124        0.938604 
        3.87992         9.63956        0.929096 
        3.89561         9.58241        0.919719 
        3.91134         9.52198        0.910453 
        3.92704         9.41097        0.901325 
        3.94273         9.35773        0.892331 
        3.95845         9.28014        0.883444 
        3.97418         9.18997        0.874676 
        3.98988         9.11867        0.866038 
        4.00554         9.05093        0.857541 
        4.02125         8.97911        0.849133 
        4.03698         8.90601        0.840825 
        4.05268          8.8457        0.832647 
        4.06839         8.74172        0.824572 
         4.0841         8.71047        0.816606 
        4.09983         8.62993        0.808734 
        4.11555          8.5487         0.80097 
        4.13124         8.48661        0.793328 
        4.14693         8.40425         0.78578 
        4.16266          8.3544        0.778312 
        4.17839         8.28334        0.770946 
        4.19408         8.22807        0.763692 
        4.20977         8.15797        0.756528 
        4.22551         8.09781        0.749439 
        4.24123         8.03983        0.742448 
        4.25691         7.95627        0.735566 
        4.27259         7.90086        0.728768 
        4.28831          7.8397        0.722042 
        4.30404         7.78398        0.715395 
        4.31974         7.71816        0.708846 
        4.33543         7.64455        0.702383 
        4.35116         7.59428        0.695985 
        4.36688         7.54133        0.689669 
        4.38255         7.47617        0.683454 
        4.39825         7.39881        0.677303 
        4.41398         7.38094        0.671215 
         4.4297          7.3073        0.665209 
        4.44541         7.25119        0.659277 
        4.46111          7.1889        0.653422 
        4.47683         7.13557        0.647634 
        4.49251          7.0909        0.641928 
        4.50819         7.04055        0.636292 
         4.5239         6.98928        0.630715 
        4.53962         6.92884        0.625199 
        4.55535         6.87296        0.619745 
        4.57106         6.82237        0.614365 
        4.58678          6.7674        0.609047 
         4.6025         6.71741        0.603791 
        4.61821          6.6595        0.598598 
        4.63391          6.6236        0.593473 
         4.6496         6.55961        0.588409 
        4.66532         6.53679        0.583397 
        4.68103         6.44902        0.578446 
        4.69673         6.41126        0.573556 
        4.71241         6.38126        0.568728 
        4.72811         6.30739        0.563948 
        4.74384         6.26858        0.559216 
        4.75955         6.21154        0.554546 
        4.77525         6.19207        0.549932 
        4.79096         6.12775        0.545365 
        4.80669         6.10128        0.540847 
         4.8224         6.05122        0.536386 
        4.83809         5.99291        0.531979 
        4.85379         5.93688         0.52762 
         4.8695         5.90624        0.523305 
        4.88521         5.86298        0.519041 
        4.90093         5.81135        0.514824 
        4.91663         5.78237        0.510657 
        4.93234         5.73161        0.506532 
        4.94807         5.69905         0.50245 
        4.96377         5.66005         0.49842 
        4.97943         5.61355        0.494443 
        4.99514         5.57159          0.4905 
        5.01086         5.53425        0.486596 
        5.02654         5.48785        0.482744 
        5.04227            5.45        0.478923 
          5.058         5.42474        0.475142 
        5.07371         5.37761        0.471409 
        5.08942         5.33302        0.467715 
        5.10513         5.29793         0.46406 
        5.12084         5.27381        0.460443 
        5.13656         5.23546        0.456865 
        5.15225          5.2003        0.453331 
        5.16796         5.15925        0.449829 
        5.18369         5.11984         0.44636 
         5.1994         5.08997        0.442935 
        5.21509         5.05333        0.439548 
        5.23079         5.01923        0.436193 
        5.24649         4.98171        0.432876 
        5.26217         4.95323        0.429595 
        5.27788          4.9067        0.426343 
        5.29359         4.88425        0.423125 
        5.30933         4.85262        0.419935 
        5.32504         4.81485        0.416784 
        5.34073         4.77772        0.413668 
        5.35646         4.73786        0.410578 
        5.37218         4.71657        0.407519 
        5.38789         4.68246        0.404496 
        5.40357         4.64071        0.401507 
        5.41929         4.62066        0.398541 
        5.43502         4.59192        0.395605 
         5.4507         4.55357        0.392706 
        5.46639         4.51568        0.389835 
        5.48212         4.48661        0.386987 
        5.49786         4.46027        0.384163 
        5.51353         4.42884        0.381382 
        5.52921         4.40272        0.378625 
        5.54495         4.37099        0.375888 
        5.56066         4.34707         0.37318 
        5.57637         4.31315          0.3705 
        5.59207         4.28546        0.367848 
        5.60778         4.26352        0.365221 
        5.62346         4.23276        0.362623 
        5.63916          4.2045        0.360049 
        5.65487         4.16376        0.357497 
         5.6706         4.13916        0.354968 
        5.68633         4.11884        0.352462 
        5.70203         4.09217        0.349986 
        5.71773         4.07213        0.347533 
        5.73344         4.04577        0.345103 
        5.74916         4.01433        0.342694 
        5.76486         3.98757        0.340311 
        5.78054         3.96084        0.337955 
        5.79626         3.93316        0.335614 
          5.812         3.91257        0.333293 
         5.8277          3.8903           0.331 
        5.84339         3.86261         0.32873 
        5.85911         3.83813        0.326476 
        5.87484         3.81425        0.324244 
        5.89053          3.7959        0.322037 
        5.90623         3.76499        0.319849 
        5.92195         3.73675        0.317678 
        5.93767         3.72547        0.315529 
        5.95336         3.69869        0.313402 
        5.96905         3.66119        0.311296 
        5.98476         3.64623        0.309207 
        6.00048         3.62164        0.307136 
        6.01617         3.60726        0.305087 
        6.03185         3.58031        0.303059 
        6.04756         3.56901        0.301044 
        6.06331         3.53159        0.299044 
        6.07903         3.51187        0.297066 
        6.09473         3.49721        0.295107 
        6.11044         3.46893        0.293165 
        6.12616         3.45887         0.29124 
        6.14186          3.4301        0.289335 
        6.15755         3.41341        0.287446 
        6.17326         3.39369        0.285573 
        6.18898         3.36839        0.283716 
        6.20467         3.34385        0.281879 
        6.22036         3.33784        0.280058 
         6.2361          3.3049        0.278248 
         6.2518         3.29406        0.276457 
        6.26748         3.26811        0.274686 
        6.28319         3.25178        0.272925 
        6.29893         3.22889        0.271179 
        6.31463         3.20589         0.26945 
        6.33033         3.19099        0.267737 
        6.34604         3.16602        0.266038 
        6.36177         3.15098        0.264352 
        6.37747         3.13312        0.262684 
