# k  (h/Mpc)    Pcb(k)  (Mpc/h)^3    Pcb_linear(k) (Mpc/h)^3   ShotnoiseSubtracted = true
      0.0200456         12283.4         12470.9 
      0.0350414         9603.13         9369.29 
      0.0492313         6890.78         6979.29 
      0.0637834         5600.25         5829.75 
      0.0800726         4411.59         4626.78 
       0.096163         3506.87         3407.62 
       0.111083         2890.26         2759.42 
       0.126058         2404.57         2442.26 
       0.142273         2068.21         2054.15 
       0.158546         1709.28         1636.48 
        0.17375         1511.56         1397.61 
       0.188953         1403.19         1264.11 
       0.204907         1197.52         1109.83 
       0.220756         1076.11         942.478 
        0.23588         961.047         828.136 
         0.2514         862.917         753.777 
       0.267535         836.246         678.278 
       0.283568         732.988          598.34 
       0.299022         700.445         536.603 
       0.314451         711.278         491.766 
       0.330372         612.833         449.894 
       0.346141         567.787         408.009 
       0.361624         543.462         372.101 
       0.377134         510.623          343.28 
       0.392932          494.97         317.434 
       0.408854         470.891         292.373 
       0.424564         455.745         269.908 
       0.440253         413.607         250.715 
       0.455999         396.577         233.646 
       0.471626         399.199         217.823 
        0.48727         378.655         203.225 
       0.502856         348.592         190.211 
       0.518488         349.568          178.48 
       0.534347         325.025         167.493 
       0.550082           315.3         157.398 
       0.565732         313.427          148.22 
       0.581496         299.224         139.785 
       0.597222         290.896         132.013 
       0.612804         283.517         124.865 
       0.628434         272.296         118.219 
       0.644267         260.881         112.006 
       0.660051         256.538         106.267 
       0.675724         253.875         100.964 
       0.691403         246.511          96.019 
       0.707174         237.849         91.3778 
       0.722871         234.277         87.0622 
        0.73838         232.183         83.0718 
       0.754018         220.314         79.3017 
       0.769845         219.701         75.7247 
        0.78569         214.391         72.3655 
       0.801365         208.781         69.2436 
       0.817031         203.685         66.3088 
       0.832809         200.607         63.5263 
       0.848511         195.531         60.9168 
       0.864097         191.076         58.4726 
       0.879701         189.812          56.161 
       0.895507         185.016         53.9477 
       0.911279         179.583         51.8589 
        0.92691         177.286         49.8986 
       0.942635         175.137         48.0293 
       0.958396         171.375         46.2524 
       0.974128          167.71          44.569 
       0.989692         163.138         42.9865 
        1.00528         161.878         41.4788 
        1.02113         158.304         40.0202 
        1.03692         156.041         38.6375 
        1.05264         153.775         37.3267 
        1.06832         151.395          36.079 
        1.08405         148.237         34.8854 
        1.09979          147.45         33.7452 
        1.11537         143.886         32.6675 
        1.13105         142.251         31.6307 
        1.14679         139.853          30.635 
        1.16256         137.675         29.6805 
        1.17828         135.774         28.7699 
        1.19395         132.335         27.9008 
         1.2097          131.71         27.0632 
        1.22537         129.299         26.2642 
          1.241         127.777         25.5001 
        1.25666         124.596         24.7645 
        1.27241           122.1         24.0546 
        1.28819         121.279         23.3715 
        1.30392         118.915         22.7169 
        1.31957         117.103         22.0905 
        1.33529         115.837         21.4854 
        1.35108         114.469         20.9007 
        1.36674         112.311         20.3421 
         1.3824         111.926         19.8044 
        1.39811         108.806         19.2844 
        1.41389         108.065         18.7812 
        1.42964          105.75         18.2969 
        1.44531         104.724          17.832 
        1.46101         103.061         17.3824 
        1.47667         102.459         16.9497 
        1.49229          101.23         16.5329 
        1.50793         99.1824         16.1296 
        1.52367         98.2666         15.7373 
        1.53953          96.722         15.3555 
        1.55526         95.4022         14.9894 
        1.57092         94.7733         14.6368 
        1.58662         93.3075         14.2947 
        1.60235          91.631         13.9629 
        1.61809         90.9805         13.6415 
        1.63369         89.2603         13.3331 
        1.64941          89.238         13.0321 
        1.66519          87.201         12.7393 
        1.68085          86.204         12.4576 
        1.69652         84.5777         12.1844 
        1.71228          83.891         11.9178 
        1.72806          82.997          11.659 
        1.74368         81.6058         11.4105 
        1.75933         80.9015         11.1688 
        1.77505         80.0934         10.9329 
        1.79081         78.6371         10.7035 
         1.8065         78.1788         10.4817 
        1.82218         76.5968         10.2663 
        1.83797         76.2091         10.0555 
        1.85367         74.8344         9.85187 
        1.86928         74.1135         9.65508 
        1.88497         73.3535          9.4626 
        1.90073         72.3975         9.27466 
        1.91647         71.1986         9.09201 
        1.93218          70.512         8.91468 
        1.94787         69.6607         8.74234 
        1.96363         68.6841         8.57389 
        1.97935         68.1001         8.41023 
        1.99499         67.2569         8.25177 
        2.01064         66.4518         8.09717 
         2.0264         65.3294         7.94557 
        2.04216         64.7233         7.79794 
        2.05781         63.9539         7.65499 
        2.07353         63.1409         7.51512 
        2.08928         62.3776         7.37845 
        2.10499         61.6292         7.24555 
        2.12065         61.1398         7.11633 
        2.13633         60.4827         6.99015 
        2.15211         59.5377         6.86622 
        2.16785         58.5926         6.74565 
        2.18349         58.0653         6.62873 
        2.19916         57.3029         6.51434 
        2.21489         56.7657         6.40228 
        2.23063         55.9217         6.29278 
         2.2463         55.4369         6.18634 
        2.26194         54.9741         6.08263 
        2.27765         54.0992         5.98076 
        2.29341         53.3984         5.88097 
        2.30914         52.7527         5.78367 
        2.32486         52.1332         5.68862 
        2.34061         51.7805         5.59555 
        2.35635         50.8951         5.50465 
        2.37203         50.5626         5.41609 
        2.38768         49.9304         5.32966 
        2.40339         49.3649         5.24481 
        2.41914         48.8136         5.16161 
        2.43483         48.0921         5.08051 
         2.4505         47.7421         5.00129 
        2.46622         47.2155         4.92348 
        2.48195         46.5841         4.84733 
        2.49759         45.9971          4.7732 
        2.51328         45.6893         4.70043 
        2.52906         45.0271         4.62872 
        2.54479         44.6451         4.55877 
        2.56049         43.8809          4.4904 
        2.57618         43.5358          4.4235 
        2.59189         43.1263         4.35786 
        2.60758          42.482         4.29366 
        2.62325         42.1244         4.23082 
        2.63898         41.6783         4.16903 
        2.65468         41.3119         4.10861 
        2.67044         40.8706         4.04912 
        2.68618          40.511         3.99095 
        2.70184         39.8209         3.93415 
        2.71755         39.5864         3.87832 
        2.73329         38.9461         3.82349 
        2.74897          38.725          3.7699 
        2.76462         38.1881         3.71745 
        2.78034          37.841         3.66579 
        2.79607         37.3694         3.61506 
        2.81179         37.0417         3.56534 
        2.82749         36.5886         3.51661 
        2.84321         36.1802         3.46875 
        2.85893         35.7751         3.42178 
        2.87462         35.3503         3.37577 
        2.89033         35.1033         3.33056 
        2.90605         34.6613         3.28614 
        2.92176         34.4121         3.24256 
        2.93747         34.0843         3.19979 
        2.95318         33.6695         3.15778 
        2.96891         33.3172          3.1165 
        2.98456         33.0117         3.07615 
        3.00023         32.5912         3.03645 
        3.01596         32.3059         2.99733 
        3.03164         31.9822         2.95902 
        3.04738         31.6881         2.92126 
         3.0631          31.422         2.88417 
        3.07883         30.9956         2.84772 
        3.09456         30.5441         2.81191 
        3.11026          30.299         2.77677 
        3.12596         30.0181         2.74224 
        3.14163         29.7168         2.70837 
        3.15734         29.3988           2.675 
        3.17308         29.0988         2.64211 
        3.18879         28.8047         2.60986 
        3.20447         28.5364          2.5782 
         3.2202         28.2132         2.54696 
         3.2359         27.9467          2.5163 
        3.25157         27.7235         2.48621 
        3.26729         27.3826         2.45653 
        3.28304         27.0691         2.42727 
        3.29877         26.7678         2.39853 
        3.31446         26.5054         2.37032 
        3.33014         26.3296         2.34258 
        3.34585         26.0334         2.31525 
        3.36158         25.7956         2.28831 
        3.37727         25.5224         2.26188 
        3.39294         25.2432          2.2359 
        3.40867         25.0005         2.21023 
        3.42439         24.8174         2.18498 
        3.44008         24.5592         2.16017 
        3.45578         24.4234         2.13573 
        3.47153         24.0658         2.11162 
        3.48724         23.8039         2.08791 
        3.50292         23.6079         2.06463 
        3.51859           23.34         2.04171 
        3.53431         23.1154         2.01907 
        3.55007         22.8839         1.99672 
        3.56577         22.7052          1.9748 
        3.58146         22.5078         1.95321 
        3.59719         22.2859          1.9319 
        3.61292         22.0609         1.91091 
        3.62859         21.8645         1.89031 
        3.64429         21.6093         1.86998 
        3.66003         21.4915         1.84988 
        3.67578         21.2829         1.83009 
        3.69146          21.054         1.81066 
        3.70712         20.8683         1.79154 
        3.72284         20.6728         1.77264 
        3.73853          20.496         1.75404 
        3.75422         20.1872         1.73569 
        3.76993         20.0912          1.7176 
        3.78564         19.8864         1.69977 
        3.80137         19.7159         1.68216 
        3.81707         19.5623         1.66484 
        3.83279         19.3711         1.64775 
        3.84853         19.1761         1.63088 
        3.86424         18.9944         1.61427 
        3.87992         18.7924         1.59792 
        3.89561         18.6821         1.58179 
        3.91134         18.4264         1.56585 
        3.92704         18.3048         1.55016 
        3.94273         18.1212         1.53469 
        3.95845         17.9676          1.5194 
        3.97418         17.7588         1.50432 
        3.98988          17.664         1.48947 
        4.00554         17.5482         1.47485 
        4.02125         17.2756         1.46039 
        4.03698         17.1333          1.4461 
        4.05268         17.0169         1.43204 
        4.06839         16.8725         1.41815 
         4.0841         16.6848         1.40445 
        4.09983          16.512         1.39091 
        4.11555         16.3814         1.37756 
        4.13124         16.2642         1.36442 
        4.14693          16.136         1.35143 
        4.16266         16.0365         1.33859 
        4.17839           15.86         1.32592 
        4.19408         15.6719         1.31345 
        4.20977         15.5648         1.30112 
        4.22551         15.4176         1.28893 
        4.24123         15.3046         1.27691 
        4.25691         15.1072         1.26507 
        4.27259           15.04         1.25338 
        4.28831         14.9188         1.24181 
        4.30404         14.7672         1.23038 
        4.31974         14.6735         1.21912 
        4.33543         14.5278           1.208 
        4.35116         14.3862           1.197 
        4.36688           14.29         1.18613 
        4.38255         14.1586         1.17545 
        4.39825         13.9851         1.16487 
        4.41398         13.9198          1.1544 
         4.4297         13.7827         1.14407 
        4.44541          13.638         1.13387 
        4.46111          13.573          1.1238 
        4.47683         13.4084         1.11384 
        4.49251         13.3172         1.10403 
        4.50819         13.2196         1.09433 
         4.5239         13.0928         1.08474 
        4.53962         13.0005         1.07526 
        4.55535          12.886         1.06588 
        4.57106         12.7825         1.05662 
        4.58678         12.6741         1.04748 
         4.6025         12.5811         1.03844 
        4.61821         12.4652         1.02951 
        4.63391         12.3623         1.02069 
         4.6496          12.236         1.01198 
        4.66532         12.1184         1.00336 
        4.68103          12.054        0.994847 
        4.69673         11.9364        0.986438 
        4.71241          11.877        0.978134 
        4.72811         11.7687        0.969913 
        4.74384         11.6671        0.961775 
        4.75955         11.5606        0.953743 
        4.77525         11.4712        0.945807 
        4.79096         11.3938        0.937952 
        4.80669         11.3071        0.930182 
         4.8224         11.2004        0.922509 
        4.83809         11.1331        0.914931 
        4.85379         11.0408        0.907433 
         4.8695         10.9374        0.900013 
        4.88521         10.8794        0.892679 
        4.90093         10.7932        0.885426 
        4.91663         10.7128         0.87826 
        4.93234         10.6185        0.871166 
        4.94807         10.5284        0.864145 
        4.96377          10.463        0.857214 
        4.97943         10.3831        0.850375 
        4.99514         10.2503        0.843592 
        5.01086         10.2029        0.836878 
        5.02654         10.1187        0.830254 
        5.04227         10.0064        0.823682 
          5.058          9.9692        0.817179 
        5.07371          9.8852        0.810758 
        5.08942         9.82899        0.804405 
        5.10513         9.73249         0.79812 
        5.12084         9.67156        0.791899 
        5.13656          9.6006        0.785745 
        5.15225         9.50235        0.779667 
        5.16796         9.43565        0.773644 
        5.18369         9.38127        0.767679 
         5.1994         9.28971        0.761787 
        5.21509         9.21897        0.755963 
        5.23079          9.1412        0.750192 
        5.24649         9.08742        0.744486 
        5.26217         9.00605        0.738844 
        5.27788         8.96277        0.733252 
        5.29359         8.86685        0.727717 
        5.30933         8.82554        0.722231 
        5.32504         8.76049        0.716811 
        5.34073         8.70481        0.711452 
        5.35646         8.61314        0.706137 
        5.37218         8.56508        0.700876 
        5.38789         8.49292        0.695677 
        5.40357         8.41682        0.690536 
        5.41929         8.37582        0.685436 
        5.43502         8.31315        0.680387 
         5.4507         8.23897          0.6754 
        5.46639         8.18274        0.670463 
        5.48212         8.11236        0.665564 
        5.49786         8.05742        0.660708 
        5.51353         8.01245        0.655924 
        5.52921         7.95038        0.651183 
        5.54495         7.88631        0.646475 
        5.56066         7.83176        0.641818 
        5.57637         7.77312        0.637208 
        5.59207         7.72744        0.632647 
        5.60778         7.65799         0.62813 
        5.62346         7.60991        0.623662 
        5.63916         7.56387        0.619234 
        5.65487         7.50822        0.614846 
         5.6706         7.44443        0.610496 
        5.68633         7.39094        0.606186 
        5.70203         7.32796        0.601927 
        5.71773         7.29804        0.597709 
        5.73344         7.24324         0.59353 
        5.74916         7.21222        0.589387 
        5.76486         7.14194        0.585288 
        5.78054          7.0909        0.581235 
        5.79626         7.03272        0.577209 
          5.812         6.99283        0.573218 
         5.8277         6.95126        0.569275 
        5.84339         6.90086         0.56537 
        5.85911         6.84272        0.561494 
        5.87484         6.80067        0.557654 
        5.89053         6.74397        0.553859 
        5.90623         6.70124        0.550096 
        5.92195         6.67005        0.546363 
        5.93767         6.61499        0.542666 
        5.95336         6.56666        0.539009 
        5.96905         6.52718        0.535387 
        5.98476         6.48779        0.531793 
        6.00048         6.43599        0.528232 
        6.01617         6.38591        0.524707 
        6.03185         6.35363        0.521219 
        6.04756         6.30245        0.517755 
        6.06331         6.25549        0.514314 
        6.07903         6.22804        0.510912 
        6.09473         6.18188        0.507544 
        6.11044         6.15276        0.504203 
        6.12616         6.09242        0.500893 
        6.14186         6.06931        0.497616 
        6.15755          6.0208        0.494368 
        6.17326         5.98817        0.491147 
        6.18898         5.93786        0.487952 
        6.20467         5.89928        0.484792 
        6.22036         5.86134        0.481661 
         6.2361         5.82648        0.478548 
         6.2518         5.77615        0.475468 
        6.26748         5.74032        0.472422 
        6.28319         5.70445        0.469394 
        6.29893         5.67342         0.46639 
        6.31463         5.63552        0.463417 
        6.33033         5.59769        0.460472 
        6.34604         5.56234        0.457549 
        6.36177          5.5253         0.45465 
        6.37747         5.49518         0.45178 
