# k  (h/Mpc)    Pcb(k)  (Mpc/h)^3    Pcb_linear(k) (Mpc/h)^3   ShotnoiseSubtracted = true
      0.0200456         21844.7         22237.2 
      0.0350414         17188.9         16706.6 
      0.0492313         12128.8         12444.9 
      0.0637834         9818.74         10395.1 
      0.0800726         7705.42         8250.11 
       0.096163         6259.12          6076.2 
       0.111083         5162.61         4920.38 
       0.126058         4263.24         4354.84 
       0.142273         3725.53         3662.79 
       0.158546         3074.71         2918.04 
        0.17375         2769.59         2492.11 
       0.188953         2629.64         2254.05 
       0.204907         2263.28         1978.95 
       0.220756         2049.35         1680.55 
        0.23588         1835.78         1476.67 
         0.2514         1667.51         1344.07 
       0.267535         1607.04         1209.45 
       0.283568         1436.57         1066.91 
       0.299022         1372.43         956.827 
       0.314451         1428.99         876.878 
       0.330372         1270.96         802.216 
       0.346141         1167.65         727.529 
       0.361624         1121.05           663.5 
       0.377134         1076.39         612.109 
       0.392932         1027.51         566.023 
       0.408854         985.364         521.337 
       0.424564         965.505         481.278 
       0.440253         898.285         447.055 
       0.455999         859.525          416.62 
       0.471626         872.914         388.404 
        0.48727         825.922         362.375 
       0.502856         794.144          339.17 
       0.518488         770.219         318.251 
       0.534347         739.745         298.661 
       0.550082         706.327         280.659 
       0.565732         695.704         264.293 
       0.581496         681.095         249.253 
       0.597222         667.623         235.396 
       0.612804         651.926         222.648 
       0.628434         625.039         210.799 
       0.644267         607.854         199.721 
       0.660051         601.181         189.488 
       0.675724         589.388         180.031 
       0.691403         571.093         171.213 
       0.707174         554.554         162.938 
       0.722871         547.804         155.242 
        0.73838         536.733         148.127 
       0.754018         524.131         141.404 
       0.769845         516.278         135.026 
        0.78569         505.152         129.036 
       0.801365          488.54          123.47 
       0.817031         484.055         118.236 
       0.832809          476.22         113.275 
       0.848511         467.956         108.622 
       0.864097         458.872         104.264 
       0.879701         456.779         100.142 
       0.895507         438.621         96.1952 
       0.911279         433.518         92.4706 
        0.92691         427.454         88.9752 
       0.942635         422.696         85.6421 
       0.958396         409.151         82.4735 
       0.974128         403.449         79.4719 
       0.989692         391.405           76.65 
        1.00528         388.481         73.9617 
        1.02113          380.85         71.3608 
        1.03692         375.128         68.8952 
        1.05264         369.382          66.558 
        1.06832         361.496         64.3333 
        1.08405         359.648         62.2048 
        1.09979         351.654         60.1718 
        1.11537         342.086         58.2501 
        1.13105         338.454         56.4013 
        1.14679         332.607          54.626 
        1.16256         330.117         52.9239 
        1.17828         324.591         51.3002 
        1.19395         316.385         49.7504 
         1.2097         314.311          48.257 
        1.22537          308.32         46.8323 
          1.241         302.409         45.4697 
        1.25666         298.779         44.1581 
        1.27241         294.431         42.8923 
        1.28819         287.479         41.6741 
        1.30392         286.905          40.507 
        1.31957         279.045         39.3899 
        1.33529         275.618         38.3111 
        1.35108         273.491         37.2685 
        1.36674         266.364         36.2723 
         1.3824         263.612         35.3136 
        1.39811         260.085         34.3864 
        1.41389          253.87         33.4891 
        1.42964         250.797         32.6255 
        1.44531         247.281         31.7966 
        1.46101         242.779         30.9949 
        1.47667         240.273         30.2233 
        1.49229         236.628         29.4801 
        1.50793          233.14         28.7611 
        1.52367         229.461         28.0615 
        1.53953         224.781         27.3806 
        1.55526          222.93         26.7278 
        1.57092         220.416         26.0991 
        1.58662         215.671         25.4891 
        1.60235         213.108         24.8975 
        1.61809         210.889         24.3245 
        1.63369         206.755         23.7746 
        1.64941         203.794         23.2378 
        1.66519          200.97         22.7157 
        1.68085         197.338         22.2134 
        1.69652         195.168         21.7262 
        1.71228          192.17         21.2508 
        1.72806         189.612         20.7894 
        1.74368         187.596         20.3463 
        1.75933         185.954         19.9153 
        1.77505         182.802         19.4947 
        1.79081         179.682         19.0856 
         1.8065          178.13         18.6901 
        1.82218         173.922         18.3061 
        1.83797         172.489         17.9302 
        1.85367         169.906         17.5671 
        1.86928         167.104         17.2162 
        1.88497         165.268         16.8729 
        1.90073          163.72         16.5378 
        1.91647         160.377         16.2121 
        1.93218         158.472         15.8959 
        1.94787         155.918         15.5886 
        1.96363         155.165         15.2883 
        1.97935         153.083         14.9964 
        1.99499         150.847         14.7139 
        2.01064         147.256         14.4382 
         2.0264          146.72         14.1679 
        2.04216         144.411         13.9047 
        2.05781         141.846         13.6498 
        2.07353         141.082         13.4004 
        2.08928         139.111         13.1567 
        2.10499         137.332         12.9197 
        2.12065         135.561         12.6893 
        2.13633         133.629         12.4643 
        2.15211         131.441         12.2433 
        2.16785         130.175         12.0283 
        2.18349         128.596         11.8198 
        2.19916         126.554         11.6159 
        2.21489         125.203          11.416 
        2.23063         123.711         11.2208 
         2.2463          121.74          11.031 
        2.26194         120.669         10.8461 
        2.27765         118.563         10.6644 
        2.29341         117.777         10.4865 
        2.30914         116.341          10.313 
        2.32486         114.084         10.1435 
        2.34061         112.736         9.97754 
        2.35635          112.15         9.81545 
        2.37203         109.997         9.65754 
        2.38768         109.236         9.50342 
        2.40339         106.919         9.35212 
        2.41914         106.166         9.20376 
        2.43483         104.991         9.05915 
         2.4505         103.861         8.91789 
        2.46622          102.06         8.77916 
        2.48195         101.143         8.64338 
        2.49759         99.4018         8.51119 
        2.51328         98.5328         8.38143 
        2.52906         97.5066         8.25356 
        2.54479         96.1763         8.12883 
        2.56049         94.8638         8.00693 
        2.57618         93.7584         7.88763 
        2.59189         93.2063         7.77058 
        2.60758         91.5874          7.6561 
        2.62325         90.9022         7.54407 
        2.63898         89.7936         7.43388 
        2.65468         88.6574         7.32614 
        2.67044         87.8105         7.22006 
        2.68618         86.4235         7.11634 
        2.70184           85.49         7.01507 
        2.71755          84.719         6.91552 
        2.73329         83.2351         6.81774 
        2.74897         82.5596         6.72218 
        2.76462         82.0434         6.62867 
        2.78034         80.6435         6.53654 
        2.79607         79.6028         6.44608 
        2.81179         78.9994         6.35743 
        2.82749         78.0875         6.27054 
        2.84321         76.9531         6.18519 
        2.85893         75.7234         6.10145 
        2.87462         75.3217          6.0194 
        2.89033         74.3865         5.93879 
        2.90605         73.5925         5.85959 
        2.92176         72.8803         5.78187 
        2.93747         71.9913          5.7056 
        2.95318         70.9203          5.6307 
        2.96891         70.4642          5.5571 
        2.98456         69.4846         5.48515 
        3.00023         68.8328         5.41436 
        3.01596         68.1956         5.34461 
        3.03164         67.3913         5.27628 
        3.04738         66.8431         5.20895 
         3.0631         65.8566         5.14282 
        3.07883         65.4177         5.07783 
        3.09456         64.3884         5.01398 
        3.11026         63.8703         4.95132 
        3.12596         63.1588         4.88974 
        3.14163         62.4719         4.82935 
        3.15734          61.683         4.76984 
        3.17308          61.174         4.71119 
        3.18879         60.4778         4.65369 
        3.20447          59.837         4.59723 
         3.2202          58.968         4.54153 
         3.2359         58.5089         4.48686 
        3.25157         58.0186         4.43322 
        3.26729         57.2856         4.38029 
        3.28304         56.5025         4.32812 
        3.29877         56.0746         4.27687 
        3.31446           55.36         4.22656 
        3.33014         54.8845          4.1771 
        3.34585         54.3735         4.12836 
        3.36158         54.0175         4.08033 
        3.37727         53.3668         4.03321 
        3.39294          52.802         3.98688 
        3.40867          52.228         3.94111 
        3.42439         51.6574         3.89608 
        3.44008         51.0742         3.85185 
        3.45578         50.6392         3.80827 
        3.47153         50.2447         3.76526 
        3.48724         49.7915           3.723 
        3.50292         49.1182         3.68148 
        3.51859         48.7491         3.64062 
        3.53431         48.0993         3.60025 
        3.55007         47.5659         3.56039 
        3.56577         47.0647          3.5213 
        3.58146         46.6232         3.48281 
        3.59719         46.2218          3.4448 
        3.61292         45.6448         3.40738 
        3.62859         45.2613         3.37065 
        3.64429         44.9116         3.33439 
        3.66003         44.4655         3.29856 
        3.67578         43.9375         3.26326 
        3.69146         43.5569         3.22862 
        3.70712         43.1934         3.19454 
        3.72284         42.7477         3.16082 
        3.73853         42.3472         3.12765 
        3.75422         41.9045         3.09495 
        3.76993         41.5899         3.06268 
        3.78564         41.2213         3.03089 
        3.80137         40.7102          2.9995 
        3.81707         40.3503         2.96862 
        3.83279          39.948         2.93814 
        3.84853         39.4831         2.90805 
        3.86424         39.1849         2.87844 
        3.87992         38.7954         2.84928 
        3.89561         38.5269         2.82052 
        3.91134         38.0747         2.79211 
        3.92704         37.7132         2.76411 
        3.94273         37.3867         2.73653 
        3.95845         37.0035         2.70928 
        3.97418         36.7261         2.68239 
        3.98988         36.3837          2.6559 
        4.00554         35.9329         2.62984 
        4.02125         35.7335         2.60405 
        4.03698         35.3108         2.57858 
        4.05268         35.1478          2.5535 
        4.06839         34.7525         2.52873 
         4.0841          34.468          2.5043 
        4.09983         34.0721         2.48016 
        4.11555         33.8113         2.45635 
        4.13124         33.4116         2.43292 
        4.14693         33.1989         2.40977 
        4.16266         32.8397         2.38687 
        4.17839         32.5123         2.36428 
        4.19408         32.2871         2.34203 
        4.20977         31.9866         2.32006 
        4.22551         31.7166         2.29832 
        4.24123         31.4605         2.27688 
        4.25691         31.1295         2.25577 
        4.27259         30.8622         2.23493 
        4.28831         30.6142          2.2143 
        4.30404         30.3709         2.19392 
        4.31974         30.1374         2.17383 
        4.33543         29.7552         2.15401 
        4.35116         29.5201         2.13439 
        4.36688         29.2752         2.11502 
        4.38255         29.0936         2.09596 
        4.39825         28.8081          2.0771 
        4.41398         28.5444         2.05843 
         4.4297           28.31         2.04001 
        4.44541         28.1099         2.02182 
        4.46111         27.7875         2.00386 
        4.47683         27.6143         1.98611 
        4.49251         27.3804         1.96861 
        4.50819         27.1058         1.95133 
         4.5239         26.8145         1.93423 
        4.53962         26.6381         1.91731 
        4.55535         26.4003         1.90059 
        4.57106         26.1531         1.88409 
        4.58678         26.0061         1.86778 
         4.6025         25.7737         1.85166 
        4.61821         25.5778         1.83573 
        4.63391          25.319         1.82001 
         4.6496         25.1295         1.80449 
        4.66532         24.9313         1.78912 
        4.68103         24.6733         1.77393 
        4.69673         24.5259         1.75894 
        4.71241         24.2904         1.74413 
        4.72811         24.1077         1.72947 
        4.74384         23.9807         1.71496 
        4.75955         23.7694         1.70064 
        4.77525         23.4758         1.68649 
        4.79096         23.3102         1.67248 
        4.80669         23.1541         1.65863 
         4.8224         22.9925         1.64494 
        4.83809         22.7359         1.63143 
        4.85379         22.6182         1.61806 
         4.8695          22.413         1.60483 
        4.88521         22.1833         1.59175 
        4.90093         22.0543         1.57882 
        4.91663         21.9115         1.56604 
        4.93234         21.6287         1.55339 
        4.94807         21.4501         1.54087 
        4.96377         21.3423         1.52852 
        4.97943         21.2053         1.51632 
        4.99514         21.0362         1.50423 
        5.01086         20.8573         1.49225 
        5.02654         20.6653         1.48044 
        5.04227         20.5081         1.46872 
          5.058         20.3247         1.45713 
        5.07371         20.1635         1.44568 
        5.08942         20.0082         1.43435 
        5.10513         19.8935         1.42314 
        5.12084         19.7408         1.41205 
        5.13656         19.5707         1.40108 
        5.15225         19.4669         1.39024 
        5.16796         19.2614          1.3795 
        5.18369         19.0886         1.36886 
         5.1994         18.9515         1.35836 
        5.21509         18.8061         1.34797 
        5.23079         18.6766         1.33768 
        5.24649         18.5161         1.32751 
        5.26217         18.3879         1.31745 
        5.27788         18.2975         1.30748 
        5.29359         18.1039         1.29761 
        5.30933         17.9517         1.28782 
        5.32504         17.8235         1.27816 
        5.34073         17.6603          1.2686 
        5.35646         17.5569         1.25913 
        5.37218         17.4392         1.24975 
        5.38789         17.2692         1.24047 
        5.40357         17.1819         1.23131 
        5.41929         17.0823         1.22221 
        5.43502         16.9218         1.21321 
         5.4507         16.7609         1.20432 
        5.46639          16.654         1.19552 
        5.48212         16.5465         1.18678 
        5.49786         16.4067         1.17812 
        5.51353         16.2851         1.16959 
        5.52921         16.1509         1.16114 
        5.54495         16.0562         1.15274 
        5.56066         15.9035         1.14444 
        5.57637         15.7743         1.13622 
        5.59207         15.6979         1.12809 
        5.60778           15.61         1.12003 
        5.62346         15.4692         1.11206 
        5.63916         15.3393         1.10417 
        5.65487         15.2128         1.09634 
         5.6706         15.1393         1.08859 
        5.68633          15.035          1.0809 
        5.70203         14.9178         1.07331 
        5.71773         14.8152         1.06579 
        5.73344         14.7093         1.05833 
        5.74916         14.6088         1.05095 
        5.76486         14.5079         1.04364 
        5.78054         14.3807         1.03641 
        5.79626         14.2808         1.02923 
          5.812         14.1955         1.02212 
         5.8277         14.0773         1.01509 
        5.84339         13.9718         1.00812 
        5.85911         13.8997         1.00121 
        5.87484         13.7632        0.994364 
        5.89053         13.6778        0.987596 
        5.90623         13.5768        0.980888 
        5.92195         13.4883         0.97423 
        5.93767         13.4002        0.967638 
        5.95336         13.2845        0.961117 
        5.96905         13.1873        0.954659 
        5.98476         13.1128        0.948251 
        6.00048         13.0094          0.9419 
        6.01617         12.9488        0.935616 
        6.03185         12.8273        0.929396 
        6.04756         12.7678        0.923218 
        6.06331          12.671        0.917084 
        6.07903           12.57        0.911017 
        6.09473         12.4544        0.905011 
        6.11044         12.4083        0.899054 
        6.12616         12.3152        0.893152 
        6.14186         12.2274        0.887308 
        6.15755         12.1482        0.881517 
        6.17326         12.0543        0.875773 
        6.18898         11.9663        0.870078 
        6.20467         11.8877        0.864443 
        6.22036         11.8049        0.858858 
         6.2361         11.7238        0.853308 
         6.2518         11.6464        0.847816 
        6.26748         11.5798        0.842385 
        6.28319         11.4959        0.836985 
        6.29893         11.4306        0.831629 
        6.31463         11.3484        0.826329 
        6.33033         11.2825        0.821076 
        6.34604         11.1862        0.815865 
        6.36177         11.1155        0.810695 
        6.37747         11.0318        0.805579 
