# k  (h/Mpc)    Pcb(k)  (Mpc/h)^3    Pcb_linear(k) (Mpc/h)^3   ShotnoiseSubtracted = true
      0.0200456         28840.8         29643.7 
      0.0350414         20979.1           22271 
      0.0492313         16022.5         16589.9 
      0.0637834         14024.4         13857.5 
      0.0800726         11042.3           10998 
       0.096163         7716.36         8099.99 
       0.111083         6330.23         6559.21 
       0.126058         5803.36         5805.31 
       0.142273          5012.2         4882.75 
       0.158546         4533.21         3889.94 
        0.17375         3675.65         3322.15 
       0.188953         3607.39         3004.81 
       0.204907         3385.57         2638.08 
       0.220756         2965.69         2240.29 
        0.23588         2688.21          1968.5 
         0.2514         2371.16         1791.74 
       0.267535         2383.72         1612.28 
       0.283568         2162.91         1422.27 
       0.299022         2069.39         1275.52 
       0.314451         1968.84         1168.94 
       0.330372         1796.05         1069.41 
       0.346141         1784.92         969.847 
       0.361624         1718.31         884.491 
       0.377134         1613.83         815.983 
       0.392932         1542.93         754.548 
       0.408854         1520.76         694.978 
       0.424564          1399.7         641.577 
       0.440253          1370.7         595.955 
       0.455999          1359.9         555.383 
       0.471626         1305.14         517.769 
        0.48727         1259.47          483.07 
       0.502856         1203.68         452.137 
       0.518488         1218.41          424.25 
       0.534347         1137.92         398.136 
       0.550082         1130.08         374.138 
       0.565732         1107.78         352.321 
       0.581496         1063.78         332.272 
       0.597222         1032.23         313.799 
       0.612804         1019.94         296.806 
       0.628434         991.558          281.01 
       0.644267         968.592         266.242 
       0.660051         952.135           252.6 
       0.675724         939.984         239.994 
       0.691403         917.597         228.239 
       0.707174         883.047         217.207 
       0.722871         860.249         206.949 
        0.73838         849.841         197.464 
       0.754018         833.735         188.502 
       0.769845         820.979         179.999 
        0.78569         810.614         172.014 
       0.801365         785.732         164.594 
       0.817031         773.808         157.617 
       0.832809         759.938         151.003 
       0.848511         747.031         144.801 
       0.864097         721.971         138.991 
       0.879701         709.275         133.496 
       0.895507         706.474         128.235 
       0.911279         696.829          123.27 
        0.92691         678.719          118.61 
       0.942635         660.226         114.167 
       0.958396         651.629         109.943 
       0.974128         642.438         105.942 
       0.989692          633.31          102.18 
        1.00528         612.705         98.5961 
        1.02113         611.231         95.1289 
        1.03692         598.998         91.8421 
        1.05264         588.349         88.7264 
        1.06832         576.535         85.7607 
        1.08405         565.347         82.9233 
        1.09979         556.978         80.2131 
        1.11537         549.455         77.6515 
        1.13105         541.215         75.1869 
        1.14679         529.253         72.8202 
        1.16256         520.323         70.5512 
        1.17828         513.897         68.3867 
        1.19395         504.801         66.3207 
         1.2097         491.267         64.3299 
        1.22537         484.341         62.4307 
          1.241         475.344         60.6142 
        1.25666         474.647         58.8658 
        1.27241         462.845         57.1784 
        1.28819         450.518         55.5545 
        1.30392         447.745         53.9986 
        1.31957         436.019         52.5095 
        1.33529         432.812         51.0713 
        1.35108         423.953         49.6815 
        1.36674          416.67         48.3535 
         1.3824         412.235         47.0754 
        1.39811          402.36         45.8395 
        1.41389           399.1         44.6433 
        1.42964         394.102          43.492 
        1.44531          389.93         42.3871 
        1.46101         381.569         41.3183 
        1.47667         372.543         40.2897 
        1.49229         370.371          39.299 
        1.50793         360.083         38.3405 
        1.52367         358.716          37.408 
        1.53953         348.502         36.5003 
        1.55526          347.79         35.6301 
        1.57092         343.866         34.7919 
        1.58662         337.201         33.9788 
        1.60235          332.99         33.1901 
        1.61809         327.291         32.4262 
        1.63369         320.986         31.6931 
        1.64941         315.136         30.9776 
        1.66519          311.92         30.2816 
        1.68085         308.116          29.612 
        1.69652          304.66         28.9625 
        1.71228         297.455         28.3288 
        1.72806         294.076         27.7137 
        1.74368          288.46          27.123 
        1.75933         285.884         26.5484 
        1.77505         280.993         25.9878 
        1.79081         277.391         25.4425 
         1.8065          272.18         24.9151 
        1.82218         269.351         24.4032 
        1.83797          266.36         23.9022 
        1.85367         261.281         23.4181 
        1.86928         256.967         22.9503 
        1.88497         254.493         22.4928 
        1.90073         249.945         22.0461 
        1.91647         247.058         21.6119 
        1.93218         242.975         21.1904 
        1.94787         239.908         20.7807 
        1.96363         237.079         20.3803 
        1.97935         232.533         19.9913 
        1.99499         229.303         19.6146 
        2.01064         226.817         19.2472 
         2.0264         223.464         18.8868 
        2.04216         221.465         18.5359 
        2.05781         218.728         18.1961 
        2.07353         214.626         17.8636 
        2.08928         211.177         17.5387 
        2.10499         208.572         17.2228 
        2.12065         205.644         16.9157 
        2.13633         203.549         16.6157 
        2.15211         200.852         16.3212 
        2.16785         198.649         16.0346 
        2.18349         196.264         15.7566 
        2.19916         192.456         15.4847 
        2.21489         191.725         15.2184 
        2.23063         188.302         14.9581 
         2.2463         185.419         14.7051 
        2.26194         182.785         14.4585 
        2.27765         179.879         14.2164 
        2.29341         178.103         13.9792 
        2.30914         175.557         13.7479 
        2.32486         174.503          13.522 
        2.34061         170.669         13.3007 
        2.35635         170.264         13.0847 
        2.37203         166.765         12.8742 
        2.38768         164.518         12.6687 
        2.40339         163.327          12.467 
        2.41914          161.23         12.2693 
        2.43483         159.039         12.0765 
         2.4505         156.955         11.8882 
        2.46622         155.618         11.7032 
        2.48195         153.274         11.5222 
        2.49759         151.723          11.346 
        2.51328         149.512          11.173 
        2.52906         147.892         11.0026 
        2.54479         146.519         10.8363 
        2.56049         144.547         10.6738 
        2.57618         143.012         10.5148 
        2.59189         141.175         10.3587 
        2.60758         138.884         10.2061 
        2.62325         137.492         10.0568 
        2.63898         135.717         9.90988 
        2.65468         134.621         9.76625 
        2.67044           133.7         9.62485 
        2.68618         131.436         9.48657 
        2.70184         129.836         9.35157 
        2.71755         128.475         9.21886 
        2.73329         126.214         9.08852 
        2.74897         125.444         8.96113 
        2.76462         123.952         8.83647 
        2.78034         122.644         8.71366 
        2.79607         121.338         8.59307 
        2.81179         119.951         8.47489 
        2.82749         118.455         8.35907 
        2.84321         116.481         8.24528 
        2.85893         115.517         8.13365 
        2.87462         114.325         8.02428 
        2.89033         112.661         7.91682 
        2.90605         112.012         7.81124 
        2.92176         110.206         7.70763 
        2.93747         109.484         7.60596 
        2.95318         108.251         7.50611 
        2.96891         107.111           7.408 
        2.98456         105.617         7.31208 
        3.00023         105.036         7.21772 
        3.01596         103.643         7.12473 
        3.03164         102.605         7.03365 
        3.04738         101.454         6.94389 
         3.0631         100.161         6.85573 
        3.07883         99.2899          6.7691 
        3.09456         97.8125         6.68398 
        3.11026         97.4703         6.60045 
        3.12596         96.0463         6.51836 
        3.14163         94.9233         6.43786 
        3.15734         94.2643         6.35853 
        3.17308         93.0388         6.28035 
        3.18879         92.0261         6.20369 
        3.20447         91.0942         6.12843 
         3.2202         90.0948         6.05418 
         3.2359         89.1074         5.98129 
        3.25157         88.2369         5.90978 
        3.26729         87.2805         5.83922 
        3.28304         86.5358         5.76968 
        3.29877         85.8031         5.70136 
        3.31446         84.5665          5.6343 
        3.33014         84.2314         5.56837 
        3.34585         82.9548          5.5034 
        3.36158         82.1963         5.43936 
        3.37727         81.1801         5.37655 
        3.39294         80.3898         5.31479 
        3.40867         79.5689         5.25377 
        3.42439         78.7221         5.19375 
        3.44008           77.74         5.13478 
        3.45578         77.1471         5.07668 
        3.47153         76.6072         5.01936 
        3.48724         75.6002         4.96302 
        3.50292         75.0023         4.90767 
        3.51859         74.1773          4.8532 
        3.53431          73.565         4.79938 
        3.55007         72.7846         4.74625 
        3.56577          72.132         4.69413 
        3.58146         71.6369         4.64282 
        3.59719         70.7854         4.59216 
        3.61292         69.9026         4.54227 
        3.62859         69.3553         4.49331 
        3.64429         68.6056         4.44497 
        3.66003         67.8524          4.3972 
        3.67578         67.2633         4.35015 
        3.69146         66.8032         4.30397 
        3.70712         66.0149         4.25854 
        3.72284           65.45          4.2136 
        3.73853         64.8488         4.16938 
        3.75422         64.1762         4.12578 
        3.76993         63.6847         4.08277 
        3.78564         62.9181         4.04039 
        3.80137         62.3569         3.99854 
        3.81707         61.8608         3.95737 
        3.83279         61.0088         3.91675 
        3.84853         60.6192         3.87663 
        3.86424         60.0444         3.83715 
        3.87992         59.5652         3.79828 
        3.89561         59.0485         3.75995 
        3.91134         58.2475         3.72207 
        3.92704         57.8669         3.68475 
        3.94273         57.2688         3.64799 
        3.95845         56.8749         3.61165 
        3.97418         56.1982         3.57581 
        3.98988         55.7766         3.54049 
        4.00554         55.4274         3.50576 
        4.02125         54.7547         3.47138 
        4.03698         54.2917         3.43742 
        4.05268         53.8639         3.40399 
        4.06839         53.3942         3.37097 
         4.0841         52.9147         3.33841 
        4.09983         52.3837         3.30623 
        4.11555         51.8131         3.27449 
        4.13124         51.4173         3.24325 
        4.14693         51.0376         3.21239 
        4.16266         50.5443         3.18186 
        4.17839         50.1666         3.15174 
        4.19408         49.6909         3.12209 
        4.20977         49.2715          3.0928 
        4.22551         48.8323         3.06382 
        4.24123         48.3288         3.03524 
        4.25691         47.9463          3.0071 
        4.27259         47.4991         2.97931 
        4.28831         47.2619         2.95182 
        4.30404         46.6538         2.92464 
        4.31974         46.4092         2.89787 
        4.33543         45.8349         2.87145 
        4.35116         45.5195         2.84529 
        4.36688         45.1446         2.81947 
        4.38255         44.7009         2.79406 
        4.39825          44.378         2.76892 
        4.41398         43.9328         2.74403 
         4.4297         43.6368         2.71948 
        4.44541          43.196         2.69522 
        4.46111         42.8122         2.67129 
        4.47683         42.3707         2.64763 
        4.49251          42.232          2.6243 
        4.50819         41.6921         2.60126 
         4.5239         41.3557         2.57846 
        4.53962         41.1106         2.55591 
        4.55535         40.7629         2.53361 
        4.57106           40.61         2.51162 
        4.58678         40.1849         2.48988 
         4.6025         39.7374         2.46839 
        4.61821         39.3289         2.44716 
        4.63391         39.1961          2.4262 
         4.6496         38.6146          2.4055 
        4.66532         38.4024         2.38502 
        4.68103         38.1944         2.36477 
        4.69673         37.8068         2.34478 
        4.71241         37.5255         2.32505 
        4.72811         37.2006          2.3055 
        4.74384         36.8848         2.28616 
        4.75955         36.6382         2.26707 
        4.77525         36.2947          2.2482 
        4.79096         36.0295         2.22953 
        4.80669         35.7403         2.21106 
         4.8224         35.4313         2.19283 
        4.83809         35.1798         2.17481 
        4.85379         34.8172         2.15699 
         4.8695         34.5901         2.13935 
        4.88521         34.2844         2.12192 
        4.90093         33.9771         2.10468 
        4.91663         33.8011         2.08764 
        4.93234         33.4774         2.07078 
        4.94807         33.1909         2.05409 
        4.96377         32.8537         2.03762 
        4.97943         32.6721         2.02136 
        4.99514         32.3814         2.00524 
        5.01086         32.2294         1.98928 
        5.02654         31.9347         1.97353 
        5.04227         31.7135         1.95791 
          5.058          31.428         1.94245 
        5.07371         31.1598         1.92719 
        5.08942         30.9446         1.91209 
        5.10513         30.7422         1.89715 
        5.12084         30.4579         1.88236 
        5.13656         30.2538         1.86773 
        5.15225         30.0325         1.85329 
        5.16796         29.7517         1.83897 
        5.18369         29.5237         1.82479 
         5.1994         29.3582         1.81078 
        5.21509         29.1271         1.79694 
        5.23079         28.8533         1.78322 
        5.24649         28.5722         1.76966 
        5.26217         28.4477         1.75625 
        5.27788         28.1977         1.74296 
        5.29359         27.9661          1.7298 
        5.30933         27.8309         1.71676 
        5.32504         27.5678         1.70387 
        5.34073         27.3371         1.69114 
        5.35646         27.1287          1.6785 
        5.37218         26.8748           1.666 
        5.38789         26.7355         1.65364 
        5.40357         26.5114         1.64142 
        5.41929         26.3773          1.6293 
        5.43502          26.144         1.61729 
         5.4507         25.9675         1.60544 
        5.46639         25.7348         1.59371 
        5.48212         25.5985         1.58206 
        5.49786         25.3572         1.57052 
        5.51353         25.1894         1.55915 
        5.52921         25.0047         1.54788 
        5.54495         24.8243         1.53668 
        5.56066         24.7293         1.52562 
        5.57637          24.436         1.51466 
        5.59207         24.3453         1.50382 
        5.60778         24.0935         1.49308 
        5.62346         23.8686         1.48246 
        5.63916          23.776         1.47193 
        5.65487         23.5903          1.4615 
         5.6706         23.3734         1.45116 
        5.68633         23.2322         1.44092 
        5.70203         23.0616         1.43079 
        5.71773         22.9264         1.42077 
        5.73344          22.734         1.41083 
        5.74916          22.594         1.40098 
        5.76486         22.4296         1.39124 
        5.78054         22.2695         1.38161 
        5.79626         22.1131         1.37204 
          5.812         21.9609         1.36255 
         5.8277         21.7757         1.35318 
        5.84339         21.6378          1.3439 
        5.85911         21.4595         1.33468 
        5.87484         21.3434         1.32556 
        5.89053         21.1781         1.31653 
        5.90623         21.0203         1.30759 
        5.92195         20.8836         1.29872 
        5.93767         20.7436         1.28993 
        5.95336         20.5856         1.28124 
        5.96905         20.4432         1.27263 
        5.98476         20.3051         1.26408 
        6.00048         20.1456         1.25562 
        6.01617         20.0022         1.24724 
        6.03185         19.8816         1.23895 
        6.04756         19.6916         1.23071 
        6.06331         19.5636         1.22254 
        6.07903         19.4444         1.21445 
        6.09473          19.331         1.20644 
        6.11044         19.1249          1.1985 
        6.12616         19.0389         1.19063 
        6.14186          18.929         1.18284 
        6.15755         18.7753         1.17512 
        6.17326           18.61         1.16747 
        6.18898         18.5437         1.15987 
        6.20467         18.4078         1.15236 
        6.22036         18.2573         1.14492 
         6.2361          18.121         1.13752 
         6.2518         17.9823          1.1302 
        6.26748          17.898         1.12296 
        6.28319         17.7514         1.11576 
        6.29893         17.6562         1.10862 
        6.31463         17.5081         1.10155 
        6.33033         17.3886         1.09455 
        6.34604         17.2934          1.0876 
        6.36177         17.1615         1.08071 
        6.37747         17.0872         1.07389 
