# k  (h/Mpc)    Pcb(k)  (Mpc/h)^3    Pcb_linear(k) (Mpc/h)^3   ShotnoiseSubtracted = true
      0.0200456         7831.21         7941.41 
      0.0350414          6096.5         5966.31 
      0.0492313         4415.28         4444.37 
      0.0637834         3600.66         3712.35 
      0.0800726         2842.06         2946.31 
       0.096163         2228.56         2169.95 
       0.111083         1832.68         1757.18 
       0.126058         1536.77         1555.22 
       0.142273         1309.87         1308.07 
       0.158546         1079.73          1042.1 
        0.17375         947.034          889.99 
       0.188953         868.066         804.974 
       0.204907         737.059          706.73 
       0.220756         659.703         600.164 
        0.23588         586.776         527.352 
         0.2514         527.111             480 
       0.267535         505.998         431.923 
       0.283568         441.486         381.019 
       0.299022         418.414         341.705 
       0.314451         413.899         313.154 
       0.330372         357.595          286.49 
       0.346141         331.399         259.818 
       0.361624         314.515         236.951 
       0.377134         290.273         218.598 
       0.392932         283.035          202.14 
       0.408854         267.675         186.181 
       0.424564         256.766         171.876 
       0.440253         231.917         159.654 
       0.455999         219.993         148.785 
       0.471626         216.232         138.708 
        0.48727         207.417         129.412 
       0.502856         189.396         121.125 
       0.518488         188.231         113.655 
       0.534347         175.633         106.659 
       0.550082         171.667          100.23 
       0.565732         168.875         94.3853 
       0.581496         156.538         89.0142 
       0.597222         153.131         84.0653 
       0.612804         148.384          79.513 
       0.628434         143.897         75.2813 
       0.644267         136.846          71.325 
       0.660051         132.821         67.6704 
       0.675724         131.272         64.2933 
       0.691403         127.887         61.1443 
       0.707174         123.565         58.1888 
       0.722871         121.356         55.4407 
        0.73838         118.693         52.8996 
       0.754018         111.439         50.4988 
       0.769845         110.948          48.221 
        0.78569         107.875         46.0819 
       0.801365         104.672         44.0939 
       0.817031          101.27          42.225 
       0.832809         99.5248         40.4531 
       0.848511         97.2343         38.7914 
       0.864097         95.5561          37.235 
       0.879701         93.8871          35.763 
       0.895507          90.365         34.3535 
       0.911279         89.0865         33.0234 
        0.92691         86.4306         31.7751 
       0.942635         84.6847         30.5848 
       0.958396         84.1994         29.4532 
       0.974128         82.2352         28.3813 
       0.989692          80.442         27.3735 
        1.00528         78.9109         26.4135 
        1.02113          77.047         25.4846 
        1.03692         76.8505         24.6041 
        1.05264         75.4202         23.7694 
        1.06832         72.9645         22.9749 
        1.08405         72.2594         22.2148 
        1.09979         71.6874         21.4887 
        1.11537          69.695         20.8025 
        1.13105         68.3324         20.1422 
        1.14679         67.4553         19.5082 
        1.16256         66.2252         18.9003 
        1.17828         65.5402         18.3205 
        1.19395         63.7379          17.767 
         1.2097         63.9447         17.2337 
        1.22537         62.3383         16.7249 
          1.241         61.7713         16.2383 
        1.25666         59.9608         15.7699 
        1.27241         59.8537         15.3178 
        1.28819         58.9415         14.8828 
        1.30392         57.8737          14.466 
        1.31957         57.5205         14.0671 
        1.33529         56.5471         13.6818 
        1.35108         55.6701         13.3095 
        1.36674         54.9163         12.9537 
         1.3824         54.0763         12.6113 
        1.39811         53.1915         12.2802 
        1.41389         52.3734         11.9598 
        1.42964         51.9648         11.6513 
        1.44531         50.9714         11.3553 
        1.46101         50.6056          11.069 
        1.47667         49.8493         10.7934 
        1.49229         49.1531          10.528 
        1.50793         48.6171         10.2713 
        1.52367          48.002         10.0214 
        1.53953         47.4472         9.77827 
        1.55526         46.7501         9.54514 
        1.57092         46.2724         9.32059 
        1.58662         45.6238         9.10276 
        1.60235         45.0519         8.89149 
        1.61809         44.3783         8.68683 
        1.63369         43.8402         8.49045 
        1.64941         43.3557         8.29876 
        1.66519         42.5981          8.1123 
        1.68085         42.2542         7.93292 
        1.69652         41.4963         7.75892 
        1.71228         41.3447         7.58917 
        1.72806         40.6076         7.42438 
        1.74368          40.158         7.26614 
        1.75933         39.8612         7.11221 
        1.77505          39.534         6.96203 
        1.79081         38.9369         6.81593 
         1.8065          38.275         6.67465 
        1.82218         37.7032         6.53752 
        1.83797         37.4559         6.40331 
        1.85367         36.9425         6.27361 
        1.86928         36.9447         6.14829 
        1.88497          36.059         6.02572 
        1.90073         35.7834         5.90605 
        1.91647          35.583         5.78974 
        1.93218         35.4126         5.67681 
        1.94787         34.8409         5.56707 
        1.96363         34.1922          5.4598 
        1.97935          33.996         5.35558 
        1.99499          33.662         5.25467 
        2.01064         33.1461         5.15623 
         2.0264         32.8344         5.05969 
        2.04216         32.6075         4.96568 
        2.05781         32.1726         4.87465 
        2.07353         31.8045         4.78558 
        2.08928         31.5672         4.69855 
        2.10499         31.2697         4.61392 
        2.12065         30.8538         4.53163 
        2.13633         30.6231         4.45128 
        2.15211         30.0499         4.37237 
        2.16785         29.8093         4.29559 
        2.18349         29.5029         4.22113 
        2.19916         29.1991         4.14829 
        2.21489         28.9221         4.07693 
        2.23063         28.7378          4.0072 
         2.2463          28.429         3.93942 
        2.26194          28.035         3.87338 
        2.27765         27.7446         3.80851 
        2.29341         27.4509         3.74497 
        2.30914         27.1735           3.683 
        2.32486         26.8845         3.62248 
        2.34061         26.6619         3.56321 
        2.35635         26.3315         3.50533 
        2.37203         26.1189         3.44893 
        2.38768          25.908         3.39389 
        2.40339          25.721         3.33986 
        2.41914         25.3848         3.28688 
        2.43483         25.2605         3.23523 
         2.4505          24.789         3.18479 
        2.46622         24.5426         3.13524 
        2.48195         24.3356         3.08675 
        2.49759         23.9829         3.03955 
        2.51328          23.865          2.9932 
        2.52906         23.6849         2.94754 
        2.54479         23.4003           2.903 
        2.56049         23.3216         2.85946 
        2.57618         23.0518         2.81686 
        2.59189          22.659         2.77506 
        2.60758         22.5587         2.73417 
        2.62325         22.2733         2.69416 
        2.63898         22.1227         2.65481 
        2.65468         21.9144         2.61633 
        2.67044         21.6399         2.57845 
        2.68618         21.4033         2.54141 
        2.70184         21.1963         2.50524 
        2.71755         21.0353         2.46969 
        2.73329         20.7841         2.43478 
        2.74897         20.6666         2.40065 
        2.76462         20.4984         2.36725 
        2.78034         20.1776         2.33435 
        2.79607         20.0069         2.30204 
        2.81179         19.8421         2.27039 
        2.82749         19.6565         2.23936 
        2.84321          19.515         2.20887 
        2.85893         19.2362         2.17897 
        2.87462         19.1203         2.14967 
        2.89033         18.9658         2.12088 
        2.90605         18.7124          2.0926 
        2.92176         18.4864         2.06484 
        2.93747         18.3782          2.0376 
        2.95318         18.2523         2.01085 
        2.96891         17.9984         1.98457 
        2.98456         17.9476         1.95887 
        3.00023          17.662         1.93359 
        3.01596         17.5032         1.90868 
        3.03164         17.3463         1.88428 
        3.04738         17.1982         1.86024 
         3.0631         17.0739         1.83662 
        3.07883         16.9041         1.81341 
        3.09456         16.7667         1.79061 
        3.11026         16.6116         1.76823 
        3.12596         16.4193         1.74624 
        3.14163         16.2869         1.72467 
        3.15734         16.1451         1.70342 
        3.17308         16.0418         1.68248 
        3.18879         15.7732         1.66194 
        3.20447          15.722         1.64178 
         3.2202         15.5587         1.62189 
         3.2359         15.4376         1.60236 
        3.25157         15.3198          1.5832 
        3.26729         15.1457          1.5643 
        3.28304         15.0687         1.54567 
        3.29877         14.9904         1.52737 
        3.31446           14.79          1.5094 
        3.33014         14.6463         1.49174 
        3.34585         14.5227         1.47434 
        3.36158         14.3868         1.45718 
        3.37727         14.2353         1.44035 
        3.39294          14.129         1.42381 
        3.40867         13.9969         1.40746 
        3.42439         13.8942         1.39138 
        3.44008         13.7698         1.37558 
        3.45578         13.6237         1.36002 
        3.47153         13.5228         1.34466 
        3.48724         13.4342         1.32957 
        3.50292         13.3293         1.31474 
        3.51859         13.1949         1.30015 
        3.53431         13.0472         1.28573 
        3.55007          12.947          1.2715 
        3.56577         12.8547         1.25754 
        3.58146         12.7225         1.24379 
        3.59719         12.6162         1.23022 
        3.61292         12.5183         1.21685 
        3.62859         12.3941         1.20374 
        3.64429         12.2977         1.19079 
        3.66003         12.1911         1.17799 
        3.67578         12.0992         1.16539 
        3.69146         12.0182         1.15301 
        3.70712         11.8641         1.14084 
        3.72284         11.7874          1.1288 
        3.73853          11.689         1.11696 
        3.75422         11.5634         1.10528 
        3.76993         11.4637         1.09376 
        3.78564         11.3937          1.0824 
        3.80137         11.2813         1.07119 
        3.81707         11.1988         1.06016 
        3.83279         11.1259         1.04928 
        3.84853         10.9995         1.03853 
        3.86424         10.9108         1.02796 
        3.87992           10.84         1.01754 
        3.89561         10.7445         1.00727 
        3.91134          10.657        0.997126 
        3.92704         10.5645        0.987129 
        3.94273         10.4813        0.977279 
        3.95845         10.3766        0.967545 
        3.97418         10.2911        0.957942 
        3.98988          10.245        0.948483 
        4.00554         10.1354        0.939176 
        4.02125         10.0477        0.929968 
        4.03698         9.97002        0.920869 
        4.05268         9.91127        0.911913 
        4.06839         9.79283        0.903069 
         4.0841         9.72416        0.894345 
        4.09983         9.65198        0.885724 
        4.11555         9.55388         0.87722 
        4.13124         9.48424        0.868851 
        4.14693         9.38364        0.860584 
        4.16266         9.33263        0.852406 
        4.17839         9.24032        0.844338 
        4.19408         9.18822        0.836394 
        4.20977         9.07576        0.828548 
        4.22551          9.0267        0.820784 
        4.24123         8.96898        0.813127 
        4.25691         8.88047        0.805589 
        4.27259         8.80572        0.798144 
        4.28831         8.72027        0.790779 
        4.30404         8.69853        0.783499 
        4.31974         8.58724        0.776326 
        4.33543          8.5493        0.769248 
        4.35116         8.44381        0.762241 
        4.36688         8.39592        0.755323 
        4.38255         8.33806        0.748517 
        4.39825         8.23886        0.741781 
        4.41398         8.18353        0.735113 
         4.4297         8.12471        0.728535 
        4.44541          8.0692        0.722039 
        4.46111         7.99443        0.715626 
        4.47683         7.96114        0.709287 
        4.49251         7.86975        0.703038 
        4.50819         7.81932        0.696865 
         4.5239         7.75244        0.690758 
        4.53962         7.68298        0.684716 
        4.55535         7.63616        0.678743 
        4.57106         7.57396        0.672851 
        4.58678          7.5348        0.667027 
         4.6025         7.45536         0.66127 
        4.61821         7.39469        0.655583 
        4.63391         7.34866         0.64997 
         4.6496         7.28865        0.644424 
        4.66532         7.23916        0.638935 
        4.68103         7.16847        0.633512 
        4.69673         7.12532        0.628157 
        4.71241         7.05607         0.62287 
        4.72811         6.99865        0.617634 
        4.74384         6.98757        0.612452 
        4.75955         6.92302        0.607338 
        4.77525         6.87144        0.602284 
        4.79096          6.8292        0.597282 
        4.80669         6.75162        0.592334 
         4.8224         6.70882        0.587448 
        4.83809          6.6696        0.582622 
        4.85379         6.60948        0.577848 
         4.8695         6.58949        0.573123 
        4.88521         6.50267        0.568453 
        4.90093         6.46506        0.563834 
        4.91663         6.42412         0.55927 
        4.93234         6.36998        0.554753 
        4.94807         6.31637        0.550282 
        4.96377         6.27952        0.545869 
        4.97943         6.21151        0.541513 
        4.99514         6.18101        0.537194 
        5.01086         6.14561        0.532918 
        5.02654         6.09783          0.5287 
        5.04227         6.05804        0.524516 
          5.058         5.99277        0.520374 
        5.07371         5.98911        0.516285 
        5.08942         5.92423         0.51224 
        5.10513         5.88374        0.508238 
        5.12084         5.83513        0.504276 
        5.13656         5.78722        0.500358 
        5.15225          5.7408        0.496487 
        5.16796         5.70778        0.492651 
        5.18369          5.6703        0.488853 
         5.1994         5.62561        0.485101 
        5.21509         5.58983        0.481392 
        5.23079         5.55953        0.477718 
        5.24649         5.49804        0.474084 
        5.26217          5.4848        0.470491 
        5.27788          5.4266         0.46693 
        5.29359         5.40555        0.463406 
        5.30933         5.35774        0.459912 
        5.32504         5.31934        0.456461 
        5.34073         5.28671        0.453048 
        5.35646         5.24469        0.449664 
        5.37218         5.21262        0.446313 
        5.38789          5.1758        0.443002 
        5.40357         5.12707        0.439729 
        5.41929         5.09119        0.436481 
        5.43502         5.06227        0.433266 
         5.4507         5.03676        0.430091 
        5.46639         4.99275        0.426947 
        5.48212         4.97396        0.423827 
        5.49786         4.93184        0.420735 
        5.51353         4.90347        0.417688 
        5.52921         4.86025        0.414669 
        5.54495         4.82812        0.411671 
        5.56066         4.79025        0.408706 
        5.57637         4.76209         0.40577 
        5.59207         4.72839        0.402866 
        5.60778         4.69571        0.399989 
        5.62346         4.66277        0.397144 
        5.63916         4.63367        0.394324 
        5.65487          4.6011         0.39153 
         5.6706         4.57945         0.38876 
        5.68633         4.54272        0.386016 
        5.70203         4.50844        0.383303 
        5.71773         4.48433        0.380618 
        5.73344         4.44663        0.377956 
        5.74916         4.42722        0.375318 
        5.76486         4.39295        0.372708 
        5.78054         4.37134        0.370127 
        5.79626         4.33016        0.367563 
          5.812         4.30796        0.365021 
         5.8277         4.28268        0.362511 
        5.84339          4.2534        0.360024 
        5.85911         4.22483        0.357556 
        5.87484          4.1887        0.355111 
        5.89053         4.17531        0.352694 
        5.90623         4.14312        0.350298 
        5.92195         4.12413         0.34792 
        5.93767         4.08706        0.345566 
        5.95336         4.07092        0.343237 
        5.96905         4.04357        0.340931 
        5.98476         4.01868        0.338643 
        6.00048         3.98764        0.336375 
        6.01617         3.95628         0.33413 
        6.03185         3.93461        0.331909 
        6.04756         3.90951        0.329703 
        6.06331          3.8876        0.327512 
        6.07903         3.86449        0.325346 
        6.09473         3.83777        0.323201 
        6.11044         3.80545        0.321073 
        6.12616         3.79841        0.318965 
        6.14186         3.76695        0.316878 
        6.15755          3.7422         0.31481 
        6.17326         3.72449        0.312759 
        6.18898         3.68703        0.310725 
        6.20467         3.66914        0.308713 
        6.22036         3.64826        0.306718 
         6.2361         3.63017        0.304736 
         6.2518         3.60814        0.302775 
        6.26748         3.58099        0.300835 
        6.28319         3.56319        0.298907 
        6.29893         3.54337        0.296994 
        6.31463         3.51946        0.295101 
        6.33033         3.50028        0.293225 
        6.34604         3.47804        0.291364 
        6.36177         3.45954        0.289518 
        6.37747         3.44778        0.287691 
