# k  (h/Mpc)    Pcb(k)  (Mpc/h)^3    Pcb_linear(k) (Mpc/h)^3   ShotnoiseSubtracted = true
      0.0200456         26824.3         27547.8 
      0.0350414         19549.3         20696.4 
      0.0492313         14927.5           15417 
      0.0637834         13043.4         12877.7 
      0.0800726         10274.5         10220.4 
       0.096163         7185.24          7527.3 
       0.111083         5878.64         6095.45 
       0.126058         5397.31         5394.86 
       0.142273         4658.45         4537.53 
       0.158546         4188.31         3614.91 
        0.17375         3388.47         3087.27 
       0.188953         3323.69         2792.36 
       0.204907         3119.12         2451.56 
       0.220756         2728.64          2081.9 
        0.23588         2464.64         1829.32 
         0.2514         2166.29         1665.06 
       0.267535         2177.71         1498.29 
       0.283568         1976.48         1321.71 
       0.299022         1885.39         1185.33 
       0.314451         1795.27         1086.29 
       0.330372         1640.24         993.799 
       0.346141         1618.78         901.276 
       0.361624         1556.58         821.955 
       0.377134         1458.24         758.291 
       0.392932         1396.12         701.199 
       0.408854         1376.87         645.841 
       0.424564         1267.44         596.215 
       0.440253         1241.28         553.819 
       0.455999         1226.11         516.116 
       0.471626         1178.76         481.162 
        0.48727         1135.58         448.916 
       0.502856         1090.17         420.169 
       0.518488         1096.45         394.255 
       0.534347         1026.52         369.986 
       0.550082          1015.5         347.685 
       0.565732         997.963         327.411 
       0.581496         955.675         308.779 
       0.597222         929.417         291.612 
       0.612804         918.095         275.821 
       0.628434         894.225         261.142 
       0.644267          871.64         247.418 
       0.660051         855.137          234.74 
       0.675724         844.769         223.026 
       0.691403         822.244         212.102 
       0.707174         793.218          201.85 
       0.722871         774.755         192.317 
        0.73838         763.088         183.502 
       0.754018         751.145         175.174 
       0.769845         738.093         167.273 
        0.78569         728.178         159.852 
       0.801365         706.323         152.956 
       0.817031         695.165         146.473 
       0.832809          684.13         140.327 
       0.848511         670.725         134.563 
       0.864097         648.215         129.164 
       0.879701         638.276         124.057 
       0.895507         637.198         119.168 
       0.911279         625.058         114.554 
        0.92691         612.894         110.224 
       0.942635         594.972         106.095 
       0.958396         584.301          102.17 
       0.974128         577.911         98.4512 
       0.989692         571.137         94.9554 
        1.00528         551.518         91.6251 
        1.02113         550.049          88.403 
        1.03692         538.648         85.3486 
        1.05264         529.559         82.4532 
        1.06832         518.259         79.6972 
        1.08405         510.667         77.0604 
        1.09979         503.046         74.5418 
        1.11537         495.683         72.1613 
        1.13105         488.169         69.8709 
        1.14679         476.087         67.6716 
        1.16256         466.965          65.563 
        1.17828          463.82         63.5516 
        1.19395           455.3         61.6316 
         1.2097         441.978         59.7816 
        1.22537          436.68         58.0167 
          1.241         428.376         56.3286 
        1.25666         425.994         54.7038 
        1.27241          416.49         53.1357 
        1.28819         406.175         51.6266 
        1.30392         402.375         50.1808 
        1.31957         393.895         48.7969 
        1.33529          391.53         47.4604 
        1.35108         382.497         46.1689 
        1.36674         376.443         44.9348 
         1.3824         371.913         43.7471 
        1.39811         363.805         42.5985 
        1.41389         360.099         41.4869 
        1.42964         355.394          40.417 
        1.44531         352.359         39.3902 
        1.46101         342.905          38.397 
        1.47667         336.382         37.4411 
        1.49229          334.25         36.5204 
        1.50793         324.293         35.6297 
        1.52367         323.681         34.7631 
        1.53953         314.859         33.9196 
        1.55526         313.204         33.1109 
        1.57092         309.909          32.332 
        1.58662         304.129         31.5764 
        1.60235         299.129         30.8435 
        1.61809         293.886         30.1336 
        1.63369         289.531         29.4523 
        1.64941         283.803         28.7874 
        1.66519         281.596         28.1406 
        1.68085         278.498         27.5183 
        1.69652         274.306         26.9148 
        1.71228         267.548         26.3259 
        1.72806         263.929         25.7543 
        1.74368         259.414         25.2053 
        1.75933          257.88         24.6714 
        1.77505         253.565         24.1504 
        1.79081         250.124         23.6436 
         1.8065         244.812         23.1536 
        1.82218          242.16         22.6779 
        1.83797         240.972         22.2123 
        1.85367         236.242         21.7624 
        1.86928         231.488         21.3277 
        1.88497         229.753         20.9025 
        1.90073          225.38         20.4874 
        1.91647         223.145         20.0839 
        1.93218         219.233         19.6922 
        1.94787         216.288         19.3115 
        1.96363         213.307         18.9394 
        1.97935         209.551         18.5778 
        1.99499         207.092         18.2278 
        2.01064         204.213         17.8863 
         2.0264         202.157         17.5515 
        2.04216          199.91         17.2253 
        2.05781         196.982         16.9096 
        2.07353         193.688         16.6006 
        2.08928          189.81         16.2987 
        2.10499         188.225         16.0051 
        2.12065         186.042         15.7197 
        2.13633         183.294          15.441 
        2.15211          180.56         15.1672 
        2.16785         179.004         14.9009 
        2.18349         176.988         14.6426 
        2.19916         173.539         14.3899 
        2.21489         172.141         14.1424 
        2.23063         169.686         13.9005 
         2.2463         166.677         13.6654 
        2.26194         164.846         13.4363 
        2.27765         162.314         13.2113 
        2.29341         160.217         12.9908 
        2.30914         158.285         12.7759 
        2.32486          157.26         12.5659 
        2.34061         153.909         12.3603 
        2.35635         153.066         12.1596 
        2.37203         150.626         11.9639 
        2.38768         148.626          11.773 
        2.40339         146.709         11.5856 
        2.41914         145.369         11.4018 
        2.43483          143.16         11.2226 
         2.4505          141.73         11.0476 
        2.46622          139.99         10.8758 
        2.48195         138.154         10.7076 
        2.49759         136.861         10.5438 
        2.51328         135.382         10.3831 
        2.52906          133.42         10.2246 
        2.54479         131.877         10.0701 
        2.56049         129.959         9.91912 
        2.57618         128.932         9.77133 
        2.59189         127.052         9.62633 
        2.60758         125.237         9.48451 
        2.62325         123.586         9.34572 
        2.63898         122.696         9.20922 
        2.65468         121.116         9.07574 
        2.67044         119.753         8.94434 
        2.68618         118.368         8.81584 
        2.70184         116.751         8.69039 
        2.71755         115.656         8.56706 
        2.73329         113.915         8.44594 
        2.74897         112.773         8.32756 
        2.76462         111.354         8.21171 
        2.78034          110.22         8.09758 
        2.79607         108.723         7.98551 
        2.81179         108.011         7.87569 
        2.82749         106.842         7.76806 
        2.84321         104.805         7.66232 
        2.85893         103.987         7.55858 
        2.87462         102.926         7.45694 
        2.89033         101.493         7.35708 
        2.90605         100.542         7.25896 
        2.92176         99.0333         7.16268 
        2.93747         98.1234          7.0682 
        2.95318         97.5411          6.9754 
        2.96891          96.134         6.88423 
        2.98456         94.9589         6.79509 
        3.00023         94.1746          6.7074 
        3.01596         93.0381         6.62099 
        3.03164         92.0593         6.53635 
        3.04738         91.2405         6.45294 
         3.0631         89.8381         6.37101 
        3.07883         88.8001          6.2905 
        3.09456         87.6848          6.2114 
        3.11026         87.4748         6.13378 
        3.12596         86.2757         6.05749 
        3.14163         85.1429         5.98268 
        3.15734         84.3315         5.90896 
        3.17308         83.6609         5.83631 
        3.18879         82.4874         5.76507 
        3.20447         81.6558         5.69513 
         3.2202         80.7874         5.62613 
         3.2359         80.0172          5.5584 
        3.25157         79.1864         5.49194 
        3.26729         78.2997         5.42637 
        3.28304         77.7361         5.36175 
        3.29877         76.7804         5.29826 
        3.31446         76.1871         5.23593 
        3.33014         75.2785         5.17467 
        3.34585         74.6982         5.11429 
        3.36158         73.6374         5.05478 
        3.37727         72.8385         4.99641 
        3.39294         72.0195         4.93902 
        3.40867         71.3572         4.88231 
        3.42439         70.3809         4.82653 
        3.44008         69.7531         4.77173 
        3.45578         69.0216         4.71774 
        3.47153         68.5761         4.66447 
        3.48724         67.9781         4.61212 
        3.50292         67.2504         4.56068 
        3.51859         66.6319         4.51006 
        3.53431         66.0619         4.46005 
        3.55007         65.2744         4.41068 
        3.56577         64.4864         4.36224 
        3.58146         64.0074         4.31456 
        3.59719          63.435         4.26748 
        3.61292         62.8046         4.22112 
        3.62859         62.1075         4.17562 
        3.64429         61.3865          4.1307 
        3.66003         60.8519         4.08631 
        3.67578         60.1175         4.04258 
        3.69146         59.7734         3.99967 
        3.70712         58.9945         3.95745 
        3.72284         58.6022         3.91568 
        3.73853         57.9841         3.87459 
        3.75422         57.2915         3.83408 
        3.76993         57.0395         3.79411 
        3.78564         56.2669         3.75472 
        3.80137         55.8049         3.71583 
        3.81707           55.27         3.67757 
        3.83279         54.6327         3.63982 
        3.84853          54.203         3.60254 
        3.86424          53.641         3.56586 
        3.87992         53.2804         3.52973 
        3.89561         52.6704         3.49411 
        3.91134         52.0775         3.45891 
        3.92704         51.9201         3.42423 
        3.94273         51.3732         3.39006 
        3.95845         50.8755          3.3563 
        3.97418         50.3649         3.32299 
        3.98988         49.8829         3.29017 
        4.00554         49.6123         3.25789 
        4.02125         48.9672         3.22595 
        4.03698         48.5087         3.19438 
        4.05268         48.0739         3.16331 
        4.06839         47.7156         3.13264 
         4.0841         47.1697         3.10237 
        4.09983         46.8275         3.07247 
        4.11555         46.3058         3.04297 
        4.13124         45.8676         3.01394 
        4.14693         45.5746         2.98526 
        4.16266         45.2064         2.95689 
        4.17839         44.7941         2.92891 
        4.19408         44.3066         2.90135 
        4.20977         43.9574         2.87413 
        4.22551         43.5604          2.8472 
        4.24123         43.0633         2.82064 
        4.25691         42.7758         2.79449 
        4.27259         42.2467         2.76867 
        4.28831         42.0561         2.74311 
        4.30404         41.6308         2.71786 
        4.31974         41.3058         2.69298 
        4.33543         40.9176         2.66843 
        4.35116          40.524         2.64412 
        4.36688         40.2426         2.62012 
        4.38255         39.8894         2.59652 
        4.39825          39.545         2.57315 
        4.41398         39.2349         2.55002 
         4.4297         38.8447          2.5272 
        4.44541         38.5254         2.50466 
        4.46111         38.1633         2.48242 
        4.47683         37.7813         2.46043 
        4.49251         37.6191         2.43875 
        4.50819         37.2062         2.41734 
         4.5239         36.9863         2.39615 
        4.53962         36.5304          2.3752 
        4.55535         36.3547         2.35448 
        4.57106         36.0372         2.33404 
        4.58678         35.6519         2.31383 
         4.6025          35.432         2.29387 
        4.61821         35.1309         2.27414 
        4.63391         34.7845         2.25467 
         4.6496          34.472         2.23543 
        4.66532         34.1646         2.21639 
        4.68103         33.9259         2.19758 
        4.69673         33.6439           2.179 
        4.71241         33.3225         2.16066 
        4.72811         33.1742          2.1425 
        4.74384          32.753         2.12452 
        4.75955         32.5738         2.10678 
        4.77525         32.2661         2.08925 
        4.79096         31.9675          2.0719 
        4.80669         31.7668         2.05474 
         4.8224         31.5423         2.03779 
        4.83809         31.2308         2.02105 
        4.85379         30.9939         2.00448 
         4.8695         30.7144         1.98809 
        4.88521         30.4653         1.97189 
        4.90093         30.2831         1.95587 
        4.91663         30.0375         1.94004 
        4.93234         29.8033         1.92437 
        4.94807         29.4766         1.90886 
        4.96377         29.2893         1.89355 
        4.97943         29.0611         1.87844 
        4.99514         28.8497         1.86346 
        5.01086         28.6411         1.84863 
        5.02654         28.3796           1.834 
        5.04227         28.1257         1.81948 
          5.058         27.9966         1.80511 
        5.07371         27.7134         1.79093 
        5.08942         27.5217          1.7769 
        5.10513         27.3542         1.76301 
        5.12084         27.1248         1.74927 
        5.13656          26.858         1.73568 
        5.15225         26.7035         1.72225 
        5.16796         26.4682         1.70895 
        5.18369         26.2868         1.69577 
         5.1994         26.1064         1.68276 
        5.21509         25.8953         1.66989 
        5.23079         25.6581         1.65714 
        5.24649         25.4413         1.64454 
        5.26217         25.2539         1.63208 
        5.27788         25.0753         1.61972 
        5.29359         24.8702          1.6075 
        5.30933         24.6712         1.59538 
        5.32504         24.4829         1.58341 
        5.34073         24.2775         1.57157 
        5.35646         24.1345         1.55983 
        5.37218         23.9448         1.54821 
        5.38789         23.7703         1.53672 
        5.40357         23.5583         1.52537 
        5.41929         23.4206          1.5141 
        5.43502         23.2784         1.50295 
         5.4507         23.0729         1.49193 
        5.46639         22.8864         1.48103 
        5.48212         22.7809          1.4702 
        5.49786         22.5485         1.45948 
        5.51353         22.3877         1.44891 
        5.52921          22.206         1.43844 
        5.54495         22.1119         1.42804 
        5.56066         21.9291         1.41775 
        5.57637         21.7041         1.40757 
        5.59207         21.5798         1.39749 
        5.60778         21.4183         1.38751 
        5.62346          21.244         1.37764 
        5.63916         21.0752         1.36786 
        5.65487         20.9604         1.35817 
         5.6706         20.7789         1.34856 
        5.68633          20.641         1.33904 
        5.70203         20.4467         1.32963 
        5.71773           20.33         1.32032 
        5.73344         20.1378         1.31108 
        5.74916         20.0176         1.30193 
        5.76486         19.9163         1.29288 
        5.78054         19.7378         1.28393 
        5.79626         19.6109         1.27503 
          5.812         19.4584         1.26621 
         5.8277         19.3783         1.25751 
        5.84339         19.2009         1.24888 
        5.85911         19.0182         1.24032 
        5.87484         18.9126         1.23184 
        5.89053         18.7991         1.22345 
        5.90623         18.6506         1.21514 
        5.92195         18.5288         1.20689 
        5.93767         18.3878         1.19873 
        5.95336         18.2948         1.19065 
        5.96905         18.1227         1.18265 
        5.98476         17.9807         1.17471 
        6.00048         17.8746         1.16684 
        6.01617         17.7344         1.15906 
        6.03185         17.6291         1.15135 
        6.04756         17.4834          1.1437 
        6.06331         17.3705          1.1361 
        6.07903         17.2666         1.12858 
        6.09473         17.1292         1.12114 
        6.11044         17.0098         1.11376 
        6.12616         16.8967         1.10645 
        6.14186         16.7935         1.09921 
        6.15755          16.697         1.09204 
        6.17326         16.5289         1.08492 
        6.18898           16.41         1.07787 
        6.20467          16.321         1.07089 
        6.22036         16.2002         1.06397 
         6.2361          16.106         1.05709 
         6.2518         15.9753         1.05029 
        6.26748         15.8625         1.04356 
        6.28319         15.7807         1.03687 
        6.29893         15.6559         1.03024 
        6.31463         15.5279         1.02367 
        6.33033         15.4095         1.01716 
        6.34604         15.3284         1.01071 
        6.36177         15.2345          1.0043 
        6.37747         15.1439        0.997965 
