# k  (h/Mpc)    Pcb(k)  (Mpc/h)^3    Pcb_linear(k) (Mpc/h)^3   ShotnoiseSubtracted = true
      0.0200456         500.811         507.782 
      0.0350414         376.264         372.985 
      0.0492313         269.106         267.922 
      0.0637834         222.906         224.097 
      0.0800726         181.793          183.83 
       0.096163         135.583         134.092 
       0.111083          106.18         104.354 
       0.126058         92.1608          92.454 
       0.142273         80.5298         81.2995 
       0.158546         65.0933         64.9381 
        0.17375         54.0018         53.2404 
       0.188953          48.142         47.8365 
       0.204907         42.9015         43.6078 
       0.220756         37.6282         37.5602 
        0.23588         32.2975         32.1233 
         0.2514         28.9721         28.7825 
       0.267535         26.7008         26.4803 
       0.283568         23.9259         23.7887 
       0.299022         21.3264         21.0716 
       0.314451         19.5753         19.0376 
       0.330372         17.8448         17.5657 
       0.346141         16.4076         16.1633 
       0.361624         14.9277         14.7162 
       0.377134           13.62          13.453 
       0.392932          12.935         12.4521 
       0.408854         11.7744         11.5697 
       0.424564         11.1234         10.7093 
       0.440253          10.184         9.90923 
       0.455999         9.36848         9.22577 
       0.471626         8.78734          8.6356 
        0.48727         8.39564         8.08216 
       0.502856         7.86765         7.56123 
       0.518488         7.25536         7.08938 
       0.534347         6.78799         6.66419 
       0.550082           6.501         6.27687 
       0.565732         6.20473         5.91643 
       0.581496         5.81555         5.58011 
       0.597222         5.48567         5.27443 
       0.612804         5.17906         4.99599 
       0.628434         4.95087         4.73571 
       0.644267         4.71473         4.48988 
       0.660051         4.47345         4.26247 
       0.675724         4.22251         4.05344 
       0.691403         4.04496          3.8588 
       0.707174         3.85102         3.67585 
       0.722871         3.75452         3.50549 
        0.73838         3.50493         3.34776 
       0.754018         3.35285         3.19855 
       0.769845          3.1771         3.05683 
        0.78569         3.08811         2.92359 
       0.801365         2.96011         2.79965 
       0.817031         2.85257         2.68304 
       0.832809         2.70587         2.57239 
       0.848511         2.61873         2.46856 
       0.864097         2.52736         2.37125 
       0.879701         2.44872         2.27917 
       0.895507         2.32878         2.19095 
       0.911279         2.25695         2.10766 
        0.92691         2.19324         2.02944 
       0.942635         2.08257         1.95481 
       0.958396         2.01731         1.88383 
       0.974128         1.95442         1.81654 
       0.989692         1.88054         1.75325 
        1.00528         1.81628         1.69292 
        1.02113         1.77193         1.63451 
        1.03692         1.72069          1.5791 
        1.05264         1.64404         1.52655 
        1.06832         1.60114          1.4765 
        1.08405         1.54082         1.42857 
        1.09979         1.50541         1.38277 
        1.11537         1.45155         1.33946 
        1.13105         1.39751         1.29776 
        1.14679         1.36607         1.25769 
        1.16256         1.32466         1.21925 
        1.17828         1.29588         1.18257 
        1.19395         1.25232         1.14753 
         1.2097         1.21376         1.11374 
        1.22537         1.17389          1.0815 
          1.241         1.14646         1.05064 
        1.25666         1.12506         1.02092 
        1.27241         1.08946        0.992224 
        1.28819         1.05244        0.964593 
        1.30392          1.0283        0.938105 
        1.31957         1.00395         0.91274 
        1.33529        0.970216         0.88823 
        1.35108         0.94808        0.864532 
        1.36674          0.9209        0.841877 
         1.3824        0.907199        0.820062 
        1.39811        0.879049        0.798956 
        1.41389         0.85829        0.778519 
        1.42964        0.836673        0.758839 
        1.44531        0.817434        0.739941 
        1.46101        0.792647        0.721654 
        1.47667        0.778723        0.704045 
        1.49229        0.753877        0.687076 
        1.50793        0.740343        0.670653 
        1.52367        0.719013        0.654666 
        1.53953        0.702804        0.639097 
        1.55526        0.691086        0.624164 
        1.57092        0.680642        0.609774 
        1.58662        0.665828        0.595808 
        1.60235         0.64704        0.582257 
        1.61809        0.631376        0.569123 
        1.63369        0.614053        0.556516 
        1.64941         0.60509        0.544203 
        1.66519        0.594266        0.532222 
        1.68085        0.577593         0.52069 
        1.69652        0.566456        0.509499 
        1.71228        0.553345        0.498577 
        1.72806        0.543103        0.487969 
        1.74368        0.532233        0.477779 
        1.75933        0.522207        0.467862 
        1.77505        0.513341        0.458182 
        1.79081         0.49756        0.448762 
         1.8065        0.492519        0.439649 
        1.82218        0.479063        0.430799 
        1.83797        0.466807        0.422134 
        1.85367        0.462774        0.413758 
        1.86928        0.452551        0.405661 
        1.88497        0.441346        0.397738 
        1.90073        0.435713            0.39 
        1.91647        0.426528        0.382476 
        1.93218        0.419724        0.375168 
        1.94787        0.410706        0.368064 
        1.96363        0.403576        0.361117 
        1.97935        0.395416        0.354365 
        1.99499         0.38828        0.347825 
        2.01064          0.3822        0.341442 
         2.0264        0.373119        0.335181 
        2.04216        0.366124         0.32908 
        2.05781        0.361269        0.323172 
        2.07353        0.354641        0.317389 
        2.08928        0.349137        0.311735 
        2.10499         0.34143        0.306236 
        2.12065        0.336218        0.300887 
        2.13633        0.330958        0.295662 
        2.15211        0.324881        0.290528 
        2.16785        0.319519        0.285532 
        2.18349        0.314642        0.280685 
        2.19916          0.3079        0.275942 
        2.21489        0.302504        0.271293 
        2.23063        0.297585        0.266749 
         2.2463        0.293364        0.262331 
        2.26194        0.289301        0.258024 
        2.27765        0.283297        0.253793 
        2.29341        0.279151        0.249646 
        2.30914        0.273374        0.245601 
        2.32486        0.269448        0.241649 
        2.34061        0.264943        0.237778 
        2.35635        0.261157        0.233995 
        2.37203        0.259001        0.230309 
        2.38768        0.253424        0.226711 
        2.40339        0.249407        0.223176 
        2.41914        0.245848         0.21971 
        2.43483         0.24171         0.21633 
         2.4505        0.237818        0.213027 
        2.46622        0.234602        0.209782 
        2.48195        0.230443        0.206605 
        2.49759        0.228814        0.203512 
        2.51328        0.222995        0.200474 
        2.52906         0.22013        0.197479 
        2.54479        0.217185        0.194557 
        2.56049        0.212994        0.191701 
        2.57618        0.211635        0.188905 
        2.59189         0.20713         0.18616 
        2.60758        0.205426        0.183475 
        2.62325        0.202111        0.180846 
        2.63898        0.199996        0.178261 
        2.65468        0.195437        0.175731 
        2.67044         0.19339         0.17324 
        2.68618        0.190427        0.170804 
        2.70184         0.18824        0.168424 
        2.71755         0.18492        0.166084 
        2.73329        0.183489        0.163786 
        2.74897        0.179981        0.161538 
        2.76462        0.177816        0.159338 
        2.78034        0.175136         0.15717 
        2.79607        0.173349        0.155041 
        2.81179        0.169612        0.152954 
        2.82749        0.168374        0.150908 
        2.84321        0.166404        0.148897 
        2.85893        0.163406        0.146923 
        2.87462        0.161823        0.144989 
        2.89033        0.159034        0.143089 
        2.90605        0.157609        0.141221 
        2.92176         0.15589        0.139387 
        2.93747        0.153326        0.137588 
        2.95318        0.151717        0.135819 
        2.96891        0.149847        0.134082 
        2.98456        0.148384        0.132382 
        3.00023        0.146107         0.13071 
        3.01596        0.143843        0.129062 
        3.03164        0.142173        0.127447 
        3.04738        0.140811        0.125855 
         3.0631         0.13896        0.124291 
        3.07883        0.137192        0.122754 
        3.09456        0.135583        0.121243 
        3.11026        0.133511         0.11976 
        3.12596        0.132134        0.118302 
        3.14163        0.130764        0.116872 
        3.15734        0.129495        0.115463 
        3.17308         0.12754        0.114073 
        3.18879        0.126263         0.11271 
        3.20447        0.124475        0.111372 
         3.2202        0.123377        0.110051 
         3.2359        0.121877        0.108755 
        3.25157        0.120348        0.107482 
        3.26729        0.119083        0.106226 
        3.28304        0.118088        0.104988 
        3.29877        0.116233        0.103771 
        3.31446        0.115318        0.102577 
        3.33014        0.114067        0.101402 
        3.34585        0.112278        0.100244 
        3.36158        0.111336       0.0991025 
        3.37727        0.110323       0.0979824 
        3.39294        0.109347       0.0968809 
        3.40867        0.107979       0.0957924 
        3.42439         0.10705       0.0947214 
        3.44008          0.1061       0.0936689 
        3.45578         0.10503       0.0926317 
        3.47153        0.104003        0.091608 
        3.48724        0.102916       0.0906017 
        3.50292        0.102086        0.089613 
        3.51859        0.100794       0.0886396 
        3.53431       0.0998046       0.0876777 
        3.55007        0.098888       0.0867279 
        3.56577       0.0981649       0.0857959 
        3.58146       0.0970777       0.0848781 
        3.59719       0.0959826       0.0839717 
        3.61292       0.0951485        0.083079 
        3.62859       0.0944096       0.0822026 
        3.64429       0.0932049       0.0813373 
        3.66003       0.0928754       0.0804819 
        3.67578       0.0918992       0.0796392 
        3.69146       0.0910594       0.0788119 
        3.70712        0.090247       0.0779978 
        3.72284       0.0893746       0.0771923 
        3.73853       0.0888578       0.0763996 
        3.75422       0.0878771       0.0756179 
        3.76993       0.0871544       0.0748465 
        3.78564       0.0865895       0.0740862 
        3.80137       0.0860417       0.0733353 
        3.81707       0.0846696       0.0725965 
        3.83279       0.0841999       0.0718673 
        3.84853       0.0834814        0.071147 
        3.86424       0.0828932       0.0704381 
        3.87992       0.0822348       0.0697399 
        3.89561       0.0813783       0.0690512 
        3.91134       0.0806718       0.0683705 
        3.92704       0.0799658       0.0676997 
        3.94273       0.0791986       0.0670387 
        3.95845       0.0785033       0.0663854 
        3.97418       0.0779701       0.0657407 
        3.98988       0.0768148       0.0651055 
        4.00554       0.0763777       0.0644804 
        4.02125       0.0757696       0.0638619 
        4.03698       0.0745262       0.0632505 
        4.05268       0.0740165       0.0626486 
        4.06839       0.0728808       0.0620541 
         4.0841       0.0718571       0.0614675 
        4.09983       0.0710115       0.0608878 
        4.11555       0.0700804       0.0603158 
        4.13124       0.0691806       0.0597528 
        4.14693       0.0683936       0.0591965 
        4.16266       0.0673647       0.0586461 
        4.17839       0.0667309       0.0581031 
        4.19408       0.0659441       0.0575681 
        4.20977       0.0652585       0.0570398 
        4.22551       0.0645073       0.0565168 
        4.24123       0.0637226        0.056001 
        4.25691       0.0631792       0.0554931 
        4.27259       0.0625314       0.0549913 
        4.28831       0.0621543       0.0544948 
        4.30404       0.0613127        0.054004 
        4.31974       0.0608278       0.0535203 
        4.33543       0.0602654       0.0530428 
        4.35116       0.0599361       0.0525701 
        4.36688        0.059175       0.0521033 
        4.38255       0.0588339        0.051644 
        4.39825       0.0584504       0.0511893 
        4.41398       0.0579147       0.0507391 
         4.4297       0.0575724       0.0502949 
        4.44541       0.0572391       0.0498561 
        4.46111       0.0567484        0.049423 
        4.47683       0.0565068       0.0489946 
        4.49251       0.0562511       0.0485723 
        4.50819       0.0559312       0.0481551 
         4.5239       0.0556225       0.0477422 
        4.53962       0.0554734       0.0473337 
        4.55535       0.0554186       0.0469298 
        4.57106       0.0550069       0.0465312 
        4.58678       0.0550036       0.0461371 
         4.6025       0.0546407       0.0457476 
        4.61821       0.0547194       0.0453627 
        4.63391       0.0544903       0.0449827 
         4.6496       0.0543251       0.0446072 
        4.66532       0.0543937       0.0442355 
        4.68103       0.0544595       0.0438682 
        4.69673        0.054215       0.0435055 
        4.71241       0.0543739       0.0431472 
        4.72811       0.0542173       0.0427924 
        4.74384       0.0542332       0.0424412 
        4.75955       0.0544027       0.0420945 
        4.77525        0.054484       0.0417518 
        4.79096       0.0545827       0.0414126 
        4.80669       0.0545471        0.041077 
         4.8224       0.0546972       0.0407455 
        4.83809       0.0548324       0.0404181 
        4.85379       0.0550313        0.040094 
         4.8695       0.0553636       0.0397733 
        4.88521       0.0554983       0.0394563 
        4.90093       0.0558665       0.0391427 
        4.91663       0.0561976       0.0388328 
        4.93234       0.0561037       0.0385259 
        4.94807       0.0566316       0.0382222 
        4.96377        0.056835       0.0379223 
        4.97943       0.0573927       0.0376263 
        4.99514       0.0576365       0.0373327 
        5.01086       0.0580274       0.0370421 
        5.02654       0.0585428       0.0367553 
        5.04227       0.0589247       0.0364707 
          5.058       0.0593052        0.036189 
        5.07371       0.0597156       0.0359108 
        5.08942       0.0603863       0.0356356 
        5.10513       0.0607976       0.0353632 
        5.12084       0.0614708       0.0350936 
        5.13656        0.062095       0.0348268 
        5.15225       0.0626816       0.0345633 
        5.16796        0.063336       0.0343021 
        5.18369       0.0640209       0.0340433 
         5.1994       0.0646272       0.0337878 
        5.21509       0.0654432       0.0335351 
        5.23079       0.0660997       0.0332847 
        5.24649       0.0669545        0.033037 
        5.26217       0.0675619       0.0327921 
        5.27788       0.0688311       0.0325493 
        5.29359       0.0694914        0.032309 
        5.30933       0.0703993       0.0320707 
        5.32504       0.0713082       0.0318353 
        5.34073       0.0718459       0.0316025 
        5.35646       0.0729808       0.0313716 
        5.37218       0.0741042       0.0311429 
        5.38789       0.0751505       0.0309169 
        5.40357       0.0763349       0.0306935 
        5.41929       0.0775004       0.0304717 
        5.43502       0.0787414       0.0302522 
         5.4507       0.0796569       0.0300353 
        5.46639       0.0805169       0.0298205 
        5.48212       0.0819823       0.0296074 
        5.49786       0.0837563       0.0293961 
        5.51353       0.0850362       0.0291879 
        5.52921        0.085967       0.0289815 
        5.54495       0.0875825       0.0287766 
        5.56066       0.0888809       0.0285738 
        5.57637       0.0906266       0.0283731 
        5.59207       0.0916175       0.0281744 
        5.60778       0.0930214       0.0279776 
        5.62346       0.0946965        0.027783 
        5.63916       0.0965785         0.02759 
        5.65487       0.0985299       0.0273988 
         5.6706       0.0994019       0.0272092 
        5.68633        0.101496       0.0270213 
        5.70203        0.103236       0.0268356 
        5.71773        0.105616       0.0266517 
        5.73344        0.107696       0.0264694 
        5.74916        0.109476       0.0262887 
        5.76486        0.111638       0.0261099 
        5.78054        0.113884        0.025933 
        5.79626        0.115552       0.0257573 
          5.812        0.117768       0.0255831 
         5.8277        0.119826        0.025411 
        5.84339        0.122099       0.0252405 
        5.85911         0.12412       0.0250712 
        5.87484        0.126181       0.0249035 
        5.89053        0.129165       0.0247377 
        5.90623        0.132289       0.0245734 
        5.92195        0.134175       0.0244102 
        5.93767        0.136518       0.0242487 
        5.95336        0.138856       0.0240888 
        5.96905        0.143129       0.0239305 
        5.98476        0.144511       0.0237734 
        6.00048        0.147287       0.0236177 
        6.01617        0.150752       0.0234635 
        6.03185        0.153332        0.023311 
        6.04756        0.155212       0.0231594 
        6.06331        0.159859       0.0230089 
        6.07903         0.16205         0.02286 
        6.09473        0.164517       0.0227126 
        6.11044        0.169358       0.0225664 
        6.12616        0.171848       0.0224215 
        6.14186        0.175159        0.022278 
        6.15755        0.178162       0.0221358 
        6.17326        0.182213       0.0219947 
        6.18898        0.185866       0.0218548 
        6.20467        0.188603       0.0217164 
        6.22036        0.192224       0.0215792 
         6.2361        0.195041       0.0214428 
         6.2518        0.201568       0.0213078 
        6.26748        0.204215       0.0211743 
        6.28319        0.207838       0.0210415 
        6.29893        0.213008       0.0209098 
        6.31463        0.216856       0.0207795 
        6.33033        0.219234       0.0206503 
        6.34604        0.224519       0.0205221 
        6.36177        0.227243       0.0203949 
        6.37747        0.232693        0.020269 
