# k  (h/Mpc)    Pcb(k)  (Mpc/h)^3    Pcb_linear(k) (Mpc/h)^3   ShotnoiseSubtracted = true
      0.0200456         14.6485         14.8575 
      0.0350414         10.9367         10.9134 
      0.0492313          7.8798         7.83929 
      0.0637834          6.5739         6.55698 
      0.0800726         5.36529         5.37879 
       0.096163         3.93987         3.92349 
       0.111083         3.07121         3.05337 
       0.126058         2.70817         2.70517 
       0.142273         2.37221         2.37879 
       0.158546         1.90547         1.90006 
        0.17375          1.5637         1.55779 
       0.188953         1.40138         1.39968 
       0.204907         1.27723         1.27595 
       0.220756         1.10054           1.099 
        0.23588        0.943553        0.939914 
         0.2514         0.84366        0.842165 
       0.267535        0.774299        0.774803 
       0.283568        0.696152         0.69605 
       0.299022        0.617967        0.616548 
       0.314451        0.556865        0.557034 
       0.330372        0.513949        0.513966 
       0.346141        0.472784        0.472933 
       0.361624          0.4312        0.430589 
       0.377134        0.394602        0.393628 
       0.392932        0.363241        0.364345 
       0.408854        0.338913        0.338525 
       0.424564        0.313018        0.313351 
       0.440253        0.290114         0.28994 
       0.455999        0.270591        0.269943 
       0.471626        0.253287        0.252674 
        0.48727        0.236497        0.236481 
       0.502856        0.221122        0.221239 
       0.518488        0.208128        0.207433 
       0.534347        0.195952        0.194992 
       0.550082        0.183748        0.183659 
       0.565732        0.172654        0.173113 
       0.581496        0.163488        0.163272 
       0.597222        0.154677        0.154328 
       0.612804        0.146373        0.146181 
       0.628434        0.139039        0.138565 
       0.644267        0.131585        0.131372 
       0.660051        0.124817        0.124718 
       0.675724        0.118861        0.118602 
       0.691403        0.113315        0.112907 
       0.707174        0.107815        0.107554 
       0.722871        0.102571        0.102569 
        0.73838       0.0983044       0.0979542 
       0.754018       0.0940233       0.0935884 
       0.769845       0.0899001       0.0894417 
        0.78569       0.0858493       0.0855432 
       0.801365       0.0821251       0.0819168 
       0.817031       0.0787882       0.0785047 
       0.832809       0.0755437       0.0752672 
       0.848511       0.0724867        0.072229 
       0.864097       0.0695097       0.0693818 
       0.879701       0.0667651       0.0666875 
       0.895507       0.0644472       0.0641065 
       0.911279       0.0619172       0.0616693 
        0.92691        0.059532       0.0593807 
       0.942635       0.0574756       0.0571971 
       0.958396       0.0552967       0.0551202 
       0.974128       0.0533495       0.0531514 
       0.989692       0.0515222       0.0512995 
        1.00528       0.0498343       0.0495341 
        1.02113       0.0479431       0.0478251 
        1.03692       0.0463607        0.046204 
        1.05264       0.0448712       0.0446663 
        1.06832       0.0434101       0.0432017 
        1.08405       0.0419725       0.0417996 
        1.09979       0.0405824       0.0404595 
        1.11537       0.0394875        0.039192 
        1.13105       0.0382224       0.0379719 
        1.14679       0.0370929       0.0367995 
        1.16256       0.0358356       0.0356749 
        1.17828       0.0347617       0.0346014 
        1.19395       0.0337528       0.0335762 
         1.2097       0.0327496       0.0325877 
        1.22537       0.0318847       0.0316442 
          1.241       0.0309577       0.0307413 
        1.25666       0.0300934       0.0298718 
        1.27241       0.0292373       0.0290321 
        1.28819       0.0284383       0.0282236 
        1.30392       0.0276246       0.0274486 
        1.31957       0.0269187       0.0267064 
        1.33529       0.0261405       0.0259893 
        1.35108       0.0255079       0.0252959 
        1.36674       0.0247474        0.024633 
         1.3824       0.0242328       0.0239947 
        1.39811       0.0235762       0.0233772 
        1.41389       0.0229521       0.0227792 
        1.42964       0.0224311       0.0222033 
        1.44531       0.0218286       0.0216504 
        1.46101        0.021309       0.0211153 
        1.47667       0.0207667       0.0206001 
        1.49229       0.0202839       0.0201036 
        1.50793       0.0197762       0.0196231 
        1.52367       0.0193192       0.0191553 
        1.53953       0.0189088       0.0186997 
        1.55526       0.0184629       0.0182628 
        1.57092       0.0179783       0.0178418 
        1.58662       0.0176174       0.0174331 
        1.60235       0.0172463       0.0170366 
        1.61809       0.0168048       0.0166523 
        1.63369       0.0164476       0.0162834 
        1.64941       0.0161261       0.0159232 
        1.66519       0.0157507       0.0155726 
        1.68085       0.0153995       0.0152352 
        1.69652        0.015057       0.0149078 
        1.71228       0.0147835       0.0145882 
        1.72806       0.0144187       0.0142778 
        1.74368       0.0141456       0.0139796 
        1.75933        0.013864       0.0136895 
        1.77505       0.0135638       0.0134062 
        1.79081       0.0133021       0.0131306 
         1.8065       0.0130112        0.012864 
        1.82218       0.0127701        0.012605 
        1.83797       0.0125182       0.0123515 
        1.85367       0.0122688       0.0121064 
        1.86928       0.0120541       0.0118695 
        1.88497       0.0118201       0.0116377 
        1.90073       0.0115931       0.0114113 
        1.91647       0.0113331       0.0111911 
        1.93218       0.0111271       0.0109773 
        1.94787       0.0109203       0.0107694 
        1.96363       0.0107344       0.0105661 
        1.97935       0.0105253       0.0103686 
        1.99499       0.0103364       0.0101772 
        2.01064       0.0101658      0.00999047 
         2.0264      0.00998602      0.00980726 
        2.04216      0.00977813      0.00962877 
        2.05781      0.00961928      0.00945589 
        2.07353      0.00942674      0.00928667 
        2.08928      0.00928145      0.00912126 
        2.10499      0.00908949      0.00896035 
        2.12065      0.00895933      0.00880384 
        2.13633      0.00880028      0.00865096 
        2.15211      0.00866158      0.00850075 
        2.16785      0.00852243      0.00835456 
        2.18349      0.00835322      0.00821275 
        2.19916      0.00824269      0.00807396 
        2.21489       0.0081086      0.00793794 
        2.23063      0.00796041      0.00780499 
         2.2463      0.00780902       0.0076757 
        2.26194      0.00769243      0.00754969 
        2.27765      0.00757308      0.00742588 
        2.29341      0.00746134      0.00730455 
        2.30914      0.00733443       0.0071862 
        2.32486      0.00722207      0.00707056 
        2.34061      0.00710991      0.00695729 
        2.35635       0.0069887      0.00684662 
        2.37203      0.00688167      0.00673876 
        2.38768      0.00676308      0.00663346 
        2.40339      0.00667087      0.00653005 
        2.41914      0.00657269      0.00642862 
        2.43483      0.00645549      0.00632972 
         2.4505       0.0063742      0.00623309 
        2.46622      0.00628114      0.00613815 
        2.48195      0.00618024      0.00604519 
        2.49759      0.00608465      0.00595468 
        2.51328      0.00601458      0.00586579 
        2.52906      0.00592586      0.00577817 
        2.54479        0.005837      0.00569268 
        2.56049      0.00575626       0.0056091 
        2.57618      0.00566974      0.00552728 
        2.59189      0.00559185      0.00544698 
        2.60758      0.00550399      0.00536841 
        2.62325      0.00543445       0.0052915 
        2.63898      0.00534958      0.00521584 
        2.65468      0.00528461      0.00514183 
        2.67044        0.005212      0.00506894 
        2.68618      0.00513904      0.00499765 
        2.70184         0.00506      0.00492803 
        2.71755      0.00499474      0.00485956 
        2.73329      0.00491977       0.0047923 
        2.74897      0.00487027      0.00472655 
        2.76462      0.00479751      0.00466218 
        2.78034      0.00473064      0.00459875 
        2.79607      0.00467162      0.00453644 
        2.81179      0.00460983      0.00447537 
        2.82749      0.00454815       0.0044155 
        2.84321      0.00448935      0.00435666 
        2.85893      0.00442507      0.00429892 
        2.87462      0.00436852      0.00424234 
        2.89033      0.00432589      0.00418672 
        2.90605       0.0042673      0.00413207 
        2.92176      0.00421716      0.00407842 
        2.93747      0.00415521      0.00402576 
        2.95318      0.00410748      0.00397403 
        2.96891      0.00406139      0.00392318 
        2.98456      0.00401348      0.00387346 
        3.00023      0.00395674      0.00382453 
        3.01596      0.00389943       0.0037763 
        3.03164      0.00386702      0.00372905 
        3.04738      0.00381487      0.00368247 
         3.0631       0.0037594      0.00363671 
        3.07883      0.00371725      0.00359173 
        3.09456      0.00368392      0.00354752 
        3.11026      0.00363567      0.00350413 
        3.12596      0.00359277      0.00346148 
        3.14163      0.00354488      0.00341964 
        3.15734      0.00350449      0.00337839 
        3.17308      0.00345981      0.00333773 
        3.18879       0.0034309      0.00329786 
        3.20447      0.00338723       0.0032587 
         3.2202      0.00335038      0.00322006 
         3.2359      0.00331014      0.00318212 
        3.25157      0.00327275      0.00314489 
        3.26729      0.00324259      0.00310814 
        3.28304      0.00320052      0.00307191 
        3.29877      0.00316738      0.00303631 
        3.31446      0.00313281      0.00300135 
        3.33014      0.00309374      0.00296698 
        3.34585       0.0030525       0.0029331 
        3.36158      0.00302608       0.0028997 
        3.37727      0.00299531      0.00286693 
        3.39294      0.00296655       0.0028347 
        3.40867      0.00293448      0.00280285 
        3.42439       0.0029002      0.00277151 
        3.44008       0.0028709      0.00274072 
        3.45578      0.00283532      0.00271037 
        3.47153      0.00281148      0.00268042 
        3.48724       0.0027831      0.00265097 
        3.50292      0.00274375      0.00262204 
        3.51859      0.00271917      0.00259356 
        3.53431      0.00269384      0.00256542 
        3.55007      0.00267396      0.00253762 
        3.56577      0.00264742      0.00251036 
        3.58146      0.00260841       0.0024835 
        3.59719      0.00258404      0.00245698 
        3.61292      0.00255775      0.00243086 
        3.62859      0.00253788      0.00240522 
        3.64429      0.00250587       0.0023799 
        3.66003      0.00248562      0.00235487 
        3.67578      0.00246084      0.00233021 
        3.69146      0.00243313      0.00230601 
        3.70712      0.00241495      0.00228219 
        3.72284      0.00238838      0.00225862 
        3.73853      0.00236624      0.00223543 
        3.75422      0.00234319      0.00221255 
        3.76993       0.0023197      0.00218998 
        3.78564      0.00230384      0.00216773 
        3.80137      0.00228155      0.00214576 
        3.81707      0.00225849      0.00212415 
        3.83279      0.00223861      0.00210281 
        3.84853      0.00221697      0.00208173 
        3.86424      0.00219171      0.00206099 
        3.87992       0.0021745      0.00204056 
        3.89561      0.00215502      0.00202041 
        3.91134      0.00213699      0.00200049 
        3.92704      0.00211119      0.00198087 
        3.94273      0.00210435      0.00196153 
        3.95845      0.00207497      0.00194241 
        3.97418      0.00205498      0.00192355 
        3.98988       0.0020468      0.00190496 
        4.00554      0.00202225      0.00188667 
        4.02125      0.00199763      0.00186857 
        4.03698      0.00197778      0.00185069 
        4.05268      0.00195865      0.00183307 
        4.06839      0.00194483      0.00181568 
         4.0841      0.00192308      0.00179852 
        4.09983      0.00191021      0.00178155 
        4.11555      0.00189754      0.00176482 
        4.13124      0.00187941      0.00174834 
        4.14693      0.00186746      0.00173207 
        4.16266      0.00184921      0.00171596 
        4.17839      0.00183655      0.00170007 
        4.19408       0.0018235      0.00168442 
        4.20977      0.00181558      0.00166896 
        4.22551      0.00180103      0.00165366 
        4.24123      0.00178804      0.00163857 
        4.25691      0.00177422      0.00162371 
        4.27259      0.00176253      0.00160903 
        4.28831      0.00175469       0.0015945 
        4.30404      0.00174445      0.00158014 
        4.31974      0.00173395      0.00156598 
        4.33543      0.00172341      0.00155201 
        4.35116      0.00171513      0.00153818 
        4.36688      0.00170443      0.00152452 
        4.38255      0.00169952      0.00151108 
        4.39825      0.00169154      0.00149778 
        4.41398      0.00168315      0.00148461 
         4.4297       0.0016778      0.00147161 
        4.44541      0.00167179      0.00145877 
        4.46111      0.00166533       0.0014461 
        4.47683      0.00166053      0.00143357 
        4.49251      0.00165377      0.00142121 
        4.50819      0.00165069        0.001409 
         4.5239      0.00165055      0.00139692 
        4.53962      0.00164395      0.00138497 
        4.55535      0.00164143      0.00137315 
        4.57106      0.00164207      0.00136148 
        4.58678      0.00163775      0.00134996 
         4.6025      0.00163719      0.00133856 
        4.61821      0.00163943      0.00132729 
        4.63391      0.00163589      0.00131618 
         4.6496      0.00163829      0.00130519 
        4.66532      0.00163724      0.00129431 
        4.68103      0.00164251      0.00128357 
        4.69673      0.00163793      0.00127295 
        4.71241      0.00164388      0.00126247 
        4.72811      0.00164791      0.00125209 
        4.74384      0.00164969      0.00124181 
        4.75955      0.00165281      0.00123167 
        4.77525      0.00165911      0.00122164 
        4.79096      0.00166441      0.00121172 
        4.80669      0.00166764       0.0012019 
         4.8224      0.00167444       0.0011922 
        4.83809        0.001683      0.00118262 
        4.85379      0.00169575      0.00117314 
         4.8695       0.0017015      0.00116375 
        4.88521      0.00170302      0.00115448 
        4.90093      0.00172051       0.0011453 
        4.91663      0.00172647      0.00113623 
        4.93234      0.00173638      0.00112725 
        4.94807      0.00175476      0.00111837 
        4.96377      0.00176844      0.00110959 
        4.97943      0.00177843      0.00110093 
        4.99514      0.00179825      0.00109234 
        5.01086      0.00179994      0.00108384 
        5.02654      0.00181533      0.00107545 
        5.04227      0.00183368      0.00106712 
          5.058      0.00185251      0.00105888 
        5.07371      0.00187375      0.00105074 
        5.08942      0.00188881      0.00104268 
        5.10513       0.0019015      0.00103471 
        5.12084      0.00192924      0.00102682 
        5.13656      0.00194176      0.00101902 
        5.15225      0.00197222      0.00101131 
        5.16796       0.0019891      0.00100367 
        5.18369      0.00201692     0.000996095 
         5.1994      0.00204409     0.000988618 
        5.21509      0.00206252     0.000981224 
        5.23079      0.00208688     0.000973897 
        5.24649      0.00211971     0.000966652 
        5.26217      0.00213916     0.000959485 
        5.27788      0.00216927     0.000952382 
        5.29359      0.00220044     0.000945349 
        5.30933       0.0022338     0.000938378 
        5.32504      0.00226598     0.000931489 
        5.34073      0.00230177     0.000924678 
        5.35646      0.00233206     0.000917921 
        5.37218      0.00236516     0.000911231 
        5.38789       0.0023965     0.000904618 
        5.40357      0.00244108      0.00089808 
        5.41929      0.00247319     0.000891592 
        5.43502      0.00251884     0.000885167 
         5.4507      0.00256623     0.000878822 
        5.46639      0.00260036     0.000872538 
        5.48212      0.00264202     0.000866301 
        5.49786       0.0027121     0.000860118 
        5.51353       0.0027382     0.000854027 
        5.52921      0.00277661     0.000847989 
        5.54495      0.00283049     0.000841991 
        5.56066      0.00288799     0.000836059 
        5.57637      0.00293786     0.000830185 
        5.59207       0.0029972     0.000824373 
        5.60778       0.0030523     0.000818615 
        5.62346      0.00310221      0.00081292 
        5.63916      0.00316014     0.000807274 
        5.65487      0.00323204     0.000801679 
         5.6706      0.00328151     0.000796131 
        5.68633      0.00335823     0.000790633 
        5.70203      0.00342023       0.0007852 
        5.71773      0.00351516     0.000779818 
        5.73344      0.00355494     0.000774484 
        5.74916      0.00363378     0.000769196 
        5.76486      0.00371426     0.000763965 
        5.78054      0.00379939      0.00075879 
        5.79626      0.00386828     0.000753649 
          5.812      0.00396727     0.000748551 
         5.8277      0.00402954     0.000743515 
        5.84339      0.00415866     0.000738526 
        5.85911      0.00421296     0.000733574 
        5.87484      0.00431411     0.000728668 
        5.89053      0.00442116     0.000723816 
        5.90623       0.0045485     0.000719007 
        5.92195      0.00462661     0.000714234 
        5.93767      0.00472047     0.000709507 
        5.95336      0.00483346      0.00070483 
        5.96905      0.00496291     0.000700198 
        5.98476      0.00506352     0.000695601 
        6.00048      0.00519043     0.000691044 
        6.01617      0.00530013     0.000686535 
        6.03185      0.00542563     0.000682071 
        6.04756       0.0055706     0.000677636 
        6.06331      0.00571766     0.000673232 
        6.07903      0.00582466     0.000668876 
        6.09473      0.00600172     0.000664563 
        6.11044       0.0061446     0.000660285 
        6.12616       0.0062793     0.000656045 
        6.14186      0.00643425     0.000651846 
        6.15755      0.00660899     0.000647685 
        6.17326      0.00681341     0.000643558 
        6.18898      0.00696593     0.000639464 
        6.20467      0.00712496     0.000635413 
        6.22036      0.00733603     0.000631399 
         6.2361      0.00750821     0.000627408 
         6.2518      0.00770606     0.000623458 
        6.26748      0.00788622     0.000619552 
        6.28319      0.00813985     0.000615668 
        6.29893      0.00833347     0.000611814 
        6.31463      0.00855638        0.000608 
        6.33033      0.00880601      0.00060422 
        6.34604      0.00895989      0.00060047 
        6.36177      0.00926737     0.000596748 
        6.37747      0.00954894     0.000593064 
