# k  (h/Mpc)    Pcb(k)  (Mpc/h)^3    Pcb_linear(k) (Mpc/h)^3   ShotnoiseSubtracted = true
      0.0200456         16220.9         16503.3 
      0.0350414         12459.1         12122.2 
      0.0492313         8573.44         8707.64 
      0.0637834          6968.8         7283.29 
      0.0800726         5629.81         5974.58 
       0.096163         4489.68         4358.09 
       0.111083         3588.73         3391.58 
       0.126058         2973.88         3004.82 
       0.142273         2647.86         2642.29 
       0.158546         2190.32         2110.53 
        0.17375         1912.37         1730.35 
       0.188953         1786.97         1554.72 
       0.204907         1549.66         1417.28 
       0.220756         1403.53         1220.73 
        0.23588         1245.82         1044.03 
         0.2514         1118.78          935.45 
       0.267535         1088.68         860.626 
       0.283568         963.081          773.15 
       0.299022         920.346         684.842 
       0.314451         946.656         618.735 
       0.330372         821.967         570.897 
       0.346141         759.571         525.319 
       0.361624         729.162         478.285 
       0.377134          692.55          437.23 
       0.392932         667.638         404.703 
       0.408854         637.028         376.023 
       0.424564         619.954          348.06 
       0.440253          567.66         322.056 
       0.455999         543.971         299.843 
       0.471626         553.421         280.663 
        0.48727         523.505         262.675 
       0.502856         489.404         245.745 
       0.518488          485.82         230.409 
       0.534347         456.551         216.591 
       0.550082         438.772         204.002 
       0.565732         435.944         192.288 
       0.581496         423.815         181.357 
       0.597222         412.004         171.423 
       0.612804         402.693         162.373 
       0.628434         386.673         153.914 
       0.644267         372.544         145.924 
       0.660051         367.516         138.533 
       0.675724          361.85         131.739 
       0.691403         353.253         125.413 
       0.707174         340.386         119.467 
       0.722871         335.174         113.931 
        0.73838         330.783         108.804 
       0.754018         318.437         103.955 
       0.769845         316.836         99.3489 
        0.78569         310.136         95.0187 
       0.801365         301.151         90.9906 
       0.817031         296.828         87.2005 
       0.832809         292.072         83.6043 
       0.848511         285.018         80.2297 
       0.864097         278.492         77.0671 
       0.879701         276.882         74.0744 
       0.895507         269.415         71.2074 
       0.911279         262.345         68.5002 
        0.92691         260.304         65.9582 
       0.942635         258.115         63.5327 
       0.958396          251.06         61.2257 
       0.974128         247.716         59.0389 
       0.989692         239.238         56.9818 
        1.00528         238.733         55.0209 
        1.02113         235.136         53.1226 
        1.03692         229.758         51.3219 
        1.05264         226.229         49.6139 
        1.06832         225.981          47.987 
        1.08405         219.567         46.4296 
        1.09979         218.275         44.9411 
        1.11537         213.577         43.5333 
        1.13105         209.975          42.178 
        1.14679         208.124         40.8757 
        1.16256         205.307         39.6265 
        1.17828         202.888         38.4341 
        1.19395         197.528         37.2954 
         1.2097         196.879         36.1974 
        1.22537         195.211         35.1494 
          1.241         190.156         34.1465 
        1.25666         187.988         33.1806 
        1.27241         184.119         32.2479 
        1.28819         182.436         31.3499 
        1.30392         179.795          30.489 
        1.31957         175.721         29.6647 
        1.33529         173.696         28.8681 
        1.35108         172.059         28.0979 
        1.36674         168.997         27.3615 
         1.3824          167.78         26.6526 
        1.39811         164.613         25.9666 
        1.41389         162.004         25.3024 
        1.42964         159.852         24.6628 
        1.44531         158.159         24.0486 
        1.46101          154.96         23.4542 
        1.47667         154.449         22.8819 
        1.49229         151.978         22.3304 
        1.50793         149.266         21.7967 
        1.52367         147.742         21.2771 
        1.53953         144.991         20.7711 
        1.55526         144.503         20.2857 
        1.57092         142.573         19.8181 
        1.58662          139.47         19.3642 
        1.60235         138.008         18.9237 
        1.61809         136.386         18.4969 
        1.63369         134.468         18.0871 
        1.64941         133.599          17.687 
        1.66519         131.358         17.2976 
        1.68085         129.151         16.9228 
        1.69652         127.987         16.5591 
        1.71228          126.95         16.2041 
        1.72806         125.273         15.8593 
        1.74368         123.382         15.5281 
        1.75933         122.437         15.2058 
        1.77505         120.022         14.8912 
        1.79081         118.661          14.585 
         1.8065         116.641         14.2889 
        1.82218         115.435         14.0012 
        1.83797         115.049         13.7196 
        1.85367         112.817         13.4474 
        1.86928         112.185         13.1842 
        1.88497         110.203         12.9268 
        1.90073         109.448         12.6753 
        1.91647         107.673         12.4307 
        1.93218         106.352         12.1932 
        1.94787         104.766         11.9623 
        1.96363         103.941         11.7365 
        1.97935         102.836         11.5171 
        1.99499         102.041         11.3045 
        2.01064         99.6667         11.0971 
         2.0264         99.1296         10.8936 
        2.04216         97.0976         10.6953 
        2.05781         96.6295         10.5033 
        2.07353         95.3391         10.3153 
        2.08928         94.0128         10.1316 
        2.10499         92.9488         9.95287 
        2.12065         92.4849         9.77902 
        2.13633         91.2022          9.6092 
        2.15211         89.7778         9.44236 
        2.16785         88.5019         9.27997 
        2.18349         87.3464         9.12245 
        2.19916         86.4758         8.96829 
        2.21489         85.4914         8.81721 
        2.23063         84.4344         8.66953 
         2.2463         83.8612         8.52592 
        2.26194         82.7054         8.38595 
        2.27765          81.732         8.24843 
        2.29341         80.7822         8.11366 
        2.30914         79.8134          7.9822 
        2.32486         78.1291         7.85375 
        2.34061         77.7979         7.72793 
        2.35635          76.858           7.605 
        2.37203         75.8045          7.4852 
        2.38768         75.0867         7.36824 
        2.40339         74.3008         7.25337 
        2.41914         73.1678         7.14071 
        2.43483         72.7031         7.03085 
         2.4505         71.6146         6.92351 
        2.46622         71.0971         6.81806 
        2.48195         70.0701         6.71481 
        2.49759         69.2455         6.61426 
        2.51328         68.4743         6.51553 
        2.52906         67.5973         6.41821 
        2.54479         66.9115         6.32324 
        2.56049         66.2123          6.2304 
        2.57618         65.2553         6.13952 
        2.59189         64.8165         6.05033 
        2.60758         63.9239         5.96306 
        2.62325         63.1669         5.87763 
        2.63898         62.5556         5.79359 
        2.65468         61.9637         5.71138 
        2.67044          61.273         5.63042 
        2.68618         60.6955         5.55123 
        2.70184         59.8042         5.47389 
        2.71755         59.0935         5.39785 
        2.73329         58.6351         5.32314 
        2.74897         58.1481          5.2501 
        2.76462         57.6522          5.1786 
        2.78034         56.8876         5.10814 
        2.79607         56.0404         5.03894 
        2.81179         55.4072          4.9711 
        2.82749         55.0067         4.90459 
        2.84321          54.532         4.83924 
        2.85893         53.8799         4.77511 
        2.87462         53.1647         4.71225 
        2.89033         52.5387         4.65048 
        2.90605         52.0221         4.58977 
        2.92176         51.5556         4.53018 
        2.93747         50.9613         4.47169 
        2.95318         50.4846         4.41422 
        2.96891         49.8687         4.35774 
        2.98456         49.4342         4.30251 
        3.00023          48.666         4.24817 
        3.01596         48.3492          4.1946 
        3.03164         47.8372         4.14211 
        3.04738         47.3691         4.09037 
         3.0631         46.8995         4.03954 
        3.07883         46.3979         3.98958 
        3.09456          45.823         3.94047 
        3.11026         45.3624         3.89228 
        3.12596          44.957          3.8449 
        3.14163         44.5395         3.79842 
        3.15734         44.0369         3.75261 
        3.17308         43.7608         3.70745 
        3.18879         43.3048         3.66316 
        3.20447           42.79         3.61966 
         3.2202         42.3253         3.57674 
         3.2359         42.0179          3.5346 
        3.25157         41.4219         3.49324 
        3.26729         41.0943         3.45242 
        3.28304         40.7264         3.41218 
        3.29877         40.1636         3.37263 
        3.31446         39.9046         3.33381 
        3.33014         39.4476         3.29563 
        3.34585         38.9456         3.25799 
        3.36158         38.6874         3.22089 
        3.37727         38.2734         3.18449 
        3.39294         37.8598         3.14869 
        3.40867         37.5693         3.11332 
        3.42439         37.1115         3.07851 
        3.44008         36.8588          3.0443 
        3.45578         36.4299         3.01059 
        3.47153         36.2238         2.97732 
        3.48724         35.8011         2.94461 
        3.50292          35.459         2.91248 
        3.51859         35.2035         2.88084 
        3.53431         34.8494         2.84958 
        3.55007         34.3084         2.81871 
        3.56577         34.2213         2.78842 
        3.58146          33.773         2.75859 
        3.59719          33.432         2.72914 
        3.61292          33.247         2.70012 
        3.62859         32.7949         2.67164 
        3.64429         32.5702         2.64352 
        3.66003         32.2642         2.61572 
        3.67578         32.0088         2.58833 
        3.69146         31.7604         2.56144 
        3.70712         31.3311         2.53498 
        3.72284         31.0848          2.5088 
        3.73853         30.9017         2.48304 
        3.75422         30.6156         2.45763 
        3.76993         30.2761         2.43256 
        3.78564         29.9876         2.40785 
        3.80137         29.7739         2.38345 
        3.81707         29.4343         2.35943 
        3.83279         29.1278         2.33573 
        3.84853          28.928         2.31232 
        3.86424         28.5278         2.28928 
        3.87992         28.3299         2.26659 
        3.89561         28.1635         2.24421 
        3.91134         27.8957         2.22208 
        3.92704         27.5577         2.20029 
        3.94273         27.2728          2.1788 
        3.95845         27.1541         2.15757 
        3.97418          26.866         2.13662 
        3.98988         26.6248         2.11597 
        4.00554         26.3194         2.09566 
        4.02125         26.1618         2.07555 
        4.03698         25.9437         2.05568 
        4.05268         25.6756         2.03612 
        4.06839         25.4415          2.0168 
         4.0841         25.3031         1.99774 
        4.09983         24.9548         1.97889 
        4.11555         24.7882          1.9603 
        4.13124         24.6946           1.942 
        4.14693         24.3636         1.92393 
        4.16266         24.1628         1.90604 
        4.17839         24.0275         1.88839 
        4.19408         23.7329           1.871 
        4.20977         23.5996         1.85383 
        4.22551         23.3895         1.83683 
        4.24123         23.1507         1.82007 
        4.25691         22.9787         1.80356 
        4.27259         22.7799         1.78725 
        4.28831         22.5759         1.77112 
        4.30404         22.3551         1.75516 
        4.31974         22.1634         1.73944 
        4.33543         22.0406         1.72393 
        4.35116         21.8194         1.70856 
        4.36688         21.6301         1.69339 
        4.38255         21.4236         1.67846 
        4.39825          21.301         1.66368 
        4.41398         21.1074         1.64905 
         4.4297         20.9285         1.63462 
        4.44541         20.7136         1.62036 
        4.46111         20.5243         1.60628 
        4.47683         20.3654         1.59236 
        4.49251         20.2746         1.57863 
        4.50819         20.0868         1.56507 
         4.5239         19.9111         1.55165 
        4.53962         19.7655         1.53838 
        4.55535         19.5877         1.52525 
        4.57106         19.4622         1.51229 
        4.58678         19.2756         1.49949 
         4.6025         19.0654         1.48683 
        4.61821         18.9603         1.47432 
        4.63391         18.8002         1.46197 
         4.6496         18.6729         1.44976 
        4.66532         18.4806         1.43768 
        4.68103         18.3568         1.42575 
        4.69673         18.2142         1.41396 
        4.71241         18.1017         1.40231 
        4.72811         17.9127         1.39078 
        4.74384         17.7528         1.37937 
        4.75955         17.6339          1.3681 
        4.77525         17.4938         1.35696 
        4.79096         17.3369         1.34594 
        4.80669         17.2093         1.33503 
         4.8224         17.0552         1.32426 
        4.83809         16.9268         1.31361 
        4.85379         16.8155         1.30308 
         4.8695         16.6958         1.29266 
        4.88521         16.5445         1.28235 
        4.90093         16.4133         1.27216 
        4.91663         16.2707         1.26209 
        4.93234          16.135         1.25212 
        4.94807         16.0472         1.24225 
        4.96377         15.9183          1.2325 
        4.97943         15.7941         1.22288 
        4.99514         15.6619         1.21334 
        5.01086         15.5881         1.20389 
        5.02654         15.4266         1.19457 
        5.04227         15.3017         1.18532 
          5.058         15.1981         1.17616 
        5.07371         15.0798         1.16713 
        5.08942         14.9891         1.15818 
        5.10513          14.865         1.14933 
        5.12084         14.7467         1.14056 
        5.13656          14.645         1.13189 
        5.15225         14.5137         1.12333 
        5.16796         14.3762         1.11484 
        5.18369           14.28         1.10643 
         5.1994         14.1713         1.09812 
        5.21509         14.0917         1.08991 
        5.23079          13.985         1.08177 
        5.24649         13.8869         1.07373 
        5.26217         13.7803         1.06577 
        5.27788         13.6506         1.05787 
        5.29359         13.5624         1.05006 
        5.30933         13.4963         1.04232 
        5.32504         13.3818         1.03467 
        5.34073         13.2805          1.0271 
        5.35646         13.1713          1.0196 
        5.37218         13.0742         1.01217 
        5.38789         12.9618         1.00482 
        5.40357         12.9016        0.997558 
        5.41929          12.791        0.990351 
        5.43502         12.7124        0.983215 
         5.4507         12.6195        0.976167 
        5.46639         12.5061        0.969187 
        5.48212         12.4241        0.962259 
        5.49786         12.3542        0.955392 
        5.51353         12.2327        0.948626 
        5.52921         12.1804        0.941918 
        5.54495         12.0861        0.935257 
        5.56066         11.9967        0.928667 
        5.57637         11.9099        0.922143 
        5.59207         11.8312        0.915687 
        5.60778         11.7406        0.909291 
        5.62346         11.6296        0.902965 
        5.63916         11.5685        0.896694 
        5.65487         11.4998        0.890479 
         5.6706         11.4076        0.884316 
        5.68633         11.3182         0.87821 
        5.70203         11.2424        0.872174 
        5.71773         11.1431        0.866197 
        5.73344         11.0838        0.860272 
        5.74916         11.0144        0.854398 
        5.76486         10.9492        0.848587 
        5.78054         10.8589         0.84284 
        5.79626         10.8114        0.837129 
          5.812         10.7048        0.831467 
         5.8277         10.6318        0.825873 
        5.84339         10.5326        0.820331 
        5.85911         10.4725         0.81483 
        5.87484         10.4047        0.809381 
        5.89053          10.331        0.803992 
        5.90623         10.2735         0.79865 
        5.92195         10.1969        0.793348 
        5.93767         10.1467        0.788097 
        5.95336         10.0439        0.782903 
        5.96905         10.0043        0.777758 
        5.98476          9.9237        0.772651 
        6.00048         9.86114         0.76759 
        6.01617         9.77732        0.762581 
        6.03185         9.72993        0.757622 
        6.04756         9.65568        0.752697 
        6.06331         9.61062        0.747804 
        6.07903         9.52386        0.742966 
        6.09473         9.45607        0.738175 
        6.11044         9.40033        0.733423 
        6.12616         9.34543        0.728713 
        6.14186         9.28253         0.72405 
        6.15755         9.22925        0.719428 
        6.17326         9.15075        0.714843 
        6.18898         9.09283        0.710296 
        6.20467          9.0339        0.705797 
        6.22036         8.96403        0.701337 
         6.2361          8.9138        0.696904 
         6.2518         8.87479        0.692517 
        6.26748         8.79951        0.688178 
        6.28319         8.76229        0.683864 
        6.29893         8.70008        0.679583 
        6.31463         8.62826        0.675347 
        6.33033         8.56645        0.671148 
        6.34604         8.52682        0.666982 
        6.36177         8.48577        0.662848 
        6.37747         8.39558        0.658757 
