# k  (h/Mpc)    Pcb(k)  (Mpc/h)^3    Pcb_linear(k) (Mpc/h)^3   ShotnoiseSubtracted = true
      0.0200456         679.456         689.637 
      0.0350414         504.432         506.563 
      0.0492313         365.432         363.874 
      0.0637834         306.841         304.353 
      0.0800726          250.43         249.665 
       0.096163         181.666         182.115 
       0.111083           141.2         141.727 
       0.126058          126.11         125.565 
       0.142273         110.843         110.416 
       0.158546         89.0036         88.1946 
        0.17375         72.2966         72.3076 
       0.188953         65.5303         64.9684 
       0.204907         60.8229         59.2252 
       0.220756         51.7478         51.0119 
        0.23588         44.4241         43.6277 
         0.2514         39.5098         39.0905 
       0.267535         36.4357         35.9638 
       0.283568         32.8516         32.3083 
       0.299022         29.3709         28.6181 
       0.314451         26.1315         25.8557 
       0.330372         24.2988         23.8566 
       0.346141          22.335          21.952 
       0.361624          20.493         19.9865 
       0.377134         18.9514         18.2709 
       0.392932         16.9872         16.9117 
       0.408854         16.2485         15.7132 
       0.424564          15.012         14.5447 
       0.440253         13.8766         13.4581 
       0.455999         13.0427         12.5298 
       0.471626         12.2749         11.7283 
        0.48727         11.4541         10.9767 
       0.502856         10.6734         10.2692 
       0.518488         10.1809         9.62833 
       0.534347         9.68721         9.05087 
       0.550082         8.89856         8.52483 
       0.565732         8.23969         8.03531 
       0.581496         8.01987         7.57854 
       0.597222         7.65454         7.16339 
       0.612804         7.15833         6.78522 
       0.628434         6.89109         6.43174 
       0.644267         6.54164         6.09786 
       0.660051         6.17725         5.78901 
       0.675724         5.88443         5.50511 
       0.691403         5.66722         5.24076 
       0.707174         5.36827          4.9923 
       0.722871         5.12899         4.76093 
        0.73838         4.93587         4.54671 
       0.754018           4.769         4.34406 
       0.769845         4.51899         4.15158 
        0.78569         4.35637         3.97063 
       0.801365         4.16292         3.80231 
       0.817031         4.02007         3.64393 
       0.832809         3.86463         3.49365 
       0.848511         3.66594         3.35263 
       0.864097         3.52117         3.22047 
       0.879701          3.3996         3.09541 
       0.895507         3.27046         2.97561 
       0.911279         3.20279         2.86248 
        0.92691         3.07678         2.75625 
       0.942635         2.94895          2.6549 
       0.958396         2.83861         2.55849 
       0.974128         2.75326         2.46711 
       0.989692         2.68888         2.38115 
        1.00528         2.57441         2.29921 
        1.02113         2.47584         2.21988 
        1.03692          2.4312         2.14464 
        1.05264         2.34168         2.07326 
        1.06832          2.2813         2.00528 
        1.08405         2.17207          1.9402 
        1.09979         2.12398         1.87799 
        1.11537         2.06993         1.81916 
        1.13105          2.0169         1.76253 
        1.14679         1.96227         1.70811 
        1.16256         1.88885         1.65591 
        1.17828         1.84391         1.60608 
        1.19395         1.79162          1.5585 
         1.2097         1.71528         1.51261 
        1.22537         1.68447         1.46882 
          1.241         1.64485         1.42691 
        1.25666         1.62598         1.38655 
        1.27241         1.55043         1.34757 
        1.28819          1.5135         1.31005 
        1.30392         1.48737         1.27407 
        1.31957         1.44929         1.23962 
        1.33529         1.40546         1.20634 
        1.35108         1.37098         1.17415 
        1.36674         1.32469         1.14338 
         1.3824         1.30181         1.11375 
        1.39811         1.26812         1.08509 
        1.41389         1.24413         1.05733 
        1.42964         1.21585         1.03061 
        1.44531         1.18266         1.00494 
        1.46101         1.16257        0.980103 
        1.47667         1.11718        0.956187 
        1.49229         1.10834        0.933142 
        1.50793         1.07747        0.910837 
        1.52367         1.05874        0.889124 
        1.53953         1.02542         0.86798 
        1.55526         1.00621        0.847699 
        1.57092        0.983909        0.828156 
        1.58662        0.967145        0.809188 
        1.60235        0.944751        0.790783 
        1.61809         0.91934        0.772946 
        1.63369         0.91378        0.755823 
        1.64941        0.885474        0.739101 
        1.66519        0.868872        0.722829 
        1.68085        0.843636        0.707167 
        1.69652         0.82934        0.691968 
        1.71228        0.818107        0.677134 
        1.72806        0.794212        0.662727 
        1.74368        0.786308        0.648888 
        1.75933        0.765999        0.635419 
        1.77505        0.752782        0.622273 
        1.79081        0.738586        0.609479 
         1.8065        0.718284        0.597102 
        1.82218        0.710811        0.585083 
        1.83797        0.696308        0.573315 
        1.85367        0.690129        0.561939 
        1.86928         0.67408        0.550942 
        1.88497        0.658792        0.540182 
        1.90073        0.644827        0.529673 
        1.91647         0.63904        0.519454 
        1.93218        0.623282        0.509529 
        1.94787        0.612728         0.49988 
        1.96363        0.600995        0.490445 
        1.97935         0.58954        0.481275 
        1.99499        0.579979        0.472393 
        2.01064        0.569712        0.463724 
         2.0264         0.55907         0.45522 
        2.04216        0.552738        0.446935 
        2.05781        0.542152        0.438911 
        2.07353         0.53087        0.431056 
        2.08928         0.52009        0.423378 
        2.10499        0.514621         0.41591 
        2.12065        0.509446        0.408645 
        2.13633        0.499135        0.401549 
        2.15211        0.489705        0.394577 
        2.16785        0.480842        0.387791 
        2.18349        0.472694        0.381208 
        2.19916        0.466909        0.374766 
        2.21489        0.457933        0.368453 
        2.23063        0.451872        0.362281 
         2.2463        0.446106         0.35628 
        2.26194        0.433567        0.350431 
        2.27765        0.429474        0.344685 
        2.29341        0.424513        0.339053 
        2.30914        0.419794        0.333559 
        2.32486        0.410987        0.328192 
        2.34061        0.404418        0.322934 
        2.35635        0.396837        0.317797 
        2.37203        0.392346        0.312791 
        2.38768        0.386544        0.307903 
        2.40339        0.381662        0.303103 
        2.41914        0.376026        0.298395 
        2.43483        0.370044        0.293805 
         2.4505         0.36339        0.289319 
        2.46622        0.358486        0.284912 
        2.48195        0.355279        0.280598 
        2.49759        0.349909        0.276396 
        2.51328        0.343471        0.272271 
        2.52906        0.340149        0.268203 
        2.54479        0.334028        0.264235 
        2.56049        0.328293        0.260356 
        2.57618        0.324685        0.256558 
        2.59189        0.321489        0.252831 
        2.60758        0.317392        0.249184 
        2.62325        0.311637        0.245614 
        2.63898         0.30835        0.242102 
        2.65468        0.303094        0.238666 
        2.67044         0.29946        0.235284 
        2.68618        0.295162        0.231974 
        2.70184        0.291805        0.228743 
        2.71755        0.286695        0.225565 
        2.73329         0.28356        0.222443 
        2.74897        0.280479        0.219391 
        2.76462        0.276861        0.216403 
        2.78034        0.272796        0.213459 
        2.79607        0.269549        0.210567 
        2.81179        0.266373        0.207732 
        2.82749        0.262662        0.204953 
        2.84321        0.259968        0.202222 
        2.85893        0.256607        0.199542 
        2.87462        0.253021        0.196915 
        2.89033        0.249766        0.194334 
        2.90605        0.247126        0.191797 
        2.92176        0.243835        0.189307 
        2.93747        0.240458        0.186862 
        2.95318        0.238287        0.184461 
        2.96891        0.235136        0.182101 
        2.98456        0.232209        0.179793 
        3.00023        0.230204        0.177522 
        3.01596        0.226878        0.175283 
        3.03164        0.224744         0.17309 
        3.04738        0.220904        0.170928 
         3.0631        0.219563        0.168804 
        3.07883         0.21588        0.166716 
        3.09456        0.213771        0.164664 
        3.11026        0.212121         0.16265 
        3.12596        0.208827         0.16067 
        3.14163        0.207056        0.158728 
        3.15734        0.205238        0.156814 
        3.17308        0.203139        0.154927 
        3.18879          0.2008        0.153076 
        3.20447        0.197263        0.151258 
         3.2202         0.19656        0.149465 
         3.2359        0.193845        0.147703 
        3.25157        0.192192        0.145975 
        3.26729         0.18957        0.144269 
        3.28304        0.188428        0.142588 
        3.29877        0.185986        0.140935 
        3.31446        0.184173        0.139313 
        3.33014        0.182561        0.137717 
        3.34585        0.181566        0.136145 
        3.36158        0.179115        0.134595 
        3.37727        0.177852        0.133073 
        3.39294        0.175472        0.131577 
        3.40867         0.17352        0.130099 
        3.42439        0.172334        0.128644 
        3.44008        0.170031        0.127215 
        3.45578        0.169265        0.125806 
        3.47153        0.167606        0.124416 
        3.48724        0.166078        0.123049 
        3.50292        0.164472        0.121707 
        3.51859         0.16231        0.120384 
        3.53431        0.160839        0.119078 
        3.55007        0.160122        0.117788 
        3.56577        0.157978        0.116522 
        3.58146         0.15672        0.115276 
        3.59719        0.155703        0.114045 
        3.61292        0.154621        0.112832 
        3.62859         0.15292        0.111642 
        3.64429        0.151433        0.110467 
        3.66003        0.150266        0.109305 
        3.67578        0.148995        0.108161 
        3.69146          0.1476        0.107037 
        3.70712        0.146682        0.105932 
        3.72284        0.145415        0.104838 
        3.73853        0.144433        0.103761 
        3.75422        0.143336        0.102699 
        3.76993        0.141873        0.101652 
        3.78564        0.140463        0.100619 
        3.80137        0.139407       0.0995993 
        3.81707        0.138222       0.0985958 
        3.83279        0.137461       0.0976055 
        3.84853        0.135913       0.0966272 
        3.86424         0.13491       0.0956644 
        3.87992        0.133733       0.0947162 
        3.89561        0.132743       0.0937808 
        3.91134        0.131957       0.0928563 
        3.92704        0.130494       0.0919454 
        3.94273        0.129273       0.0910476 
        3.95845        0.128268       0.0901603 
        3.97418        0.127808       0.0892847 
        3.98988        0.125864        0.088422 
        4.00554         0.12551       0.0875731 
        4.02125        0.124112        0.086733 
        4.03698        0.122396       0.0859027 
        4.05268        0.121267       0.0850852 
        4.06839          0.1196       0.0842778 
         4.0841        0.118183       0.0834812 
        4.09983        0.116924       0.0826938 
        4.11555        0.115406        0.081917 
        4.13124        0.113731       0.0811523 
        4.14693        0.112886       0.0803968 
        4.16266        0.111365       0.0796493 
        4.17839        0.110381       0.0789118 
        4.19408        0.109165       0.0781853 
        4.20977        0.108218       0.0774677 
        4.22551        0.107073       0.0767575 
        4.24123        0.105931       0.0760569 
        4.25691        0.104836       0.0753671 
        4.27259          0.1039       0.0746856 
        4.28831        0.102833       0.0740112 
        4.30404        0.102142       0.0733446 
        4.31974        0.101577       0.0726877 
        4.33543        0.100521       0.0720393 
        4.35116       0.0995164       0.0713973 
        4.36688       0.0987157       0.0707633 
        4.38255       0.0977061       0.0701395 
        4.39825       0.0975092       0.0695219 
        4.41398       0.0967786       0.0689106 
         4.4297       0.0960861       0.0683073 
        4.44541       0.0956255       0.0677114 
        4.46111       0.0949646        0.067123 
        4.47683       0.0943424       0.0665413 
        4.49251       0.0938415       0.0659677 
        4.50819       0.0933283       0.0654011 
         4.5239       0.0928532       0.0648403 
        4.53962       0.0925293       0.0642855 
        4.55535       0.0921545       0.0637369 
        4.57106       0.0916806       0.0631956 
        4.58678       0.0911307       0.0626604 
         4.6025       0.0912095       0.0621314 
        4.61821       0.0909774       0.0616086 
        4.63391       0.0906854       0.0610925 
         4.6496       0.0904902       0.0605826 
        4.66532       0.0903457       0.0600778 
        4.68103       0.0901402        0.059579 
        4.69673       0.0898357       0.0590863 
        4.71241       0.0898965       0.0585997 
        4.72811       0.0897388       0.0581179 
        4.74384       0.0897824       0.0576408 
        4.75955       0.0901423       0.0571699 
        4.77525        0.090095       0.0567046 
        4.79096       0.0898516       0.0562439 
        4.80669       0.0897952       0.0557881 
         4.8224       0.0902867       0.0553379 
        4.83809        0.090099       0.0548932 
        4.85379       0.0902427       0.0544531 
         4.8695       0.0904833       0.0540175 
        4.88521       0.0909938       0.0535869 
        4.90093       0.0908574        0.053161 
        4.91663       0.0911853       0.0527401 
        4.93234         0.09133       0.0523234 
        4.94807       0.0920391       0.0519108 
        4.96377       0.0923362       0.0515036 
        4.97943       0.0931032       0.0511016 
        4.99514       0.0929128       0.0507029 
        5.01086       0.0937461       0.0503081 
        5.02654       0.0940813       0.0499186 
        5.04227       0.0947152       0.0495321 
          5.058       0.0951853       0.0491495 
        5.07371       0.0959484       0.0487717 
        5.08942       0.0960646       0.0483979 
        5.10513       0.0970913        0.048028 
        5.12084        0.097679       0.0476618 
        5.13656       0.0980857       0.0472995 
        5.15225       0.0993503       0.0469416 
        5.16796         0.10006       0.0465868 
        5.18369        0.100638       0.0462354 
         5.1994        0.102025       0.0458883 
        5.21509        0.102373       0.0455451 
        5.23079        0.103458       0.0452051 
        5.24649        0.104639       0.0448688 
        5.26217        0.105691       0.0445361 
        5.27788        0.106628       0.0442064 
        5.29359        0.107447         0.04388 
        5.30933        0.108376       0.0435564 
        5.32504        0.109713       0.0432366 
        5.34073        0.110775       0.0429205 
        5.35646        0.111469       0.0426068 
        5.37218        0.113735       0.0422963 
        5.38789        0.114382       0.0419894 
        5.40357         0.11552       0.0416859 
        5.41929        0.117144       0.0413847 
        5.43502        0.118734       0.0410865 
         5.4507         0.11992        0.040792 
        5.46639         0.12141       0.0405003 
        5.48212         0.12304       0.0402108 
        5.49786         0.12449       0.0399238 
        5.51353        0.126389       0.0396411 
        5.52921        0.127198       0.0393608 
        5.54495        0.129831       0.0390824 
        5.56066        0.130813       0.0388071 
        5.57637        0.132973       0.0385344 
        5.59207        0.134991       0.0382647 
        5.60778        0.137009       0.0379974 
        5.62346        0.138949        0.037733 
        5.63916        0.140773        0.037471 
        5.65487        0.142393       0.0372113 
         5.6706        0.144937       0.0369537 
        5.68633        0.146207       0.0366986 
        5.70203        0.148008       0.0364464 
        5.71773        0.151016       0.0361966 
        5.73344        0.152655        0.035949 
        5.74916        0.155692       0.0357035 
        5.76486          0.1578       0.0354607 
        5.78054        0.159688       0.0352205 
        5.79626        0.161929       0.0349819 
          5.812        0.164812       0.0347453 
         5.8277        0.167776       0.0345115 
        5.84339        0.169483       0.0342799 
        5.85911        0.172722       0.0340501 
        5.87484        0.174963       0.0338223 
        5.89053        0.178328       0.0335972 
        5.90623        0.180701       0.0333739 
        5.92195        0.183145       0.0331524 
        5.93767         0.18574       0.0329329 
        5.95336        0.189859       0.0327159 
        5.96905        0.191798       0.0325009 
        5.98476        0.193974       0.0322875 
        6.00048        0.197831        0.032076 
        6.01617        0.199974       0.0318667 
        6.03185        0.204078       0.0316595 
        6.04756          0.2073       0.0314536 
        6.06331        0.209757       0.0312492 
        6.07903        0.213017        0.031047 
        6.09473        0.216542       0.0308468 
        6.11044        0.220147       0.0306482 
        6.12616        0.222115       0.0304514 
        6.14186        0.226308       0.0302565 
        6.15755        0.229184       0.0300634 
        6.17326         0.23389       0.0298718 
        6.18898        0.236083       0.0296818 
        6.20467        0.241189       0.0294938 
        6.22036        0.243986       0.0293074 
         6.2361        0.246136       0.0291222 
         6.2518        0.251163       0.0289389 
        6.26748        0.253862       0.0287575 
        6.28319        0.258004       0.0285772 
        6.29893        0.262273       0.0283984 
        6.31463        0.266369       0.0282213 
        6.33033        0.269974       0.0280459 
        6.34604          0.2724       0.0278718 
        6.36177        0.276946        0.027699 
        6.37747        0.282249       0.0275281 
