# k  (h/Mpc)    Pcb(k)  (Mpc/h)^3    Pcb_linear(k) (Mpc/h)^3   ShotnoiseSubtracted = true
      0.0200456           20990         21510.7 
      0.0350414         15063.5         15800.4 
      0.0492313           11112         11349.7 
      0.0637834         9675.82         9493.19 
      0.0800726         7832.32          7787.4 
       0.096163         5460.23         5680.42 
       0.111083         4311.99         4420.66 
       0.126058         3970.05         3916.54 
       0.142273         3509.48         3444.02 
       0.158546         3089.03         2750.91 
        0.17375         2445.65         2255.37 
       0.188953         2387.42         2026.45 
       0.204907         2265.29         1847.32 
       0.220756         1973.12         1591.13 
        0.23588         1758.74         1360.81 
         0.2514         1529.31         1219.29 
       0.267535         1534.99         1121.76 
       0.283568         1396.57         1007.74 
       0.299022         1321.85         892.638 
       0.314451         1261.37         806.473 
       0.330372         1158.49          744.12 
       0.346141         1109.75         684.712 
       0.361624         1067.45         623.407 
       0.377134         995.036         569.895 
       0.392932          957.05         527.499 
       0.408854         938.889         490.116 
       0.424564         870.846         453.669 
       0.440253         855.388         419.775 
       0.455999         825.238         390.823 
       0.471626          794.78         365.822 
        0.48727         763.627         342.377 
       0.502856         743.249         320.309 
       0.518488         736.014         300.321 
       0.534347         690.661         282.309 
       0.550082         672.632         265.901 
       0.565732         670.792         250.632 
       0.581496         634.546         236.385 
       0.597222         622.627         223.436 
       0.612804          610.96          211.64 
       0.628434         594.058         200.615 
       0.644267         578.918         190.201 
       0.660051         562.076         180.567 
       0.675724         557.131         171.712 
       0.691403         538.953         163.467 
       0.707174          521.71         155.716 
       0.722871         515.694           148.5 
        0.73838         506.728         141.818 
       0.754018         495.258         135.497 
       0.769845         486.694         129.494 
        0.78569         478.532         123.849 
       0.801365         466.781         118.599 
       0.817031         453.471         113.659 
       0.832809         450.418         108.972 
       0.848511         440.693         104.573 
       0.864097         427.963         100.451 
       0.879701         422.856         96.5501 
       0.895507         420.426         92.8133 
       0.911279         407.843         89.2847 
        0.92691         402.294         85.9713 
       0.942635         393.211           82.81 
       0.958396         383.591         79.8029 
       0.974128         378.041         76.9526 
       0.989692         375.659         74.2713 
        1.00528         366.199         71.7155 
        1.02113         364.503         69.2412 
        1.03692         353.637         66.8941 
        1.05264         351.741         64.6678 
        1.06832         342.748         62.5474 
        1.08405         338.072         60.5174 
        1.09979         332.265         58.5772 
        1.11537         326.058         56.7422 
        1.13105         321.112         54.9757 
        1.14679         314.346         53.2783 
        1.16256          307.82         51.6501 
        1.17828         307.118         50.0959 
        1.19395         299.519         48.6116 
         1.2097          296.36         47.1805 
        1.22537         289.807         45.8145 
          1.241         287.852         44.5073 
        1.25666          282.26         43.2483 
        1.27241         278.953         42.0327 
        1.28819         274.774         40.8621 
        1.30392         268.005         39.7401 
        1.31957         268.362         38.6656 
        1.33529          262.81         37.6273 
        1.35108         257.271         36.6234 
        1.36674         254.309         35.6636 
         1.3824         252.668         34.7395 
        1.39811         248.608         33.8454 
        1.41389         245.403         32.9797 
        1.42964          242.93          32.146 
        1.44531         239.136         31.3454 
        1.46101         235.342         30.5707 
        1.47667         232.249         29.8248 
        1.49229         229.925          29.106 
        1.50793         224.636         28.4102 
        1.52367         222.904          27.733 
        1.53953         219.816         27.0735 
        1.55526         214.934         26.4409 
        1.57092         213.826         25.8313 
        1.58662          211.27         25.2397 
        1.60235         207.293         24.6656 
        1.61809         205.615         24.1092 
        1.63369          202.18         23.5751 
        1.64941         198.463         23.0536 
        1.66519         197.388          22.546 
        1.68085         194.528         22.0575 
        1.69652         191.501         21.5834 
        1.71228         187.712         21.1207 
        1.72806         186.093         20.6714 
        1.74368         183.615         20.2397 
        1.75933         180.371         19.8196 
        1.77505         179.355         19.4095 
        1.79081         177.539         19.0105 
         1.8065         174.677         18.6244 
        1.82218         172.404         18.2495 
        1.83797         171.074         17.8825 
        1.85367         168.218         17.5276 
        1.86928         165.373         17.1846 
        1.88497         163.493          16.849 
        1.90073         162.201         16.5212 
        1.91647         160.283         16.2025 
        1.93218         158.432         15.8929 
        1.94787         155.596         15.5919 
        1.96363         153.215         15.2976 
        1.97935         152.491         15.0116 
        1.99499         149.669         14.7346 
        2.01064         148.324         14.4642 
         2.0264         146.448         14.1989 
        2.04216         144.597         13.9405 
        2.05781         143.245         13.6902 
        2.07353         141.635         13.4452 
        2.08928         139.025         13.2057 
        2.10499         137.625         12.9728 
        2.12065         135.327         12.7462 
        2.13633           134.9         12.5248 
        2.15211         131.914         12.3074 
        2.16785         130.512         12.0957 
        2.18349         129.468         11.8904 
        2.19916         127.869         11.6895 
        2.21489         126.492         11.4925 
        2.23063         124.347         11.3001 
         2.2463         122.825         11.1129 
        2.26194         121.273         10.9304 
        2.27765          120.31         10.7512 
        2.29341         118.769         10.5755 
        2.30914         117.763         10.4042 
        2.32486         116.048         10.2367 
        2.34061         114.799         10.0728 
        2.35635         113.403         9.91253 
        2.37203         111.963         9.75637 
        2.38768         110.653         9.60392 
        2.40339         109.467         9.45421 
        2.41914         108.184         9.30736 
        2.43483         107.066         9.16417 
         2.4505         105.807         9.02425 
        2.46622         104.622          8.8868 
        2.48195         103.234         8.75223 
        2.49759         101.839         8.62118 
        2.51328         101.456         8.49249 
        2.52906         99.7192         8.36563 
        2.54479         98.8996         8.24186 
        2.56049         97.6178         8.12084 
        2.57618         96.4875         8.00238 
        2.59189         95.4944         7.88613 
        2.60758         94.5726         7.77238 
        2.62325         93.3769         7.66103 
        2.63898         91.9898         7.55149 
        2.65468         91.1907         7.44433 
        2.67044         90.2049         7.33881 
        2.68618         89.1443          7.2356 
        2.70184         88.8179         7.13479 
        2.71755         87.2865         7.03567 
        2.73329          86.487         6.93829 
        2.74897         85.5824         6.84309 
        2.76462         84.3421          6.7499 
        2.78034         83.8715         6.65807 
        2.79607         82.3376         6.56786 
        2.81179         81.5731         6.47944 
        2.82749         80.8035         6.39275 
        2.84321         80.1645         6.30757 
        2.85893         79.2312         6.22398 
        2.87462         78.1816         6.14205 
        2.89033         77.1852         6.06154 
        2.90605         76.4389          5.9824 
        2.92176         75.6804         5.90473 
        2.93747         75.1133         5.82849 
        2.95318         73.9989         5.75359 
        2.96891         73.5072         5.67998 
        2.98456         72.7504         5.60799 
        3.00023         71.8349         5.53715 
        3.01596         71.1907         5.46733 
        3.03164         70.2609         5.39891 
        3.04738         69.5932         5.33148 
         3.0631         68.8823         5.26522 
        3.07883         68.2617          5.2001 
        3.09456         67.5989          5.1361 
        3.11026         66.7938         5.07328 
        3.12596         66.0972         5.01152 
        3.14163         65.4895         4.95094 
        3.15734         64.7277         4.89123 
        3.17308         64.0212         4.83237 
        3.18879         63.6415         4.77464 
        3.20447         62.5565         4.71795 
         3.2202         62.3345           4.662 
         3.2359         61.5463         4.60707 
        3.25157         60.9033         4.55316 
        3.26729         60.3701         4.49996 
        3.28304         59.9526         4.44751 
        3.29877         59.2858         4.39596 
        3.31446         58.3614         4.34535 
        3.33014         58.0127         4.29559 
        3.34585         57.3802         4.24654 
        3.36158          56.928         4.19818 
        3.37727          56.381         4.15074 
        3.39294         55.8484         4.10407 
        3.40867         55.3516         4.05796 
        3.42439         54.7634         4.01259 
        3.44008            54.2         3.96801 
        3.45578         53.5415         3.92407 
        3.47153         53.1151          3.8807 
        3.48724         52.4933         3.83808 
        3.50292         52.2008         3.79619 
        3.51859         51.6504         3.75496 
        3.53431         51.2693         3.71421 
        3.55007         50.5314         3.67397 
        3.56577         50.3226         3.63449 
        3.58146         49.6415         3.59561 
        3.59719         49.2121         3.55721 
        3.61292          48.665          3.5194 
        3.62859         48.2988         3.48227 
        3.64429         47.8743         3.44562 
        3.66003         47.4282         3.40938 
        3.67578         46.8682         3.37368 
        3.69146         46.5405         3.33863 
        3.70712         46.0034         3.30415 
        3.72284         45.5165         3.27002 
        3.73853         45.1744         3.23645 
        3.75422         44.5829         3.20333 
        3.76993         44.3505         3.17065 
        3.78564         43.9215         3.13844 
        3.80137         43.5357         3.10664 
        3.81707         43.1972         3.07534 
        3.83279         42.8252         3.04445 
        3.84853         42.3804         3.01393 
        3.86424         41.9737          2.9839 
        3.87992         41.7096         2.95433 
        3.89561         41.2972         2.92515 
        3.91134         40.8167         2.89631 
        3.92704         40.6236          2.8679 
        3.94273         40.1408          2.8399 
        3.95845         39.9363         2.81222 
        3.97418         39.5672         2.78491 
        3.98988         39.1561           2.758 
        4.00554         38.8354         2.73152 
        4.02125         38.5125         2.70532 
        4.03698         38.0774         2.67942 
        4.05268         37.8149         2.65392 
        4.06839         37.4501         2.62874 
         4.0841         37.0878         2.60389 
        4.09983         36.7899         2.57933 
        4.11555         36.4547          2.5551 
        4.13124         36.2416         2.53125 
        4.14693         35.8099         2.50769 
        4.16266         35.5387         2.48437 
        4.17839         35.1989         2.46136 
        4.19408          34.899         2.43871 
        4.20977         34.5719         2.41632 
        4.22551         34.2833         2.39417 
        4.24123          34.088         2.37232 
        4.25691         33.8228          2.3508 
        4.27259         33.4497         2.32954 
        4.28831         33.1117         2.30851 
        4.30404         32.9468         2.28772 
        4.31974         32.5724         2.26723 
        4.33543         32.3493           2.247 
        4.35116         32.1048         2.22698 
        4.36688          31.819          2.2072 
        4.38255          31.529         2.18775 
        4.39825         31.2875         2.16848 
        4.41398          31.052         2.14941 
         4.4297         30.7333          2.1306 
        4.44541         30.5037         2.11201 
        4.46111         30.2449         2.09366 
        4.47683         30.0868         2.07551 
        4.49251         29.7582         2.05762 
        4.50819         29.5811         2.03995 
         4.5239         29.2673         2.02246 
        4.53962         29.1064         2.00515 
        4.55535         28.8667         1.98804 
        4.57106         28.5296         1.97116 
        4.58678         28.3799         1.95446 
         4.6025         28.1147         1.93796 
        4.61821          27.924         1.92166 
        4.63391         27.6641         1.90556 
         4.6496         27.4345         1.88965 
        4.66532         27.2338         1.87391 
        4.68103         26.9976         1.85835 
        4.69673         26.7782         1.84298 
        4.71241          26.608          1.8278 
        4.72811         26.3585         1.81277 
        4.74384         26.1496          1.7979 
        4.75955         26.0134         1.78321 
        4.77525         25.7148         1.76869 
        4.79096         25.5752         1.75432 
        4.80669         25.3615         1.74011 
         4.8224         25.2201         1.72606 
        4.83809         24.9358         1.71219 
        4.85379         24.6826         1.69847 
         4.8695         24.5888         1.68488 
        4.88521         24.3687         1.67145 
        4.90093          24.139         1.65816 
        4.91663         23.9697         1.64504 
        4.93234         23.8325         1.63204 
        4.94807         23.5509         1.61917 
        4.96377         23.4647         1.60647 
        4.97943         23.2488         1.59393 
        4.99514         23.0553         1.58149 
        5.01086         22.9372         1.56918 
        5.02654         22.6884         1.55703 
        5.04227         22.5982         1.54497 
          5.058         22.3606         1.53304 
        5.07371         22.2091         1.52126 
        5.08942         22.0194          1.5096 
        5.10513          21.896         1.49806 
        5.12084         21.7012         1.48664 
        5.13656         21.5113         1.47533 
        5.15225         21.3634         1.46417 
        5.16796         21.2364         1.45311 
        5.18369         21.0584         1.44215 
         5.1994         20.9213         1.43132 
        5.21509         20.7206         1.42061 
        5.23079          20.612         1.41001 
        5.24649         20.4191         1.39952 
        5.26217         20.3361         1.38914 
        5.27788         20.1397         1.37886 
        5.29359         19.9706         1.36868 
        5.30933         19.8063         1.35858 
        5.32504         19.6776         1.34861 
        5.34073         19.5669         1.33875 
        5.35646         19.4183         1.32896 
        5.37218         19.2563         1.31928 
        5.38789         19.1243         1.30971 
        5.40357         18.9626         1.30024 
        5.41929         18.8694         1.29085 
        5.43502         18.6841         1.28154 
         5.4507         18.6003         1.27236 
        5.46639         18.4456         1.26326 
        5.48212          18.305         1.25423 
        5.49786          18.117         1.24528 
        5.51353         18.0388         1.23646 
        5.52921         17.9262         1.22772 
        5.54495         17.7965         1.21903 
        5.56066          17.644         1.21045 
        5.57637         17.5075         1.20194 
        5.59207         17.3883         1.19353 
        5.60778         17.2915         1.18519 
        5.62346         17.1854         1.17694 
        5.63916         17.0559         1.16877 
        5.65487         16.9114         1.16067 
         5.6706         16.7849         1.15264 
        5.68633          16.689         1.14468 
        5.70203         16.5697         1.13681 
        5.71773         16.4351         1.12902 
        5.73344         16.3344          1.1213 
        5.74916         16.2261         1.11364 
        5.76486         16.1333         1.10607 
        5.78054         16.0042         1.09858 
        5.79626         15.8918         1.09113 
          5.812         15.7635         1.08375 
         5.8277         15.6638         1.07646 
        5.84339         15.5332         1.06924 
        5.85911         15.4206         1.06207 
        5.87484         15.3315         1.05496 
        5.89053         15.2662         1.04794 
        5.90623         15.1407         1.04098 
        5.92195          15.004         1.03407 
        5.93767         14.8974         1.02722 
        5.95336          14.799         1.02045 
        5.96905         14.7403         1.01375 
        5.98476         14.5995         1.00709 
        6.00048         14.5001         1.00049 
        6.01617         14.4192        0.993964 
        6.03185            14.3        0.987502 
        6.04756         14.2184        0.981081 
        6.06331         14.1136        0.974705 
        6.07903         14.0223        0.968398 
        6.09473         13.9099        0.962154 
        6.11044         13.8249         0.95596 
        6.12616         13.7497        0.949821 
        6.14186         13.6517        0.943743 
        6.15755         13.5485        0.937718 
        6.17326         13.4511        0.931742 
        6.18898          13.379        0.925815 
        6.20467         13.3068        0.919951 
        6.22036          13.172        0.914138 
         6.2361         13.1264         0.90836 
         6.2518         13.0327        0.902642 
        6.26748          12.941        0.896986 
        6.28319         12.8553        0.891363 
        6.29893         12.7548        0.885784 
        6.31463         12.6634        0.880262 
        6.33033         12.6054        0.874789 
        6.34604         12.5329        0.869359 
        6.36177         12.4283        0.863971 
        6.37747         12.3515        0.858638 
