# k  (h/Mpc)    Pcb(k)  (Mpc/h)^3    Pcb_linear(k) (Mpc/h)^3   ShotnoiseSubtracted = true
      0.0200456         1119.75         1135.31 
      0.0350414         843.464          833.93 
      0.0492313         601.241         599.028 
      0.0637834         496.679         501.042 
      0.0800726         404.888         411.012 
       0.096163         304.109         299.807 
       0.111083         238.726         233.318 
       0.126058         205.884         206.711 
       0.142273          179.91         181.772 
       0.158546         146.006          145.19 
        0.17375         121.668         119.036 
       0.188953         108.555         106.954 
       0.204907         95.9625         97.4995 
       0.220756         84.7984         83.9783 
        0.23588         72.9373         71.8221 
         0.2514         65.4315         64.3527 
       0.267535         60.6605         59.2054 
       0.283568         54.2168         53.1876 
       0.299022         48.6919         47.1126 
       0.314451          45.059         42.5649 
       0.330372         40.8177          39.274 
       0.346141         37.5628         36.1384 
       0.361624          34.291         32.9028 
       0.377134         31.2789         30.0785 
       0.392932         30.0046         27.8409 
       0.408854          27.298         25.8679 
       0.424564         25.9985         23.9442 
       0.440253          23.727         22.1553 
       0.455999          21.732         20.6272 
       0.471626         20.4737         19.3077 
        0.48727         19.7561         18.0703 
       0.502856         18.5078         16.9056 
       0.518488         17.0978         15.8506 
       0.534347         16.0289            14.9 
       0.550082         15.3971          14.034 
       0.565732         14.7466         13.2281 
       0.581496         13.8796         12.4762 
       0.597222         13.0784         11.7927 
       0.612804         12.3621         11.1702 
       0.628434         11.9802         10.5882 
       0.644267         11.3804         10.0386 
       0.660051         10.7871         9.53016 
       0.675724         10.2113         9.06279 
       0.691403         9.88288         8.62761 
       0.707174         9.41782         8.21857 
       0.722871         9.18298         7.83768 
        0.73838         8.59586         7.48502 
       0.754018         8.21608         7.15141 
       0.769845         7.84617         6.83455 
        0.78569         7.64762         6.53665 
       0.801365         7.31844         6.25955 
       0.817031         7.07855         5.99882 
       0.832809         6.73319         5.75142 
       0.848511         6.55095         5.51927 
       0.864097         6.31444          5.3017 
       0.879701         6.15549         5.09582 
       0.895507         5.90192          4.8986 
       0.911279         5.68594         4.71236 
        0.92691         5.52997         4.53748 
       0.942635         5.30777         4.37063 
       0.958396         5.13541         4.21192 
       0.974128         5.00725         4.06148 
       0.989692         4.78517         3.91997 
        1.00528         4.69341         3.78507 
        1.02113         4.55591         3.65448 
        1.03692         4.43666         3.53061 
        1.05264         4.26024         3.41311 
        1.06832         4.15955         3.30119 
        1.08405         4.03964         3.19405 
        1.09979         3.94495         3.09165 
        1.11537         3.82765          2.9948 
        1.13105         3.70502         2.90156 
        1.14679         3.61393         2.81198 
        1.16256         3.50053         2.72604 
        1.17828         3.45651         2.64401 
        1.19395         3.32995         2.56567 
         1.2097         3.23891         2.49014 
        1.22537         3.13962         2.41805 
          1.241         3.07765         2.34905 
        1.25666         3.03655         2.28261 
        1.27241         2.96436         2.21844 
        1.28819         2.84844         2.15666 
        1.30392         2.78484         2.09744 
        1.31957           2.746         2.04073 
        1.33529         2.64289         1.98593 
        1.35108         2.59661         1.93295 
        1.36674         2.52876         1.88229 
         1.3824         2.49955         1.83352 
        1.39811         2.43005         1.78633 
        1.41389         2.37261         1.74064 
        1.42964         2.32403         1.69663 
        1.44531         2.28562         1.65438 
        1.46101         2.22886         1.61349 
        1.47667         2.19048         1.57412 
        1.49229         2.11768         1.53618 
        1.50793         2.06898         1.49947 
        1.52367         2.03298         1.46372 
        1.53953         1.98462         1.42891 
        1.55526         1.98166         1.39552 
        1.57092         1.93387         1.36335 
        1.58662         1.91248         1.33213 
        1.60235         1.84598         1.30183 
        1.61809         1.81916         1.27246 
        1.63369         1.77633         1.24427 
        1.64941         1.74997         1.21674 
        1.66519         1.72554         1.18996 
        1.68085         1.68191         1.16417 
        1.69652         1.65368         1.13915 
        1.71228         1.61917         1.11473 
        1.72806         1.59576         1.09101 
        1.74368         1.56796         1.06823 
        1.75933         1.54463         1.04606 
        1.77505         1.51776         1.02442 
        1.79081         1.47951         1.00335 
         1.8065         1.46483        0.982979 
        1.82218         1.43057        0.963193 
        1.83797         1.40646         0.94382 
        1.85367         1.38653        0.925092 
        1.86928          1.3641        0.906989 
        1.88497         1.33698        0.889275 
        1.90073          1.3267        0.871973 
        1.91647         1.29187        0.855151 
        1.93218         1.27652        0.838812 
        1.94787         1.25618        0.822928 
        1.96363         1.24008        0.807395 
        1.97935         1.21688        0.792299 
        1.99499         1.19914        0.777677 
        2.01064          1.1817        0.763406 
         2.0264         1.15724        0.749406 
        2.04216         1.14673        0.735768 
        2.05781          1.1251        0.722557 
        2.07353         1.11324        0.709627 
        2.08928         1.09326        0.696987 
        2.10499         1.07701        0.684691 
        2.12065         1.06019        0.672732 
        2.13633         1.04732        0.661049 
        2.15211         1.02608        0.649572 
        2.16785         1.01744        0.638401 
        2.18349         1.00006        0.627564 
        2.19916        0.989377        0.616959 
        2.21489        0.975106        0.606565 
        2.23063        0.955905        0.596406 
         2.2463        0.944482        0.586527 
        2.26194        0.934822        0.576898 
        2.27765        0.919548        0.567437 
        2.29341        0.907696        0.558166 
        2.30914        0.891189        0.549122 
        2.32486         0.88398        0.540286 
        2.34061        0.870733         0.53163 
        2.35635        0.859289        0.523174 
        2.37203        0.848437        0.514932 
        2.38768        0.837914        0.506886 
        2.40339        0.829995        0.498984 
        2.41914        0.818515        0.491233 
        2.43483        0.807268        0.483676 
         2.4505        0.796507        0.476292 
        2.46622        0.786998        0.469037 
        2.48195        0.775719        0.461934 
        2.49759        0.767939        0.455017 
        2.51328         0.75592        0.448225 
        2.52906        0.748213         0.44153 
        2.54479        0.737552        0.434997 
        2.56049        0.729953         0.42861 
        2.57618         0.72147        0.422358 
        2.59189        0.712807        0.416222 
        2.60758        0.705717        0.410219 
        2.62325        0.695679        0.404342 
        2.63898        0.690556         0.39856 
        2.65468        0.677932        0.392905 
        2.67044        0.672949        0.387336 
        2.68618         0.66739        0.381888 
        2.70184        0.656089        0.376568 
        2.71755        0.649437        0.371336 
        2.73329        0.644472        0.366197 
        2.74897        0.634895        0.361172 
        2.76462         0.62774        0.356253 
        2.78034        0.620946        0.351406 
        2.79607         0.61575        0.346645 
        2.81179        0.606852        0.341979 
        2.82749        0.601663        0.337404 
        2.84321        0.593951        0.332908 
        2.85893        0.587045        0.328496 
        2.87462        0.580973        0.324172 
        2.89033        0.578766        0.319922 
        2.90605        0.571833        0.315746 
        2.92176        0.565956        0.311646 
        2.93747        0.559166        0.307622 
        2.95318        0.553592        0.303669 
        2.96891        0.549888        0.299784 
        2.98456        0.540804        0.295984 
        3.00023         0.53683        0.292246 
        3.01596        0.532113         0.28856 
        3.03164        0.526694        0.284949 
        3.04738        0.521408         0.28139 
         3.0631        0.515521        0.277894 
        3.07883        0.511388        0.274456 
        3.09456        0.508028        0.271078 
        3.11026        0.501764        0.267763 
        3.12596        0.496313        0.264503 
        3.14163        0.494133        0.261306 
        3.15734        0.488894        0.258155 
        3.17308        0.483957        0.255048 
        3.18879        0.480696        0.252001 
        3.20447        0.474947        0.249009 
         3.2202        0.469754        0.246056 
         3.2359        0.466237        0.243157 
        3.25157        0.459114        0.240312 
        3.26729        0.459229        0.237503 
        3.28304          0.4543        0.234735 
        3.29877        0.450265        0.232015 
        3.31446        0.448073        0.229344 
        3.33014        0.442025        0.226717 
        3.34585        0.438377        0.224128 
        3.36158        0.435368        0.221576 
        3.37727        0.432303        0.219072 
        3.39294        0.429243        0.216609 
        3.40867        0.423832        0.214175 
        3.42439        0.421312        0.211781 
        3.44008        0.417552        0.209428 
        3.45578        0.413989        0.207109 
        3.47153        0.411918         0.20482 
        3.48724        0.408391         0.20257 
        3.50292        0.404446        0.200359 
        3.51859        0.402139        0.198183 
        3.53431        0.398644        0.196032 
        3.55007        0.395674        0.193909 
        3.56577         0.39223        0.191825 
        3.58146        0.389601        0.189773 
        3.59719        0.386516        0.187746 
        3.61292        0.383549         0.18575 
        3.62859        0.380999        0.183791 
        3.64429        0.377859        0.181856 
        3.66003        0.374653        0.179944 
        3.67578        0.372841         0.17806 
        3.69146         0.36895         0.17621 
        3.70712        0.367702         0.17439 
        3.72284        0.365725        0.172589 
        3.73853        0.362479        0.170817 
        3.75422        0.359525        0.169069 
        3.76993        0.356714        0.167344 
        3.78564         0.35355        0.165644 
        3.80137        0.351549        0.163965 
        3.81707        0.349768        0.162313 
        3.83279        0.347068        0.160683 
        3.84853        0.344098        0.159073 
        3.86424        0.342449        0.157487 
        3.87992         0.33971        0.155926 
        3.89561        0.337362        0.154387 
        3.91134        0.334687        0.152865 
        3.92704        0.332164        0.151365 
        3.94273        0.330888        0.149887 
        3.95845        0.328283        0.148426 
        3.97418         0.32678        0.146985 
        3.98988        0.323489        0.145565 
        4.00554        0.320216        0.144167 
        4.02125        0.317748        0.142784 
        4.03698        0.314698        0.141417 
        4.05268        0.311336        0.140072 
        4.06839        0.309314        0.138742 
         4.0841        0.305674        0.137431 
        4.09983        0.303585        0.136135 
        4.11555         0.30015        0.134856 
        4.13124        0.297899        0.133597 
        4.14693        0.294973        0.132353 
        4.16266        0.291942        0.131123 
        4.17839        0.289474        0.129908 
        4.19408        0.287072        0.128713 
        4.20977        0.285331        0.127531 
        4.22551        0.282861        0.126362 
        4.24123        0.279872        0.125209 
        4.25691        0.278581        0.124073 
        4.27259        0.275936        0.122951 
        4.28831        0.274339        0.121841 
        4.30404        0.271817        0.120744 
        4.31974        0.270161        0.119662 
        4.33543        0.268157        0.118595 
        4.35116        0.266876        0.117538 
        4.36688        0.264878        0.116494 
        4.38255        0.262323        0.115467 
        4.39825        0.261409         0.11445 
        4.41398        0.259612        0.113444 
         4.4297        0.258277        0.112451 
        4.44541        0.256405         0.11147 
        4.46111        0.255536        0.110501 
        4.47683        0.254381        0.109544 
        4.49251        0.252456        0.108599 
        4.50819        0.251808        0.107667 
         4.5239        0.250388        0.106743 
        4.53962        0.248795         0.10583 
        4.55535         0.24787        0.104927 
        4.57106        0.247127        0.104036 
        4.58678        0.245335        0.103155 
         4.6025        0.244961        0.102284 
        4.61821        0.244419        0.101423 
        4.63391        0.243411        0.100574 
         4.6496        0.242216       0.0997341 
        4.66532        0.241702        0.098903 
        4.68103        0.240534       0.0980819 
        4.69673        0.240174       0.0972708 
        4.71241        0.239619       0.0964698 
        4.72811        0.239783       0.0956765 
        4.74384        0.238794       0.0948912 
        4.75955        0.238004        0.094116 
        4.77525        0.237894       0.0933499 
        4.79096        0.237273       0.0925915 
        4.80669        0.236749       0.0918411 
         4.8224        0.236776          0.0911 
        4.83809        0.236343       0.0903679 
        4.85379        0.235958       0.0896434 
         4.8695        0.236623       0.0889264 
        4.88521        0.235864       0.0882175 
        4.90093         0.23623       0.0875163 
        4.91663        0.235693       0.0868234 
        4.93234        0.235638       0.0861373 
        4.94807        0.235999       0.0854582 
        4.96377         0.23655       0.0847878 
        4.97943         0.23646        0.084126 
        4.99514        0.235419       0.0834696 
        5.01086         0.23697       0.0828197 
        5.02654        0.236796       0.0821785 
        5.04227        0.237212       0.0815422 
          5.058        0.238242       0.0809123 
        5.07371        0.237799       0.0802905 
        5.08942        0.238911       0.0796751 
        5.10513         0.23921       0.0790661 
        5.12084        0.239461       0.0784632 
        5.13656        0.239963       0.0778668 
        5.15225        0.240835       0.0772776 
        5.16796         0.24178       0.0766936 
        5.18369        0.242264       0.0761151 
         5.1994        0.243361       0.0755437 
        5.21509        0.243412       0.0749787 
        5.23079        0.244329       0.0744188 
        5.24649         0.24517       0.0738652 
        5.26217        0.246509       0.0733176 
        5.27788        0.247008       0.0727748 
        5.29359        0.248253       0.0722374 
        5.30933        0.249397       0.0717047 
        5.32504        0.250123       0.0711783 
        5.34073         0.25213       0.0706578 
        5.35646        0.252836       0.0701415 
        5.37218        0.254002       0.0696303 
        5.38789        0.254253        0.069125 
        5.40357        0.256138       0.0686254 
        5.41929        0.256896       0.0681296 
        5.43502        0.259393       0.0676387 
         5.4507        0.259999       0.0671538 
        5.46639        0.261632       0.0666736 
        5.48212        0.262676       0.0661971 
        5.49786        0.264146       0.0657246 
        5.51353        0.267191       0.0652591 
        5.52921        0.266975       0.0647977 
        5.54495        0.269145       0.0643395 
        5.56066        0.270814       0.0638862 
        5.57637        0.272274       0.0634373 
        5.59207        0.274226       0.0629932 
        5.60778        0.275536       0.0625532 
        5.62346        0.278104        0.062118 
        5.63916        0.279121       0.0616866 
        5.65487        0.281332        0.061259 
         5.6706        0.281488       0.0608351 
        5.68633        0.285217        0.060415 
        5.70203        0.288095       0.0599998 
        5.71773        0.288396       0.0595886 
        5.73344        0.290828        0.059181 
        5.74916        0.293114       0.0587769 
        5.76486        0.295585       0.0583772 
        5.78054        0.296247       0.0579818 
        5.79626        0.298235       0.0575889 
          5.812         0.30161       0.0571994 
         5.8277        0.303251       0.0568146 
        5.84339        0.304915       0.0564334 
        5.85911        0.308228       0.0560549 
        5.87484        0.309458         0.05568 
        5.89053        0.312281       0.0553093 
        5.90623        0.313168       0.0549418 
        5.92195        0.315726       0.0545771 
        5.93767        0.317421       0.0542159 
        5.95336         0.31979       0.0538585 
        5.96905        0.322765       0.0535046 
        5.98476         0.32509       0.0531533 
        6.00048        0.326631       0.0528051 
        6.01617        0.330321       0.0524605 
        6.03185        0.331639       0.0521194 
        6.04756        0.332889       0.0517805 
        6.06331        0.335737        0.051444 
        6.07903        0.339505       0.0511111 
        6.09473        0.340875       0.0507816 
        6.11044        0.342411       0.0504546 
        6.12616        0.346018       0.0501306 
        6.14186        0.347957       0.0498098 
        6.15755        0.351632       0.0494919 
        6.17326        0.352984       0.0491765 
        6.18898        0.354459       0.0488636 
        6.20467        0.354985       0.0485541 
        6.22036        0.360809       0.0482474 
         6.2361        0.360235       0.0479424 
         6.2518        0.364195       0.0476406 
        6.26748        0.365751       0.0473421 
        6.28319        0.369746       0.0470453 
        6.29893        0.370729       0.0467508 
        6.31463        0.373346       0.0464594 
        6.33033        0.375742       0.0461705 
        6.34604         0.37916        0.045884 
        6.36177        0.379032       0.0455996 
        6.37747        0.382132       0.0453181 
