# k  (h/Mpc)    Pcb(k)  (Mpc/h)^3    Pcb_linear(k) (Mpc/h)^3   ShotnoiseSubtracted = true
      0.0200456         14391.1         14706.2 
      0.0350414         10406.5         10802.3 
      0.0492313         7659.42         7759.47 
      0.0637834         6620.72         6490.22 
      0.0800726         5374.35         5324.02 
       0.096163         3764.93         3883.54 
       0.111083         2947.31         3022.28 
       0.126058         2717.11         2677.62 
       0.142273         2406.36         2354.57 
       0.158546         2061.41         1880.72 
        0.17375         1627.27         1541.93 
       0.188953         1575.32         1385.43 
       0.204907         1499.77         1262.95 
       0.220756         1293.68         1087.81 
        0.23588         1140.45         930.344 
         0.2514         989.726          833.59 
       0.267535         980.661         766.913 
       0.283568         893.521         688.962 
       0.299022         838.113          610.27 
       0.314451          794.38         551.362 
       0.330372         732.359         508.733 
       0.346141         677.016         468.117 
       0.361624         651.414         426.205 
       0.377134         605.454          389.62 
       0.392932         581.252         360.635 
       0.408854         561.078         335.078 
       0.424564         528.781          310.16 
       0.440253         517.057         286.988 
       0.455999          488.62         267.194 
       0.471626          461.75         250.102 
        0.48727         447.297         234.073 
       0.502856         434.238         218.986 
       0.518488         430.025          205.32 
       0.534347         402.475         193.006 
       0.550082          383.69         181.789 
       0.565732         382.573          171.35 
       0.581496         360.741         161.609 
       0.597222         354.809         152.756 
       0.612804          344.14         144.692 
       0.628434          331.34         137.154 
       0.644267         321.988         130.035 
       0.660051         315.315         123.448 
       0.675724         310.806         117.394 
       0.691403         301.517         111.757 
       0.707174         290.585         106.459 
       0.722871         287.211         101.525 
        0.73838         282.872         96.9568 
       0.754018         274.988         92.6354 
       0.769845         266.081         88.5309 
        0.78569         265.901         84.6722 
       0.801365         256.886         81.0827 
       0.817031         249.079         77.7053 
       0.832809         246.804         74.5007 
       0.848511         240.304         71.4935 
       0.864097         237.124         68.6753 
       0.879701         233.128         66.0085 
       0.895507         227.353         63.4537 
       0.911279         220.521         61.0413 
        0.92691         220.484          58.776 
       0.942635         215.175         56.6147 
       0.958396         213.249         54.5589 
       0.974128         208.593         52.6102 
       0.989692         203.893         50.7771 
        1.00528         201.343         49.0297 
        1.02113         199.809         47.3381 
        1.03692         194.274         45.7335 
        1.05264         190.424         44.2115 
        1.06832          187.22         42.7618 
        1.08405         184.194         41.3739 
        1.09979         182.715         40.0475 
        1.11537         177.935          38.793 
        1.13105         175.456         37.5852 
        1.14679           175.4         36.4248 
        1.16256         172.053         35.3116 
        1.17828          168.58         34.2491 
        1.19395         166.155         33.2343 
         1.2097         165.213         32.2559 
        1.22537         161.807          31.322 
          1.241         159.875         30.4283 
        1.25666         157.148         29.5676 
        1.27241         154.454         28.7365 
        1.28819         152.853         27.9362 
        1.30392         150.608         27.1691 
        1.31957         149.605         26.4345 
        1.33529         145.552         25.7246 
        1.35108         144.698         25.0383 
        1.36674         143.327         24.3822 
         1.3824         140.498         23.7504 
        1.39811         140.234         23.1391 
        1.41389         137.371         22.5472 
        1.42964         134.556         21.9772 
        1.44531         132.362           21.43 
        1.46101         131.175         20.9003 
        1.47667           129.3         20.3903 
        1.49229         127.707         19.8989 
        1.50793         126.687         19.4232 
        1.52367         125.111         18.9602 
        1.53953         122.589         18.5093 
        1.55526          121.37         18.0768 
        1.57092         119.939         17.6601 
        1.58662         117.895         17.2556 
        1.60235          117.24         16.8631 
        1.61809         115.112         16.4828 
        1.63369         113.977         16.1176 
        1.64941         112.956          15.761 
        1.66519         110.798          15.414 
        1.68085         110.087         15.0801 
        1.69652         107.357          14.756 
        1.71228         107.509         14.4396 
        1.72806          106.03         14.1324 
        1.74368         104.696         13.8373 
        1.75933         103.155         13.5501 
        1.77505         102.092         13.2697 
        1.79081         100.713         12.9969 
         1.8065         99.4943          12.733 
        1.82218           97.69         12.4767 
        1.83797         96.4504         12.2257 
        1.85367          95.568         11.9831 
        1.86928         94.8892         11.7486 
        1.88497         92.9586         11.5192 
        1.90073         92.6147         11.2951 
        1.91647         91.1247         11.0772 
        1.93218         90.0053         10.8655 
        1.94787         89.2621         10.6597 
        1.96363         87.7675         10.4585 
        1.97935         86.7961          10.263 
        1.99499         85.8806         10.0736 
        2.01064         84.9472         9.88874 
         2.0264         83.4117         9.70739 
        2.04216         82.5633         9.53072 
        2.05781         81.6884          9.3596 
        2.07353         80.2604         9.19211 
        2.08928         79.2357         9.02838 
        2.10499         78.5693         8.86911 
        2.12065         78.1576         8.71419 
        2.13633         77.0341         8.56287 
        2.15211         76.0867         8.41419 
        2.16785         75.1943         8.26949 
        2.18349         74.1878         8.12912 
        2.19916         73.4236         7.99174 
        2.21489         72.5398         7.85711 
        2.23063         71.8545         7.72551 
         2.2463         70.9312         7.59754 
        2.26194         70.4888         7.47281 
        2.27765         69.4656         7.35027 
        2.29341         68.5575         7.23017 
        2.30914         67.5172         7.11302 
        2.32486         66.7868         6.99856 
        2.34061         66.0934         6.88644 
        2.35635         65.5561          6.7769 
        2.37203         64.4106         6.67014 
        2.38768         63.8366         6.56592 
        2.40339         63.0361         6.46356 
        2.41914         62.5538         6.36316 
        2.43483         62.1964         6.26527 
         2.4505          61.252         6.16962 
        2.46622         60.5813         6.07564 
        2.48195         59.8219         5.98364 
        2.49759         58.9397         5.89404 
        2.51328         58.4945         5.80606 
        2.52906         58.0273         5.71933 
        2.54479         57.2476         5.63471 
        2.56049          56.495         5.55198 
        2.57618         56.0719         5.47099 
        2.59189         55.3648         5.39151 
        2.60758         55.0172         5.31375 
        2.62325         54.2605         5.23762 
        2.63898         53.7343         5.16273 
        2.65468         53.2425         5.08947 
        2.67044         52.3896         5.01733 
        2.68618         52.1438         4.94676 
        2.70184         51.2952         4.87785 
        2.71755         51.1975         4.81008 
        2.73329         50.1625         4.74351 
        2.74897         49.7458         4.67842 
        2.76462         49.2285          4.6147 
        2.78034         48.8162         4.55192 
        2.79607         48.0751         4.49025 
        2.81179         47.6619          4.4298 
        2.82749         47.0221         4.37054 
        2.84321         46.7042          4.3123 
        2.85893         46.1216         4.25515 
        2.87462         45.5482         4.19914 
        2.89033         45.1276         4.14409 
        2.90605          44.638         4.08999 
        2.92176          44.247         4.03689 
        2.93747         43.7949         3.98477 
        2.95318         43.2935         3.93356 
        2.96891         42.6524         3.88323 
        2.98456         42.5126         3.83402 
        3.00023         41.9776         3.78559 
        3.01596         41.6603         3.73785 
        3.03164         41.0368         3.69108 
        3.04738         40.8046         3.64497 
         3.0631         40.2877         3.59968 
        3.07883         39.9022         3.55516 
        3.09456         39.5075          3.5114 
        3.11026         38.9143         3.46845 
        3.12596         38.7623         3.42623 
        3.14163         38.2648         3.38481 
        3.15734         37.6756         3.34399 
        3.17308         37.6023         3.30375 
        3.18879         37.3014         3.26428 
        3.20447          36.706         3.22552 
         3.2202         36.2898         3.18727 
         3.2359         35.9764         3.14972 
        3.25157         35.5821         3.11286 
        3.26729         35.3523         3.07649 
        3.28304          34.917         3.04063 
        3.29877         34.6429         3.00539 
        3.31446         34.3631         2.97079 
        3.33014         33.9679         2.93677 
        3.34585         33.6248         2.90323 
        3.36158         33.3452         2.87017 
        3.37727         32.9859         2.83774 
        3.39294         32.6596         2.80583 
        3.40867         32.3433         2.77431 
        3.42439         32.0225         2.74329 
        3.44008         31.8996         2.71281 
        3.45578         31.3459         2.68277 
        3.47153         31.1106         2.65312 
        3.48724         30.8065         2.62398 
        3.50292         30.5087         2.59534 
        3.51859          30.234         2.56715 
        3.53431         29.9938         2.53929 
        3.55007         29.7022         2.51178 
        3.56577         29.4288         2.48479 
        3.58146         29.1883         2.45821 
        3.59719         28.8178         2.43196 
        3.61292         28.5963         2.40611 
        3.62859         28.3082         2.38073 
        3.64429          27.956         2.35567 
        3.66003         27.7534         2.33089 
        3.67578         27.5535         2.30649 
        3.69146         27.3064         2.28252 
        3.70712         27.0378         2.25895 
        3.72284         26.8601         2.23562 
        3.73853         26.6009         2.21266 
        3.75422         26.2926         2.19002 
        3.76993         26.1544         2.16768 
        3.78564         25.8503         2.14566 
        3.80137         25.6657         2.12391 
        3.81707         25.4034         2.10252 
        3.83279         25.1573          2.0814 
        3.84853         24.8299         2.06054 
        3.86424         24.6261         2.04001 
        3.87992         24.4095         2.01978 
        3.89561         24.2063         1.99984 
        3.91134          24.014         1.98012 
        3.92704          23.802          1.9607 
        3.94273         23.5376         1.94155 
        3.95845         23.3351         1.92263 
        3.97418         23.1811         1.90396 
        3.98988         22.9282         1.88556 
        4.00554          22.757         1.86746 
        4.02125         22.5999         1.84955 
        4.03698         22.3082         1.83184 
        4.05268         22.1594         1.81441 
        4.06839         21.9206         1.79719 
         4.0841         21.7906          1.7802 
        4.09983         21.6162         1.76341 
        4.11555         21.4104         1.74685 
        4.13124         21.1495         1.73054 
        4.14693         20.9707         1.71443 
        4.16266          20.794         1.69849 
        4.17839         20.6138         1.68276 
        4.19408         20.4067         1.66727 
        4.20977         20.3461         1.65197 
        4.22551          20.111         1.63682 
        4.24123         19.9321         1.62188 
        4.25691         19.7789         1.60717 
        4.27259         19.6083         1.59264 
        4.28831         19.4213         1.57826 
        4.30404         19.2452         1.56405 
        4.31974         19.0729         1.55004 
        4.33543          18.954         1.53621 
        4.35116         18.8219         1.52252 
        4.36688          18.625           1.509 
        4.38255         18.4841          1.4957 
        4.39825         18.3644         1.48253 
        4.41398         18.1495         1.46949 
         4.4297         17.9963         1.45663 
        4.44541          17.886         1.44392 
        4.46111         17.7202         1.43137 
        4.47683         17.5651         1.41897 
        4.49251         17.4676         1.40674 
        4.50819         17.2777         1.39465 
         4.5239         17.1681         1.38269 
        4.53962         16.9764         1.37086 
        4.55535         16.8634         1.35916 
        4.57106         16.7027         1.34762 
        4.58678          16.625         1.33621 
         4.6025         16.4532         1.32493 
        4.61821         16.3241         1.31378 
        4.63391         16.1988         1.30277 
         4.6496         16.0418          1.2919 
        4.66532         15.8866         1.28114 
        4.68103         15.7781          1.2705 
        4.69673         15.7052         1.25999 
        4.71241         15.5572         1.24962 
        4.72811         15.4019         1.23934 
        4.74384         15.2994         1.22917 
        4.75955         15.1811         1.21913 
        4.77525          15.067          1.2092 
        4.79096          14.927         1.19938 
        4.80669         14.8304         1.18966 
         4.8224          14.683         1.18006 
        4.83809         14.5493         1.17058 
        4.85379          14.432         1.16119 
         4.8695         14.3991          1.1519 
        4.88521         14.2383         1.14272 
        4.90093         14.1473         1.13364 
        4.91663         14.0554         1.12466 
        4.93234         13.8782         1.11577 
        4.94807         13.8112         1.10698 
        4.96377         13.6701         1.09829 
        4.97943         13.5949         1.08972 
        4.99514         13.4656         1.08122 
        5.01086         13.3955          1.0728 
        5.02654         13.2555         1.06449 
        5.04227         13.1721         1.05625 
          5.058         13.0817         1.04809 
        5.07371         12.9848         1.04004 
        5.08942         12.8717         1.03207 
        5.10513         12.7792         1.02418 
        5.12084          12.675         1.01637 
        5.13656         12.5836         1.00864 
        5.15225         12.4798         1.00101 
        5.16796         12.4129        0.993446 
        5.18369         12.2731        0.985953 
         5.1994         12.2257        0.978551 
        5.21509         12.1154        0.971232 
        5.23079         12.0335         0.96398 
        5.24649         11.9431        0.956808 
        5.26217         11.8387        0.949715 
        5.27788         11.7513        0.942684 
        5.29359         11.7053        0.935723 
        5.30933         11.5978        0.928823 
        5.32504         11.5169        0.922004 
        5.34073         11.4292        0.915262 
        5.35646         11.3414        0.908574 
        5.37218         11.2526        0.901952 
        5.38789         11.1861        0.895407 
        5.40357         11.1049        0.888935 
        5.41929         11.0113        0.882513 
        5.43502         10.9649        0.876154 
         5.4507         10.8439        0.869873 
        5.46639           10.78        0.863653 
        5.48212         10.7237         0.85748 
        5.49786         10.6238         0.85136 
        5.51353         10.5543        0.845331 
        5.52921         10.4741        0.839354 
        5.54495         10.3881        0.833418 
        5.56066         10.3119        0.827546 
        5.57637         10.2273        0.821732 
        5.59207         10.1886        0.815979 
        5.60778         10.1005        0.810279 
        5.62346         10.0499        0.804642 
        5.63916         9.96326        0.799053 
        5.65487         9.89925        0.793516 
         5.6706         9.83414        0.788024 
        5.68633          9.7478        0.782583 
        5.70203         9.69198        0.777204 
        5.71773         9.62445        0.771877 
        5.73344         9.55199        0.766598 
        5.74916         9.47547        0.761364 
        5.76486         9.41798        0.756185 
        5.78054         9.35562        0.751064 
        5.79626          9.2811        0.745975 
          5.812         9.22371        0.740929 
         5.8277         9.15189        0.735945 
        5.84339         9.10645        0.731006 
        5.85911         9.03744        0.726104 
        5.87484          8.9668        0.721248 
        5.89053         8.90964        0.716446 
        5.90623         8.83633        0.711686 
        5.92195         8.78826        0.706961 
        5.93767         8.74218        0.702282 
        5.95336         8.67957        0.697653 
        5.96905         8.60835        0.693068 
        5.98476         8.56383        0.688518 
        6.00048         8.48829        0.684008 
        6.01617         8.44687        0.679544 
        6.03185         8.38248        0.675126 
        6.04756         8.31468        0.670736 
        6.06331         8.26975        0.666377 
        6.07903         8.21978        0.662065 
        6.09473         8.15548        0.657796 
        6.11044         8.11122        0.653561 
        6.12616         8.05045        0.649365 
        6.14186         7.98981        0.645209 
        6.15755         7.93258         0.64109 
        6.17326         7.90045        0.637004 
        6.18898         7.84048        0.632952 
        6.20467         7.79636        0.628943 
        6.22036         7.72577        0.624969 
         6.2361         7.67797        0.621019 
         6.2518         7.64411         0.61711 
        6.26748         7.57356        0.613243 
        6.28319         7.52961        0.609399 
        6.29893         7.48799        0.605584 
        6.31463         7.45106        0.601809 
        6.33033         7.39446        0.598067 
        6.34604         7.34916        0.594355 
        6.36177         7.28783        0.590671 
        6.37747         7.25315        0.587025 
