# k  (h/Mpc)    Pcb(k)  (Mpc/h)^3    Pcb_linear(k) (Mpc/h)^3   ShotnoiseSubtracted = true
      0.0200456         2675.72         2707.18 
      0.0350414          1955.1         1920.89 
      0.0492313         1414.47         1413.25 
      0.0637834         1144.14         1163.32 
      0.0800726          867.45         880.855 
       0.096163         654.252         639.102 
       0.111083         543.556          528.78 
       0.126058         458.585         461.602 
       0.142273         371.272         370.735 
       0.158546         301.816         295.387 
        0.17375         267.066         259.037 
       0.188953         237.833         230.799 
       0.204907         196.195         195.239 
       0.220756         173.068         166.041 
        0.23588         154.823         149.028 
         0.2514         139.166         134.312 
       0.267535         126.252         117.702 
       0.283568         110.522         103.784 
       0.299022         102.269         94.2164 
       0.314451         96.4015         85.8972 
       0.330372          84.899         77.3004 
       0.346141         77.4534         69.8989 
       0.361624         71.5211         64.1237 
       0.377134         65.3543         59.0085 
       0.392932         62.7996         54.0467 
       0.408854          57.342         49.5939 
       0.424564         54.6708         45.8588 
       0.440253         49.8248         42.5285 
       0.455999         45.4262         39.4202 
       0.471626         42.9706         36.6271 
        0.48727          41.637         34.1523 
       0.502856          38.764         31.9197 
       0.518488         36.2757         29.8551 
       0.534347         34.0924         27.9379 
       0.550082         32.7339         26.2168 
       0.565732         31.4268         24.6508 
       0.581496         29.4048         23.1956 
       0.597222          27.816         21.8567 
       0.612804         26.4646         20.6381 
       0.628434         25.9112         19.5108 
       0.644267         24.4778         18.4536 
       0.660051         23.2223         17.4767 
       0.675724         22.1218          16.576 
       0.691403         21.6208         15.7379 
       0.707174         20.6981         14.9529 
       0.722871         19.9896         14.2244 
        0.73838         18.9132         13.5521 
       0.754018         17.9147         12.9181 
       0.769845         17.4464         12.3176 
        0.78569          16.877         11.7547 
       0.801365         16.2121         11.2323 
       0.817031         15.5971          10.742 
       0.832809         15.1073         10.2778 
       0.848511         14.6095         9.84305 
       0.864097         14.1143         9.43635 
       0.879701         13.8537         9.05218 
       0.895507         13.3137         8.68482 
       0.911279          12.749         8.33856 
        0.92691         12.4774         8.01399 
       0.942635          12.137         7.70486 
       0.958396         11.7154         7.41135 
       0.974128         11.4139         7.13362 
       0.989692         10.8826         6.87282 
        1.00528         10.7992         6.62464 
        1.02113         10.4171         6.38481 
        1.03692         10.1683         6.15771 
        1.05264          9.9144         5.94268 
        1.06832          9.6879         5.73822 
        1.08405         9.41193         5.54282 
        1.09979         9.16706         5.35638 
        1.11537          8.9255         5.18034 
        1.13105         8.75015         5.01115 
        1.14679         8.55012         4.84884 
        1.16256         8.34331         4.69338 
        1.17828         8.15906         4.54523 
        1.19395         7.97811         4.40396 
         1.2097         7.72264         4.26796 
        1.22537         7.57367         4.13834 
          1.241         7.36801         4.01448 
        1.25666           7.332         3.89537 
        1.27241         7.16259         3.78051 
        1.28819         6.86707         3.67008 
        1.30392         6.81919         3.56437 
        1.31957         6.64824         3.46327 
        1.33529         6.54866         3.36572 
        1.35108         6.39961         3.27152 
        1.36674         6.23605         3.18159 
         1.3824          6.1615         3.09511 
        1.39811         6.04131         3.01155 
        1.41389           5.888         2.93075 
        1.42964         5.80773         2.85303 
        1.44531         5.68765          2.7785 
        1.46101         5.62206         2.70647 
        1.47667         5.49503         2.63719 
        1.49229         5.34345         2.57052 
        1.50793         5.27675         2.50607 
        1.52367         5.17442          2.4434 
        1.53953         5.08303         2.38246 
        1.55526         5.03614         2.32406 
        1.57092         4.92791         2.26786 
        1.58662         4.84392         2.21338 
        1.60235          4.7728         2.16057 
        1.61809         4.69932         2.10946 
        1.63369          4.6034         2.06044 
        1.64941         4.52575         2.01263 
        1.66519         4.47064         1.96615 
        1.68085         4.38476         1.92147 
        1.69652         4.33145         1.87816 
        1.71228         4.28354         1.83593 
        1.72806         4.19647         1.79496 
        1.74368         4.14665         1.75565 
        1.75933         4.07811         1.71742 
        1.77505         3.99775         1.68016 
        1.79081         3.96209         1.64393 
         1.8065         3.91573         1.60892 
        1.82218         3.84622         1.57495 
        1.83797         3.77287         1.54173 
        1.85367         3.72413         1.50964 
        1.86928         3.69471         1.47866 
        1.88497         3.61753         1.44837 
        1.90073         3.57667         1.41882 
        1.91647         3.51829         1.39011 
        1.93218         3.47908         1.36225 
        1.94787         3.43605          1.3352 
        1.96363          3.3933         1.30877 
        1.97935         3.35177          1.2831 
        1.99499          3.3095         1.25827 
        2.01064         3.26783         1.23405 
         2.0264         3.22192         1.21032 
        2.04216         3.17847         1.18722 
        2.05781         3.13939         1.16486 
        2.07353         3.11239           1.143 
        2.08928         3.05291         1.12165 
        2.10499         3.01741          1.1009 
        2.12065         3.01675         1.08073 
        2.13633         2.96556         1.06105 
        2.15211         2.91213         1.04173 
        2.16785         2.88154         1.02294 
        2.18349         2.85609         1.00473 
        2.19916          2.8266        0.986921 
        2.21489         2.79615        0.969485 
        2.23063         2.75364        0.952455 
         2.2463         2.71757         0.93591 
        2.26194         2.68767        0.919796 
        2.27765         2.63746        0.903977 
        2.29341         2.61792        0.888488 
        2.30914         2.58846        0.873391 
        2.32486         2.57599        0.858651 
        2.34061         2.54603        0.844226 
        2.35635         2.51641        0.830143 
        2.37203         2.50461        0.816428 
        2.38768         2.47627         0.80305 
        2.40339         2.43012        0.789922 
        2.41914         2.41013        0.777054 
        2.43483         2.38118        0.764518 
         2.4505         2.36017        0.752278 
        2.46622         2.33645        0.740262 
        2.48195         2.31873        0.728506 
        2.49759         2.28621        0.717067 
        2.51328         2.27004        0.705842 
        2.52906         2.24445        0.694786 
        2.54479         2.22205        0.684006 
        2.56049         2.20097        0.673475 
        2.57618         2.17883        0.663173 
        2.59189           2.173         0.65307 
        2.60758          2.1476        0.643192 
        2.62325         2.10718        0.633529 
        2.63898         2.09056         0.62403 
        2.65468         2.07067        0.614745 
        2.67044         2.06768        0.605607 
        2.68618         2.04561        0.596676 
        2.70184         2.02252        0.587959 
        2.71755          1.9985        0.579394 
        2.73329         1.97857        0.570985 
        2.74897         1.96304        0.562769 
        2.76462         1.94344        0.554733 
        2.78034         1.93397        0.546819 
        2.79607         1.91066        0.539051 
        2.81179         1.89421        0.531441 
        2.82749         1.87451        0.523986 
        2.84321         1.86135        0.516665 
        2.85893         1.83862        0.509485 
        2.87462         1.83305        0.502453 
        2.89033         1.81707        0.495546 
        2.90605         1.80108        0.488763 
        2.92176         1.78165        0.482109 
        2.93747         1.76821        0.475582 
        2.95318         1.75326        0.469173 
        2.96891         1.74519        0.462879 
        2.98456         1.72936        0.456728 
        3.00023          1.7136        0.450679 
        3.01596         1.69406         0.44472 
        3.03164         1.68234        0.438885 
        3.04738         1.67304        0.433137 
         3.0631         1.65841        0.427493 
        3.07883         1.64613        0.421949 
        3.09456         1.62789        0.416504 
        3.11026         1.61908        0.411162 
        3.12596         1.60353        0.405914 
        3.14163         1.59706         0.40077 
        3.15734          1.5787        0.395702 
        3.17308         1.57107        0.390709 
        3.18879         1.55969        0.385815 
        3.20447         1.54092        0.381011 
         3.2202         1.53957        0.376274 
         3.2359         1.52378        0.371626 
        3.25157         1.50946        0.367066 
        3.26729         1.49733        0.362569 
        3.28304         1.48706        0.358138 
        3.29877         1.47418        0.353786 
        3.31446          1.4669        0.349516 
        3.33014         1.45497        0.345319 
        3.34585         1.44354        0.341185 
        3.36158         1.43224        0.337112 
        3.37727         1.42931        0.333117 
        3.39294         1.41405         0.32919 
        3.40867         1.40877        0.325313 
        3.42439         1.39646        0.321499 
        3.44008         1.38579        0.317753 
        3.45578         1.37513        0.314065 
        3.47153         1.36772        0.310426 
        3.48724         1.35734         0.30685 
        3.50292         1.34299         0.30334 
        3.51859         1.34114        0.299885 
        3.53431          1.3282        0.296473 
        3.55007          1.3232        0.293106 
        3.56577         1.31336        0.289803 
        3.58146         1.30453        0.286553 
        3.59719          1.2963        0.283345 
        3.61292         1.28844        0.280187 
        3.62859          1.2789        0.277088 
        3.64429         1.27138         0.27403 
        3.66003         1.26223        0.271009 
        3.67578         1.25369        0.268034 
        3.69146         1.24525        0.265114 
        3.70712         1.23689        0.262243 
        3.72284         1.22948        0.259404 
        3.73853         1.22196        0.256611 
        3.75422         1.21482        0.253858 
        3.76993         1.20572        0.251143 
        3.78564         1.19683        0.248469 
        3.80137         1.19134        0.245828 
        3.81707         1.18105        0.243232 
        3.83279         1.18097         0.24067 
        3.84853         1.16968        0.238142 
        3.86424          1.1596        0.235654 
        3.87992         1.15516        0.233205 
        3.89561         1.14577        0.230791 
        3.91134         1.14092        0.228405 
        3.92704         1.13321        0.226056 
        3.94273           1.128        0.223742 
        3.95845         1.11667        0.221456 
        3.97418         1.11229        0.219201 
        3.98988         1.10777        0.216981 
        4.00554         1.09796        0.214797 
        4.02125         1.09152        0.212637 
        4.03698         1.08354        0.210503 
        4.05268         1.07743        0.208403 
        4.06839         1.06796        0.206329 
         4.0841         1.06193        0.204285 
        4.09983         1.05371        0.202265 
        4.11555         1.04733        0.200273 
        4.13124         1.03901        0.198313 
        4.14693         1.03217        0.196378 
        4.16266         1.02704        0.194463 
        4.17839         1.02022        0.192576 
        4.19408         1.01422        0.190717 
        4.20977         1.00744        0.188882 
        4.22551         1.00166        0.187066 
        4.24123        0.993467        0.185277 
        4.25691        0.987015        0.183515 
        4.27259        0.980169        0.181775 
        4.28831        0.978943        0.180055 
        4.30404        0.970088        0.178355 
        4.31974        0.963623         0.17668 
        4.33543        0.958032        0.175028 
        4.35116          0.9525        0.173392 
        4.36688        0.947604        0.171779 
        4.38255        0.942891        0.170191 
        4.39825        0.937404         0.16862 
        4.41398        0.932412        0.167066 
         4.4297        0.926757        0.165532 
        4.44541        0.920623        0.164018 
        4.46111        0.914601        0.162525 
        4.47683        0.912523        0.161048 
        4.49251        0.907583        0.159593 
        4.50819         0.90313        0.158156 
         4.5239        0.898575        0.156734 
        4.53962        0.892093        0.155328 
        4.55535        0.890195        0.153939 
        4.57106        0.883798        0.152568 
        4.58678        0.883805        0.151214 
         4.6025        0.877205        0.149875 
        4.61821        0.875626        0.148553 
        4.63391        0.871676        0.147249 
         4.6496         0.86343        0.145961 
        4.66532        0.863074        0.144685 
        4.68103        0.858168        0.143426 
        4.69673        0.855969        0.142183 
        4.71241        0.850592        0.140956 
        4.72811        0.849186         0.13974 
        4.74384        0.845131        0.138538 
        4.75955        0.842722        0.137352 
        4.77525        0.837553         0.13618 
        4.79096        0.833673         0.13502 
        4.80669        0.832261        0.133873 
         4.8224        0.828181        0.132741 
        4.83809        0.826545        0.131622 
        4.85379        0.823608        0.130516 
         4.8695        0.819742        0.129422 
        4.88521        0.817272         0.12834 
        4.90093          0.8149        0.127271 
        4.91663        0.811849        0.126215 
        4.93234        0.808294        0.125169 
        4.94807        0.804425        0.124135 
        4.96377        0.804868        0.123114 
        4.97943        0.803173        0.122107 
        4.99514        0.801575        0.121108 
        5.01086        0.796335         0.12012 
        5.02654        0.793585        0.119145 
        5.04227        0.791917        0.118178 
          5.058        0.791208        0.117221 
        5.07371        0.787808        0.116276 
        5.08942        0.785585        0.115342 
        5.10513        0.786635        0.114418 
        5.12084        0.781978        0.113504 
        5.13656        0.778535        0.112599 
        5.15225         0.77504        0.111706 
        5.16796        0.774152        0.110821 
        5.18369        0.774124        0.109945 
         5.1994        0.772645         0.10908 
        5.21509        0.769364        0.108225 
        5.23079        0.768971        0.107378 
        5.24649        0.766703         0.10654 
        5.26217        0.765492        0.105713 
        5.27788        0.762881        0.104892 
        5.29359        0.762186         0.10408 
        5.30933        0.761583        0.103276 
        5.32504        0.759132        0.102481 
        5.34073        0.758099        0.101696 
        5.35646        0.755204        0.100917 
        5.37218        0.753798        0.100146 
        5.38789        0.754831        0.099384 
        5.40357        0.752578       0.0986311 
        5.41929        0.752456       0.0978842 
        5.43502        0.748635       0.0971449 
         5.4507        0.746438       0.0964149 
        5.46639        0.747466       0.0956924 
        5.48212        0.743971       0.0949754 
        5.49786        0.744761       0.0942649 
        5.51353        0.745051       0.0935652 
        5.52921        0.741199       0.0928718 
        5.54495        0.740325       0.0921834 
        5.56066        0.741054       0.0915026 
        5.57637        0.741816       0.0908288 
        5.59207        0.738873       0.0901623 
        5.60778        0.738885       0.0895021 
        5.62346         0.73722       0.0888495 
        5.63916        0.737127       0.0882027 
        5.65487        0.734474        0.087562 
         5.6706         0.73345       0.0869268 
        5.68633        0.731911       0.0862977 
        5.70203        0.732158       0.0856761 
        5.71773         0.73183       0.0850606 
        5.73344        0.729312       0.0844508 
        5.74916        0.729547       0.0838464 
        5.76486        0.728378       0.0832487 
        5.78054        0.728145       0.0826577 
        5.79626        0.727259       0.0820708 
          5.812        0.726248       0.0814889 
         5.8277        0.726151       0.0809143 
        5.84339         0.72692       0.0803453 
        5.85911        0.724212       0.0797805 
        5.87484        0.724633       0.0792213 
        5.89053        0.721194       0.0786685 
        5.90623        0.722304       0.0781207 
        5.92195        0.720811       0.0775771 
        5.93767        0.721221        0.077039 
        5.95336        0.720013       0.0765068 
        5.96905        0.720009       0.0759798 
        5.98476        0.716729        0.075457 
        6.00048        0.719575       0.0749389 
        6.01617        0.717006       0.0744263 
        6.03185        0.715809       0.0739191 
        6.04756        0.717551       0.0734154 
        6.06331        0.715422       0.0729153 
        6.07903         0.71571       0.0724209 
        6.09473        0.715055       0.0719315 
        6.11044        0.713915       0.0714461 
        6.12616        0.713625       0.0709653 
        6.14186        0.711954       0.0704893 
        6.15755         0.71199       0.0700177 
        6.17326        0.711586         0.06955 
        6.18898        0.710177       0.0690863 
        6.20467        0.710119       0.0686277 
        6.22036        0.708488       0.0681732 
         6.2361        0.709013       0.0677216 
         6.2518        0.708614       0.0672748 
        6.26748        0.707879        0.066833 
        6.28319        0.706772       0.0663939 
        6.29893        0.705568       0.0659583 
        6.31463        0.706149       0.0655274 
        6.33033        0.705723       0.0651004 
        6.34604         0.70548       0.0646769 
        6.36177        0.704981       0.0642568 
        6.37747        0.703221       0.0638411 
