# k  (h/Mpc)    Pcb(k)  (Mpc/h)^3    Pcb_linear(k) (Mpc/h)^3   ShotnoiseSubtracted = true
      0.0200456          3713.3         3757.51 
      0.0350414         2718.89         2666.15 
      0.0492313         1961.08         1961.56 
      0.0637834         1583.43         1614.66 
      0.0800726         1200.17         1222.61 
       0.096163         910.882          887.06 
       0.111083         757.762         733.935 
       0.126058         636.483         640.693 
       0.142273         516.832         514.572 
       0.158546         421.581          409.99 
        0.17375         373.504         359.538 
       0.188953         333.873         320.344 
       0.204907         275.266         270.988 
       0.220756         243.904         230.462 
        0.23588         218.255         206.847 
         0.2514         195.814         186.422 
       0.267535         179.579         163.368 
       0.283568         156.853          144.05 
       0.299022         146.156          130.77 
       0.314451         138.858         119.223 
       0.330372         121.558         107.291 
       0.346141         111.276         97.0182 
       0.361624         103.347         89.0023 
       0.377134         94.3886         81.9025 
       0.392932         91.0253         75.0156 
       0.408854         83.9391         68.8352 
       0.424564         79.9544          63.651 
       0.440253         72.7865         59.0286 
       0.455999         66.6534         54.7144 
       0.471626         63.4746         50.8377 
        0.48727         61.5328         47.4026 
       0.502856          56.963         44.3038 
       0.518488         54.0296         41.4383 
       0.534347         50.8803         38.7772 
       0.550082         48.9932         36.3883 
       0.565732         47.2132         34.2147 
       0.581496         43.9107         32.1951 
       0.597222         41.8935         30.3366 
       0.612804         40.1116         28.6452 
       0.628434         39.2876         27.0805 
       0.644267         37.1089         25.6131 
       0.660051         35.4092         24.2573 
       0.675724           33.92         23.0071 
       0.691403         33.2532         21.8438 
       0.707174         31.9689         20.7543 
       0.722871         30.8958         19.7432 
        0.73838         29.3808           18.81 
       0.754018         27.8166           17.93 
       0.769845         27.2865         17.0966 
        0.78569         26.3166         16.3152 
       0.801365         25.4485         15.5902 
       0.817031         24.4349         14.9097 
       0.832809         23.8779         14.2654 
       0.848511         23.0716         13.6619 
       0.864097         22.4172         13.0974 
       0.879701         22.0111         12.5642 
       0.895507         21.1478         12.0543 
       0.911279         20.3657         11.5737 
        0.92691         20.0035         11.1232 
       0.942635          19.516         10.6942 
       0.958396         18.9441         10.2868 
       0.974128         18.4292          9.9013 
       0.989692         17.6364         9.53932 
        1.00528         17.5042         9.19486 
        1.02113           16.94         8.86198 
        1.03692         16.5769         8.54677 
        1.05264         16.2253         8.24831 
        1.06832         15.8922         7.96453 
        1.08405         15.4149         7.69332 
        1.09979         15.1087         7.43454 
        1.11537         14.6603          7.1902 
        1.13105         14.4425         6.95536 
        1.14679           14.07         6.73008 
        1.16256         13.8171         6.51431 
        1.17828         13.5405         6.30869 
        1.19395         13.3082          6.1126 
         1.2097         12.9439         5.92384 
        1.22537         12.7088         5.74393 
          1.241         12.4022         5.57201 
        1.25666         12.2782         5.40668 
        1.27241         12.0371         5.24727 
        1.28819         11.5496         5.09399 
        1.30392         11.6209         4.94726 
        1.31957         11.2793         4.80695 
        1.33529         11.1223         4.67154 
        1.35108         10.9405          4.5408 
        1.36674         10.6787         4.41598 
         1.3824         10.5032         4.29595 
        1.39811          10.327         4.17997 
        1.41389         10.1467         4.06781 
        1.42964         9.99696         3.95994 
        1.44531         9.82693          3.8565 
        1.46101         9.69456         3.75652 
        1.47667         9.51414         3.66037 
        1.49229         9.27448         3.56783 
        1.50793         9.19285         3.47837 
        1.52367         9.06355         3.39139 
        1.53953         8.90219          3.3068 
        1.55526         8.74598         3.22575 
        1.57092           8.677         3.14774 
        1.58662         8.51542         3.07212 
        1.60235         8.40462         2.99883 
        1.61809         8.28686         2.92788 
        1.63369         8.12783         2.85985 
        1.64941         8.01458         2.79349 
        1.66519         7.91146         2.72898 
        1.68085         7.76211         2.66696 
        1.69652         7.72268         2.60684 
        1.71228          7.6141         2.54823 
        1.72806         7.47349         2.49136 
        1.74368         7.39322          2.4368 
        1.75933         7.29369         2.38375 
        1.77505         7.16941         2.33202 
        1.79081         7.09342         2.28174 
         1.8065         7.04565         2.23314 
        1.82218         6.94813           2.186 
        1.83797         6.82474         2.13988 
        1.85367         6.74743         2.09535 
        1.86928         6.65898         2.05235 
        1.88497         6.59406         2.01031 
        1.90073         6.48998         1.96929 
        1.91647         6.34287         1.92944 
        1.93218         6.32756         1.89078 
        1.94787         6.23006         1.85323 
        1.96363         6.17027         1.81654 
        1.97935         6.13076         1.78092 
        1.99499          6.0384         1.74645 
        2.01064         5.95907         1.71284 
         2.0264         5.89592          1.6799 
        2.04216         5.86474         1.64783 
        2.05781         5.78301          1.6168 
        2.07353         5.70167         1.58646 
        2.08928         5.61435         1.55682 
        2.10499         5.56699         1.52802 
        2.12065         5.55074         1.50003 
        2.13633         5.46493         1.47271 
        2.15211         5.40355         1.44589 
        2.16785         5.31549         1.41982 
        2.18349         5.31169         1.39454 
        2.19916         5.23704         1.36982 
        2.21489         5.18845         1.34562 
        2.23063          5.1301         1.32199 
         2.2463         5.05681         1.29902 
        2.26194         5.00131         1.27666 
        2.27765          4.9503          1.2547 
        2.29341          4.8807          1.2332 
        2.30914         4.87396         1.21225 
        2.32486         4.79892         1.19179 
        2.34061         4.77369         1.17177 
        2.35635         4.71296         1.15222 
        2.37203         4.68014         1.13318 
        2.38768         4.63162         1.11462 
        2.40339         4.57736         1.09639 
        2.41914         4.54802         1.07853 
        2.43483         4.50129         1.06113 
         2.4505          4.4414         1.04414 
        2.46622         4.40036         1.02747 
        2.48195         4.39455         1.01115 
        2.49759         4.30945        0.995273 
        2.51328         4.28878        0.979694 
        2.52906         4.23559        0.964348 
        2.54479         4.20568        0.949385 
        2.56049         4.16814        0.934768 
        2.57618         4.13655        0.920469 
        2.59189          4.1311        0.906446 
        2.60758         4.06843        0.892736 
        2.62325         4.00129        0.879324 
        2.63898         4.01073         0.86614 
        2.65468         3.95467        0.853252 
        2.67044         3.93069         0.84057 
        2.68618         3.88894        0.828173 
        2.70184         3.87168        0.816074 
        2.71755         3.81772        0.804186 
        2.73329         3.78313        0.792515 
        2.74897         3.75896        0.781112 
        2.76462          3.7288        0.769957 
        2.78034         3.69989        0.758973 
        2.79607         3.66385         0.74819 
        2.81179         3.63501        0.737628 
        2.82749         3.59441        0.727281 
        2.84321         3.57831        0.717119 
        2.85893         3.54111        0.707154 
        2.87462         3.52288        0.697393 
        2.89033         3.49745        0.687807 
        2.90605           3.462        0.678392 
        2.92176          3.4185        0.669157 
        2.93747         3.40767        0.660097 
        2.95318         3.37326        0.651203 
        2.96891         3.35466        0.642467 
        2.98456         3.32649        0.633929 
        3.00023         3.30844        0.625532 
        3.01596         3.26796        0.617261 
        3.03164         3.24526        0.609163 
        3.04738         3.22964        0.601185 
         3.0631         3.21033        0.593351 
        3.07883         3.17784        0.585656 
        3.09456         3.13986        0.578098 
        3.11026         3.13138        0.570684 
        3.12596         3.10995          0.5634 
        3.14163         3.08015         0.55626 
        3.15734          3.0571        0.549225 
        3.17308           3.038        0.542295 
        3.18879         3.01954        0.535503 
        3.20447         2.99727        0.528836 
         3.2202         2.96853        0.522261 
         3.2359         2.94818        0.515809 
        3.25157         2.93471         0.50948 
        3.26729         2.90819        0.503238 
        3.28304         2.88239        0.497088 
        3.29877         2.86615        0.491048 
        3.31446         2.84933        0.485121 
        3.33014         2.82174        0.479296 
        3.34585         2.81262        0.473557 
        3.36158         2.78465        0.467903 
        3.37727         2.76981        0.462359 
        3.39294         2.75248        0.456909 
        3.40867         2.73776        0.451527 
        3.42439         2.70302        0.446233 
        3.44008         2.69381        0.441035 
        3.45578         2.67478        0.435915 
        3.47153         2.65476        0.430864 
        3.48724         2.64149        0.425902 
        3.50292         2.62244        0.421029 
        3.51859         2.60039        0.416234 
        3.53431         2.58476        0.411498 
        3.55007         2.57336        0.406824 
        3.56577         2.54877        0.402241 
        3.58146         2.53851        0.397729 
        3.59719          2.5273        0.393277 
        3.61292         2.50267        0.388893 
        3.62859         2.49075        0.384592 
        3.64429         2.46834        0.380348 
        3.66003         2.46014        0.376154 
        3.67578         2.44453        0.372025 
        3.69146         2.42022        0.367972 
        3.70712         2.41212        0.363988 
        3.72284         2.39506        0.360047 
        3.73853          2.3798         0.35617 
        3.75422         2.35829         0.35235 
        3.76993         2.34592        0.348581 
        3.78564         2.33118        0.344869 
        3.80137         2.31653        0.341204 
        3.81707         2.30764          0.3376 
        3.83279         2.28553        0.334045 
        3.84853         2.27051        0.330535 
        3.86424         2.25491        0.327082 
        3.87992         2.24368        0.323683 
        3.89561         2.23074        0.320332 
        3.91134         2.21539        0.317021 
        3.92704         2.19745        0.313761 
        3.94273          2.1837        0.310549 
        3.95845          2.1739        0.307376 
        3.97418         2.16187        0.304247 
        3.98988         2.14758        0.301165 
        4.00554          2.1335        0.298134 
        4.02125         2.11249        0.295135 
        4.03698         2.10445        0.292173 
        4.05268         2.09023        0.289258 
        4.06839         2.07793        0.286381 
         4.0841         2.06206        0.283543 
        4.09983         2.04761        0.280739 
        4.11555          2.0351        0.277974 
        4.13124         2.02608        0.275254 
        4.14693         2.00954        0.272568 
        4.16266         2.00166        0.269911 
        4.17839         1.98418        0.267291 
        4.19408         1.96978        0.264711 
        4.20977         1.96001        0.262164 
        4.22551         1.94744        0.259644 
        4.24123         1.93754         0.25716 
        4.25691         1.92628        0.254715 
        4.27259         1.91119          0.2523 
        4.28831         1.89585        0.249912 
        4.30404          1.8928        0.247552 
        4.31974         1.88125        0.245228 
        4.33543         1.86027        0.242935 
        4.35116         1.85421        0.240665 
        4.36688         1.84345        0.238425 
        4.38255         1.83275        0.236221 
        4.39825         1.82123        0.234041 
        4.41398         1.81435        0.231883 
         4.4297         1.79986        0.229755 
        4.44541         1.78666        0.227654 
        4.46111         1.78067         0.22558 
        4.47683          1.7696        0.223531 
        4.49251         1.75861        0.221511 
        4.50819         1.74885        0.219517 
         4.5239         1.74337        0.217543 
        4.53962         1.73098        0.215592 
        4.55535         1.71917        0.213663 
        4.57106         1.71049        0.211761 
        4.58678         1.69831        0.209881 
         4.6025         1.68981        0.208024 
        4.61821         1.68449        0.206189 
        4.63391         1.67418        0.204378 
         4.6496         1.66562         0.20259 
        4.66532         1.65651         0.20082 
        4.68103         1.64595        0.199072 
        4.69673         1.63779        0.197347 
        4.71241         1.62936        0.195643 
        4.72811         1.62428        0.193957 
        4.74384         1.61584        0.192288 
        4.75955         1.60587        0.190641 
        4.77525         1.59714        0.189015 
        4.79096         1.58842        0.187405 
        4.80669         1.58126        0.185813 
         4.8224         1.57269        0.184241 
        4.83809         1.56502        0.182689 
        4.85379         1.56173        0.181154 
         4.8695          1.5509        0.179635 
        4.88521         1.54226        0.178134 
        4.90093         1.53774        0.176649 
        4.91663         1.52847        0.175183 
        4.93234         1.52432        0.173732 
        4.94807         1.51699        0.172296 
        4.96377         1.50537         0.17088 
        4.97943         1.50186        0.169481 
        4.99514         1.49256        0.168095 
        5.01086         1.48465        0.166723 
        5.02654         1.47847         0.16537 
        5.04227         1.47373        0.164028 
          5.058          1.4663          0.1627 
        5.07371         1.46151        0.161389 
        5.08942         1.45617        0.160093 
        5.10513         1.44784         0.15881 
        5.12084         1.43807        0.157541 
        5.13656         1.43354        0.156285 
        5.15225         1.42755        0.155046 
        5.16796         1.42032        0.153818 
        5.18369         1.41657        0.152601 
         5.1994         1.41051        0.151401 
        5.21509          1.4054        0.150214 
        5.23079         1.40048        0.149038 
        5.24649         1.39654        0.147876 
        5.26217         1.38847        0.146727 
        5.27788         1.37981        0.145588 
        5.29359         1.37649        0.144461 
        5.30933         1.37225        0.143345 
        5.32504          1.3667        0.142242 
        5.34073          1.3565        0.141151 
        5.35646         1.35287         0.14007 
        5.37218         1.35045           0.139 
        5.38789         1.34113        0.137943 
        5.40357         1.33749        0.136898 
        5.41929         1.33099        0.135861 
        5.43502         1.32855        0.134835 
         5.4507         1.31967        0.133822 
        5.46639         1.31598        0.132819 
        5.48212         1.31094        0.131824 
        5.49786         1.30492        0.130838 
        5.51353          1.3018        0.129866 
        5.52921         1.29669        0.128904 
        5.54495         1.29488        0.127948 
        5.56066         1.28686        0.127004 
        5.57637         1.27928        0.126068 
        5.59207         1.27541        0.125143 
        5.60778         1.27459        0.124227 
        5.62346         1.26578        0.123321 
        5.63916         1.26442        0.122423 
        5.65487         1.25779        0.121534 
         5.6706         1.25403        0.120653 
        5.68633         1.24794        0.119779 
        5.70203         1.24505        0.118917 
        5.71773         1.24062        0.118062 
        5.73344         1.23702        0.117216 
        5.74916         1.23238        0.116377 
        5.76486         1.22714        0.115547 
        5.78054         1.22286        0.114727 
        5.79626         1.22059        0.113912 
          5.812         1.21348        0.113105 
         5.8277         1.21097        0.112307 
        5.84339         1.20767        0.111517 
        5.85911          1.2031        0.110734 
        5.87484         1.19668        0.109957 
        5.89053         1.19345         0.10919 
        5.90623         1.19264         0.10843 
        5.92195         1.18737        0.107675 
        5.93767         1.18182        0.106928 
        5.95336         1.18066         0.10619 
        5.96905          1.1716        0.105458 
        5.98476         1.16975        0.104733 
        6.00048         1.16646        0.104014 
        6.01617         1.16237        0.103302 
        6.03185         1.16054        0.102598 
        6.04756         1.15512        0.101899 
        6.06331          1.1531        0.101205 
        6.07903         1.14816        0.100519 
        6.09473         1.14522       0.0998393 
        6.11044         1.13997       0.0991656 
        6.12616         1.13479       0.0984982 
        6.14186         1.13343       0.0978376 
        6.15755         1.12983        0.097183 
        6.17326         1.12589       0.0965339 
        6.18898         1.12521       0.0958903 
        6.20467          1.1216       0.0952537 
        6.22036         1.11697       0.0946229 
         6.2361         1.11217       0.0939961 
         6.2518         1.11053        0.093376 
        6.26748         1.10538       0.0927627 
        6.28319         1.10155       0.0921533 
        6.29893          1.1001       0.0915487 
        6.31463         1.09581       0.0909506 
        6.33033         1.09155        0.090358 
        6.34604          1.0893       0.0897702 
        6.36177          1.0845        0.089187 
        6.37747         1.08273       0.0886101 
