# k  (h/Mpc)    Pcb(k)  (Mpc/h)^3    Pcb_linear(k) (Mpc/h)^3   ShotnoiseSubtracted = true
      0.0200456         29518.5           30055 
      0.0350414         22098.1         21325.6 
      0.0492313         15232.5         15689.8 
      0.0637834         12155.5         12915.1 
      0.0800726         9171.79         9779.21 
       0.096163         7469.54         7095.29 
       0.111083         6214.47         5870.49 
       0.126058         5091.63         5124.68 
       0.142273         4379.06         4115.88 
       0.158546         3592.23         3279.37 
        0.17375         3288.11         2875.82 
       0.188953         3145.36         2562.32 
       0.204907         2682.62         2167.54 
       0.220756         2441.74         1843.38 
        0.23588         2189.49          1654.5 
         0.2514         1995.26         1491.13 
       0.267535         1906.99         1306.72 
       0.283568         1719.86         1152.21 
       0.299022         1631.95         1045.99 
       0.314451         1703.75         953.626 
       0.330372          1539.9         858.185 
       0.346141         1417.46         776.015 
       0.361624         1355.43         711.899 
       0.377134         1311.39         655.109 
       0.392932         1232.03         600.024 
       0.408854         1194.59         550.589 
       0.424564          1169.9         509.122 
       0.440253            1101         472.149 
       0.455999         1050.15         437.642 
       0.471626         1056.14         406.633 
        0.48727         1001.95         379.157 
       0.502856         983.552         354.371 
       0.518488         939.315          331.45 
       0.534347          914.22         310.165 
       0.550082         878.538         291.057 
       0.565732         855.485         273.672 
       0.581496         835.376         257.517 
       0.597222         826.101         242.652 
       0.612804         801.317         229.123 
       0.628434         771.987         216.608 
       0.644267         752.296         204.871 
       0.660051         741.444         194.026 
       0.675724         729.347         184.026 
       0.691403         698.879         174.721 
       0.707174         684.381         166.006 
       0.722871         683.411         157.919 
        0.73838         656.721         150.455 
       0.754018         649.955         143.416 
       0.769845         635.648         136.749 
        0.78569         621.192           130.5 
       0.801365         604.686         124.701 
       0.817031         594.596         119.258 
       0.832809         583.375         114.104 
       0.848511         568.578         109.277 
       0.864097          561.54         104.762 
       0.879701         563.442         100.497 
       0.895507         544.419         96.4185 
       0.911279         539.341         92.5743 
        0.92691         527.266         88.9709 
       0.942635          517.28          85.539 
       0.958396         508.897         82.2804 
       0.974128         496.865         79.1971 
       0.989692         489.434         76.3017 
        1.00528         478.421         73.5465 
        1.02113         469.812         70.8839 
        1.03692          463.23         68.3626 
        1.05264         457.054         65.9753 
        1.06832          448.01         63.7055 
        1.08405         443.095         61.5362 
        1.09979         432.689         59.4663 
        1.11537         422.698         57.5119 
        1.13105         417.339         55.6335 
        1.14679         410.887         53.8316 
        1.16256         406.166         52.1057 
        1.17828         400.183          50.461 
        1.19395         391.939         48.8926 
         1.2097         383.274         47.3827 
        1.22537         379.076         45.9437 
          1.241         371.482         44.5686 
        1.25666          365.33         43.2462 
        1.27241         364.236         41.9711 
        1.28819         355.228         40.7451 
        1.30392         350.502         39.5714 
        1.31957          343.89         38.4491 
        1.33529         339.595          37.366 
        1.35108         339.253         36.3203 
        1.36674          331.11         35.3219 
         1.3824         323.099         34.3618 
        1.39811         319.851         33.4341 
        1.41389         316.113          32.537 
        1.42964         309.298         31.6742 
        1.44531         305.252         30.8468 
        1.46101         296.487         30.0471 
        1.47667         295.146          29.278 
        1.49229           292.9         28.5378 
        1.50793         285.113         27.8223 
        1.52367         282.252         27.1266 
        1.53953         277.511         26.4499 
        1.55526         271.315         25.8016 
        1.57092         269.618         25.1777 
        1.58662          265.31         24.5728 
        1.60235         260.638         23.9866 
        1.61809         257.179         23.4191 
        1.63369         252.305         22.8749 
        1.64941         250.103         22.3441 
        1.66519         245.997         21.8282 
        1.68085         241.019         21.3321 
        1.69652          238.45         20.8512 
        1.71228           235.3         20.3824 
        1.72806         231.105         19.9276 
        1.74368          228.04         19.4911 
        1.75933         226.035         19.0668 
        1.77505         221.684          18.653 
        1.79081         218.702         18.2508 
         1.8065         216.846         17.8621 
        1.82218         211.278          17.485 
        1.83797         210.022         17.1162 
        1.85367         206.243           16.76 
        1.86928          203.02          16.416 
        1.88497         200.628         16.0798 
        1.90073         198.018         15.7516 
        1.91647         195.471         15.4329 
        1.93218         191.987         15.1237 
        1.94787         188.523         14.8233 
        1.96363         187.662         14.5299 
        1.97935         182.781          14.245 
        1.99499         182.253         13.9693 
        2.01064         178.092         13.7004 
         2.0264         176.973         13.4369 
        2.04216         173.766         13.1804 
        2.05781         171.358         12.9323 
        2.07353         169.628         12.6895 
        2.08928         167.357         12.4525 
        2.10499         165.131         12.2221 
        2.12065         162.701         11.9982 
        2.13633         160.299         11.7797 
        2.15211         158.512         11.5652 
        2.16785         156.559         11.3566 
        2.18349         153.433         11.1544 
        2.19916          153.53         10.9568 
        2.21489          150.14         10.7632 
        2.23063         148.058         10.5741 
         2.2463         146.499         10.3904 
        2.26194         144.433         10.2115 
        2.27765         142.962         10.0359 
        2.29341         141.057         9.86395 
        2.30914         139.358         9.69634 
        2.32486         137.467         9.53271 
        2.34061         134.877         9.37256 
        2.35635         133.265         9.21621 
        2.37203          133.01         9.06395 
        2.38768         129.991         8.91542 
        2.40339         128.519         8.76967 
        2.41914         127.146         8.62682 
        2.43483         125.222         8.48764 
         2.4505         124.124         8.35175 
        2.46622         122.347         8.21835 
        2.48195         120.468         8.08784 
        2.49759         119.232         7.96084 
        2.51328         117.331         7.83623 
        2.52906         116.061         7.71348 
        2.54479         115.027          7.5938 
        2.56049         113.163         7.47688 
        2.57618         112.299         7.36251 
        2.59189         110.562         7.25035 
        2.60758         110.272         7.14069 
        2.62325         107.974         7.03341 
        2.63898         106.354         6.92795 
        2.65468         105.328         6.82487 
        2.67044         104.179         6.72342 
        2.68618         102.802         6.62427 
        2.70184         101.995         6.52749 
        2.71755         100.474          6.4324 
        2.73329          99.305         6.33905 
        2.74897         97.5782         6.24784 
        2.76462         96.9498         6.15862 
        2.78034         95.7613         6.07076 
        2.79607         94.6406         5.98451 
        2.81179         93.8245         5.90003 
        2.82749         92.4047         5.81727 
        2.84321          91.547         5.73599 
        2.85893         90.4421         5.65628 
        2.87462         88.8615         5.57821 
        2.89033         88.2666         5.50153 
        2.90605         87.0891         5.42622 
        2.92176         86.1669         5.35235 
        2.93747         85.0916         5.27989 
        2.95318         84.3642         5.20874 
        2.96891         83.3347         5.13887 
        2.98456         82.4737         5.07057 
        3.00023         81.6294         5.00342 
        3.01596         80.5932         4.93726 
        3.03164         79.8322         4.87248 
        3.04738          78.978         4.80867 
         3.0631         78.1478         4.74601 
        3.07883         77.1236         4.68446 
        3.09456         76.4474         4.62401 
        3.11026         75.5812          4.5647 
        3.12596         74.7665         4.50644 
        3.14163         73.8837         4.44933 
        3.15734         73.0001         4.39306 
        3.17308          72.206         4.33763 
        3.18879         71.5998          4.2833 
        3.20447         70.4933         4.22997 
         3.2202         70.0435         4.17738 
         3.2359          69.424         4.12577 
        3.25157         68.6617         4.07515 
        3.26729         67.9121         4.02523 
        3.28304         67.1138         3.97603 
        3.29877         66.5053         3.92772 
        3.31446         65.7843         3.88031 
        3.33014         65.0564         3.83372 
        3.34585         64.6153         3.78782 
        3.36158         63.8352          3.7426 
        3.37727         63.0682         3.69825 
        3.39294         62.4951         3.65466 
        3.40867         61.8159          3.6116 
        3.42439         61.0449         3.56927 
        3.44008         60.4707         3.52768 
        3.45578         60.0221         3.48673 
        3.47153         59.3569         3.44633 
        3.48724         58.5694         3.40664 
        3.50292         58.2699         3.36766 
        3.51859         57.7596         3.32931 
        3.53431         56.8015         3.29143 
        3.55007         56.4413         3.25405 
        3.56577         55.9044         3.21738 
        3.58146         55.1203          3.1813 
        3.59719         54.8399         3.14568 
        3.61292         54.3366         3.11062 
        3.62859         53.7293         3.07622 
        3.64429          53.154         3.04227 
        3.66003         52.7781         3.00872 
        3.67578         52.0994          2.9757 
        3.69146         51.6402         2.94328 
        3.70712          51.097         2.91141 
        3.72284         50.5713         2.87989 
        3.73853         50.0873         2.84888 
        3.75422         49.7127         2.81832 
        3.76993          49.223         2.78818 
        3.78564         48.7397         2.75849 
        3.80137         48.3647         2.72918 
        3.81707         47.8158         2.70035 
        3.83279           47.17         2.67191 
        3.84853         46.9024         2.64384 
        3.86424         46.5448         2.61622 
        3.87992         46.0652         2.58903 
        3.89561         45.6833         2.56223 
        3.91134         45.2583         2.53574 
        3.92704          44.706         2.50966 
        3.94273         44.1546         2.48398 
        3.95845          43.953          2.4586 
        3.97418         43.5114         2.43356 
        3.98988         43.0463         2.40891 
        4.00554         42.7538         2.38467 
        4.02125         42.2606         2.36068 
        4.03698         41.9238         2.33699 
        4.05268         41.5072         2.31368 
        4.06839         41.1669         2.29066 
         4.0841         40.7573         2.26796 
        4.09983         40.4805         2.24554 
        4.11555          40.052         2.22342 
        4.13124         39.6877         2.20166 
        4.14693         39.2068         2.18017 
        4.16266         39.1021         2.15892 
        4.17839         38.7084         2.13796 
        4.19408         38.3365         2.11733 
        4.20977         37.9982         2.09696 
        4.22551         37.5743          2.0768 
        4.24123         37.2379         2.05693 
        4.25691         36.8759         2.03737 
        4.27259         36.5672         2.01806 
        4.28831         36.3098         1.99896 
        4.30404           35.95         1.98009 
        4.31974         35.6143         1.96149 
        4.33543         35.3029         1.94315 
        4.35116         34.9961         1.92499 
        4.36688         34.7154         1.90708 
        4.38255         34.4262         1.88945 
        4.39825         34.1747         1.87201 
        4.41398         33.8726         1.85476 
         4.4297          33.419         1.83773 
        4.44541         33.2446         1.82093 
        4.46111         33.0454         1.80434 
        4.47683         32.6769         1.78795 
        4.49251         32.4369         1.77179 
        4.50819         32.1197         1.75584 
         4.5239         31.9521         1.74005 
        4.53962          31.652         1.72445 
        4.55535          31.345         1.70902 
        4.57106         31.0296          1.6938 
        4.58678         30.7593         1.67877 
         4.6025         30.4731         1.66391 
        4.61821         30.1781         1.64923 
        4.63391         30.0053         1.63475 
         4.6496         29.7229         1.62045 
        4.66532         29.5846         1.60629 
        4.68103         29.3039         1.59231 
        4.69673         29.0058         1.57851 
        4.71241         28.8288         1.56488 
        4.72811         28.6125         1.55139 
        4.74384         28.3105         1.53804 
        4.75955         28.1589         1.52487 
        4.77525         27.9094         1.51186 
        4.79096         27.7175         1.49898 
        4.80669         27.4236         1.48625 
         4.8224         27.2267         1.47368 
        4.83809         26.9722         1.46126 
        4.85379         26.7496         1.44898 
         4.8695         26.5369         1.43683 
        4.88521         26.2834         1.42483 
        4.90093         26.1435         1.41296 
        4.91663         25.8905         1.40123 
        4.93234         25.7358         1.38962 
        4.94807         25.4764         1.37814 
        4.96377         25.3675         1.36681 
        4.97943         25.0696         1.35562 
        4.99514         24.9116         1.34454 
        5.01086         24.6847         1.33356 
        5.02654         24.4467         1.32274 
        5.04227         24.2978           1.312 
          5.058         24.1421         1.30138 
        5.07371         23.9044          1.2909 
        5.08942         23.7549         1.28052 
        5.10513         23.5335         1.27027 
        5.12084         23.3959         1.26011 
        5.13656         23.1546         1.25007 
        5.15225          23.005         1.24016 
        5.16796         22.8144         1.23033 
        5.18369         22.6334         1.22061 
         5.1994         22.4535           1.211 
        5.21509         22.2534         1.20151 
        5.23079         22.1367          1.1921 
        5.24649         21.9499         1.18281 
        5.26217         21.7739         1.17362 
        5.27788         21.5682         1.16451 
        5.29359         21.3559         1.15549 
        5.30933         21.2753         1.14656 
        5.32504         21.0854         1.13774 
        5.34073         20.9465         1.12902 
        5.35646         20.7922         1.12037 
        5.37218         20.6118         1.11181 
        5.38789          20.497         1.10336 
        5.40357         20.3162           1.095 
        5.41929         20.1609         1.08671 
        5.43502         20.0232          1.0785 
         5.4507         19.8884         1.07039 
        5.46639         19.6948         1.06237 
        5.48212         19.5436         1.05441 
        5.49786         19.3869         1.04652 
        5.51353         19.2305         1.03876 
        5.52921         19.0994         1.03106 
        5.54495         18.9448         1.02342 
        5.56066         18.8118         1.01586 
        5.57637           18.72         1.00838 
        5.59207         18.5733         1.00098 
        5.60778         18.4133        0.993649 
        5.62346         18.3056        0.986403 
        5.63916         18.1502        0.979223 
        5.65487         18.0086        0.972109 
         5.6706         17.8816        0.965058 
        5.68633         17.7417        0.958073 
        5.70203         17.6125        0.951172 
        5.71773         17.5209        0.944339 
        5.73344         17.3578        0.937569 
        5.74916          17.225        0.930859 
        5.76486          17.098        0.924224 
        5.78054          16.966        0.917662 
        5.79626         16.8758        0.911146 
          5.812         16.7472        0.904686 
         5.8277         16.6484        0.898307 
        5.84339         16.4831         0.89199 
        5.85911         16.3716         0.88572 
        5.87484         16.2512        0.879511 
        5.89053          16.151        0.873374 
        5.90623         16.0349        0.867292 
        5.92195         15.9238        0.861257 
        5.93767         15.7707        0.855283 
        5.95336         15.6836        0.849375 
        5.96905          15.602        0.843524 
        5.98476         15.4722         0.83772 
        6.00048          15.374        0.831968 
        6.01617         15.2621        0.826278 
        6.03185         15.1719        0.820647 
        6.04756         15.0301        0.815055 
        6.06331         14.9444        0.809503 
        6.07903         14.8474        0.804013 
        6.09473         14.7129         0.79858 
        6.11044          14.622        0.793191 
        6.12616         14.5264        0.787853 
        6.14186         14.4385        0.782569 
        6.15755         14.3308        0.777333 
        6.17326         14.2347        0.772141 
        6.18898         14.1471        0.766993 
        6.20467         14.0204        0.761901 
        6.22036         13.9494        0.756856 
         6.2361         13.8601        0.751842 
         6.2518         13.7467        0.746882 
        6.26748         13.6345        0.741977 
        6.28319         13.5481        0.737102 
        6.29893         13.4522        0.732266 
        6.31463         13.3975        0.727482 
        6.33033         13.2621        0.722742 
        6.34604         13.1731         0.71804 
        6.36177         13.1065        0.713376 
        6.37747          13.013        0.708761 
