# k  (h/Mpc)    Pcb(k)  (Mpc/h)^3    Pcb_linear(k) (Mpc/h)^3   ShotnoiseSubtracted = true
      0.0200456         22546.8         23052.3 
      0.0350414         15623.7         16356.8 
      0.0492313         11772.5         12034.2 
      0.0637834         10109.9         9905.93 
      0.0800726         7686.55          7500.7 
       0.096163         5311.78         5442.12 
       0.111083         4382.12          4502.7 
       0.126058         3995.09         3930.66 
       0.142273         3362.89          3156.9 
       0.158546         2954.06         2515.29 
        0.17375         2396.42         2205.77 
       0.188953         2328.95         1965.31 
       0.204907         2158.42         1662.51 
       0.220756         1871.08         1413.88 
        0.23588          1680.2         1269.01 
         0.2514         1460.17          1143.7 
       0.267535         1451.22         1002.26 
       0.283568         1313.44          883.75 
       0.299022         1243.64         802.277 
       0.314451         1182.18         731.436 
       0.330372         1083.27         658.232 
       0.346141         1035.17         595.207 
       0.361624         994.033          546.03 
       0.377134         924.339         502.472 
       0.392932         884.662         460.221 
       0.408854         868.247         422.304 
       0.424564         800.862         390.499 
       0.440253         787.001          362.14 
       0.455999         756.634         335.673 
       0.471626         728.936         311.889 
        0.48727         697.215         290.815 
       0.502856         676.581         271.804 
       0.518488         668.833         254.224 
       0.534347         626.286         237.898 
       0.550082          610.19         223.242 
       0.565732         606.817         209.908 
       0.581496         571.439         197.517 
       0.597222         560.486         186.115 
       0.612804         549.121         175.739 
       0.628434         532.501         166.139 
       0.644267         518.305         157.137 
       0.660051         501.811         148.819 
       0.675724         496.499         141.149 
       0.691403         479.234         134.012 
       0.707174         463.103         127.327 
       0.722871         457.446         121.124 
        0.73838         448.672           115.4 
       0.754018         438.239         110.001 
       0.769845         429.061         104.887 
        0.78569          421.07         100.094 
       0.801365         409.861         95.6462 
       0.817031         398.495         91.4712 
       0.832809         394.799         87.5183 
       0.848511         385.497         83.8161 
       0.864097         373.755         80.3529 
       0.879701         368.353         77.0816 
       0.895507         365.042         73.9534 
       0.911279         353.877         71.0049 
        0.92691         349.643         68.2411 
       0.942635         339.713         65.6088 
       0.958396         331.676         63.1095 
       0.974128         326.247         60.7445 
       0.989692          323.23         58.5238 
        1.00528         314.393         56.4105 
        1.02113         312.315         54.3683 
        1.03692         303.372         52.4345 
        1.05264         301.215         50.6034 
        1.06832          292.25         48.8624 
        1.08405         288.353         47.1985 
        1.09979         283.248          45.611 
        1.11537         278.159         44.1119 
        1.13105         272.745         42.6712 
        1.14679         265.843         41.2891 
        1.16256         261.751         39.9653 
        1.17828         260.275         38.7038 
        1.19395         253.467         37.5009 
         1.2097         250.089         36.3428 
        1.22537         244.716          35.239 
          1.241         242.903         34.1843 
        1.25666         238.211           33.17 
        1.27241         234.405          32.192 
        1.28819         230.517         31.2517 
        1.30392         225.339         30.3515 
        1.31957         225.018         29.4906 
        1.33529         220.128         28.6599 
        1.35108         214.876         27.8578 
        1.36674         211.981         27.0921 
         1.3824         211.008         26.3557 
        1.39811         207.108         25.6441 
        1.41389         204.336          24.956 
        1.42964         201.729         24.2943 
        1.44531         198.588         23.6596 
        1.46101         194.911         23.0463 
        1.47667         192.313         22.4564 
        1.49229         190.422         21.8886 
        1.50793          185.47         21.3398 
        1.52367         184.386         20.8062 
        1.53953         181.521         20.2872 
        1.55526         177.347           19.79 
        1.57092         175.983         19.3114 
        1.58662         173.878         18.8475 
        1.60235         170.875         18.3978 
        1.61809         169.223         17.9626 
        1.63369         166.278         17.5452 
        1.64941         162.542          17.138 
        1.66519         161.709         16.7423 
        1.68085         159.196         16.3618 
        1.69652         156.892          15.993 
        1.71228         153.307         15.6334 
        1.72806         151.809         15.2845 
        1.74368         149.763         14.9498 
        1.75933         147.159         14.6243 
        1.77505         145.923          14.307 
        1.79081         144.313         13.9985 
         1.8065         141.637         13.7003 
        1.82218         140.259         13.4111 
        1.83797         138.418         13.1282 
        1.85367         136.429          12.855 
        1.86928         133.947         12.5911 
        1.88497         132.531         12.3332 
        1.90073          131.03         12.0816 
        1.91647         129.246         11.8371 
        1.93218         127.728         11.5999 
        1.94787          125.09         11.3696 
        1.96363         123.523         11.1445 
        1.97935         122.585          10.926 
        1.99499          120.33         10.7145 
        2.01064         119.085         10.5083 
         2.0264         117.605         10.3062 
        2.04216          115.86         10.1095 
        2.05781          114.84          9.9191 
        2.07353         113.518         9.73294 
        2.08928         111.133         9.55112 
        2.10499         110.355         9.37441 
        2.12065         108.301         9.20268 
        2.13633          107.28         9.03509 
        2.15211         105.341         8.87056 
        2.16785         104.052         8.71057 
        2.18349         103.175         8.55551 
        2.19916          101.79         8.40388 
        2.21489         100.531          8.2554 
        2.23063         98.6732          8.1104 
         2.2463         97.9127         7.96951 
        2.26194         96.0839         7.83229 
        2.27765         95.2077         7.69759 
        2.29341         94.0022         7.56569 
        2.30914         93.0797         7.43714 
        2.32486         91.7819         7.31163 
        2.34061         90.5969          7.1888 
        2.35635         89.5288         7.06888 
        2.37203           88.31         6.95209 
        2.38768         87.1721         6.83817 
        2.40339         86.3087         6.72638 
        2.41914         85.0082         6.61681 
        2.43483         84.2496         6.51006 
         2.4505         83.0924         6.40583 
        2.46622         82.1911         6.30351 
        2.48195          80.977         6.20341 
        2.49759         79.7466         6.10601 
        2.51328         79.5232         6.01043 
        2.52906         78.0166         5.91628 
        2.54479         77.1304         5.82448 
        2.56049         76.2446         5.73481 
        2.57618         75.3008         5.64708 
        2.59189         74.4568         5.56105 
        2.60758         73.6089         5.47694 
        2.62325         72.6103         5.39466 
        2.63898         71.5346         5.31377 
        2.65468         70.7809          5.2347 
        2.67044         70.1533          5.1569 
        2.68618         69.3396         5.08084 
        2.70184         68.8487         5.00662 
        2.71755         67.6465         4.93368 
        2.73329         67.0766         4.86208 
        2.74897         66.3005         4.79212 
        2.76462          65.281         4.72369 
        2.78034         64.8192          4.6563 
        2.79607          63.582         4.59015 
        2.81179         63.0041         4.52535 
        2.82749         62.2814         4.46187 
        2.84321         61.7268         4.39953 
        2.85893         60.9878         4.33839 
        2.87462         60.1918         4.27851 
        2.89033         59.4578          4.2197 
        2.90605         58.8106         4.16194 
        2.92176         58.0521         4.10528 
        2.93747         57.6944          4.0497 
        2.95318         56.8749         3.99513 
        2.96891         56.4939         3.94153 
        2.98456         55.9335         3.88915 
        3.00023         54.9768         3.83764 
        3.01596         54.4494          3.7869 
        3.03164         53.7092         3.73721 
        3.04738         53.3959         3.68827 
         3.0631         52.6148         3.64021 
        3.07883         52.2209           3.593 
        3.09456          51.586         3.54663 
        3.11026         50.8215         3.50115 
        3.12596         50.3046         3.45646 
        3.14163         49.8319         3.41266 
        3.15734         49.3185          3.3695 
        3.17308         48.6306         3.32698 
        3.18879          48.378         3.28531 
        3.20447         47.6152         3.24441 
         3.2202         47.3107         3.20407 
         3.2359         46.6416         3.16449 
        3.25157         46.1349         3.12566 
        3.26729         45.7885         3.08737 
        3.28304         45.4044         3.04964 
        3.29877         44.8359         3.01258 
        3.31446         44.0807         2.97622 
        3.33014         43.9383         2.94048 
        3.34585         43.3883         2.90528 
        3.36158         42.9455         2.87059 
        3.37727          42.616         2.83657 
        3.39294         42.1371         2.80314 
        3.40867         41.5921         2.77012 
        3.42439          41.206         2.73764 
        3.44008         40.8307         2.70575 
        3.45578         40.3126         2.67434 
        3.47153         39.9935         2.64335 
        3.48724         39.5487         2.61291 
        3.50292         39.3097         2.58301 
        3.51859         38.7763          2.5536 
        3.53431         38.4973         2.52454 
        3.55007         37.9559         2.49587 
        3.56577         37.6495         2.46775 
        3.58146         37.2708         2.44007 
        3.59719         36.9366         2.41275 
        3.61292         36.5232         2.38586 
        3.62859         36.1732         2.35947 
        3.64429         35.8145         2.33343 
        3.66003         35.5341         2.30771 
        3.67578         35.0591         2.28237 
        3.69146         34.7645         2.25751 
        3.70712         34.3751         2.23307 
        3.72284         34.0356         2.20889 
        3.73853         33.7833         2.18511 
        3.75422         33.2966         2.16167 
        3.76993         33.1279         2.13855 
        3.78564         32.8043         2.11577 
        3.80137         32.4917         2.09329 
        3.81707         32.1156         2.07118 
        3.83279         31.9565         2.04937 
        3.84853         31.5807         2.02784 
        3.86424         31.2984         2.00665 
        3.87992         31.0734          1.9858 
        3.89561         30.7166         1.96524 
        3.91134         30.3549         1.94493 
        3.92704         30.1327         1.92492 
        3.94273         29.8283         1.90522 
        3.95845          29.687         1.88576 
        3.97418         29.2971         1.86656 
        3.98988         29.0638         1.84765 
        4.00554         28.7536         1.82905 
        4.02125         28.5308         1.81066 
        4.03698         28.2879         1.79248 
        4.05268         28.0084          1.7746 
        4.06839          27.688         1.75695 
         4.0841         27.4473         1.73954 
        4.09983         27.2301         1.72234 
        4.11555         26.9605         1.70537 
        4.13124         26.7866         1.68869 
        4.14693         26.4612          1.6722 
        4.16266           26.25          1.6559 
        4.17839         25.9272         1.63983 
        4.19408         25.7887           1.624 
        4.20977         25.5237         1.60838 
        4.22551         25.2344         1.59292 
        4.24123         25.1299         1.57768 
        4.25691         24.8809         1.56268 
        4.27259         24.6616         1.54786 
        4.28831         24.4413         1.53321 
        4.30404         24.3089         1.51873 
        4.31974          23.967         1.50447 
        4.33543         23.7589         1.49041 
        4.35116         23.6455         1.47648 
        4.36688         23.3848         1.46274 
        4.38255         23.2009         1.44922 
        4.39825         22.9585         1.43584 
        4.41398         22.8197         1.42261 
         4.4297         22.5406         1.40955 
        4.44541         22.3674         1.39666 
        4.46111         22.1469         1.38394 
        4.47683          22.004         1.37136 
        4.49251          21.774         1.35897 
        4.50819         21.6535         1.34673 
         4.5239         21.4849         1.33463 
        4.53962         21.2123         1.32266 
        4.55535          21.106         1.31083 
        4.57106         20.9111         1.29915 
        4.58678         20.7173         1.28762 
         4.6025         20.5006         1.27623 
        4.61821         20.3922         1.26497 
        4.63391         20.2124         1.25386 
         4.6496         20.0307         1.24289 
        4.66532         19.8795         1.23203 
        4.68103         19.7241         1.22131 
        4.69673         19.5704         1.21072 
        4.71241         19.4195         1.20027 
        4.72811          19.201         1.18993 
        4.74384         19.1072         1.17969 
        4.75955         18.9229         1.16958 
        4.77525         18.7463          1.1596 
        4.79096         18.6163         1.14973 
        4.80669         18.4467         1.13996 
         4.8224          18.315         1.13032 
        4.83809         18.1885          1.1208 
        4.85379         17.9908         1.11138 
         4.8695          17.883         1.10206 
        4.88521         17.7127         1.09285 
        4.90093         17.5288         1.08374 
        4.91663         17.4355         1.07475 
        4.93234          17.322         1.06585 
        4.94807         17.1272         1.05704 
        4.96377         16.9802         1.04835 
        4.97943         16.9164         1.03977 
        4.99514         16.7407         1.03126 
        5.01086         16.6349         1.02285 
        5.02654         16.4517         1.01455 
        5.04227         16.3875         1.00631 
          5.058         16.2117        0.998165 
        5.07371         16.0866        0.990124 
        5.08942         15.9532        0.982169 
        5.10513         15.8484          0.9743 
        5.12084         15.7073        0.966512 
        5.13656         15.5597        0.958811 
        5.15225         15.4647        0.951206 
        5.16796         15.3559        0.943671 
        5.18369         15.2082        0.936211 
         5.1994           15.16        0.928844 
        5.21509         14.9689        0.921562 
        5.23079         14.9015        0.914349 
        5.24649         14.7712        0.907219 
        5.26217           14.68        0.900169 
        5.27788         14.5223        0.893183 
        5.29359         14.4205         0.88627 
        5.30933         14.3031         0.87942 
        5.32504         14.1844        0.872653 
        5.34073         14.0599        0.865964 
        5.35646         13.9622        0.859331 
        5.37218         13.8791        0.852766 
        5.38789         13.7536         0.84628 
        5.40357         13.6622        0.839868 
        5.41929         13.5585        0.833508 
        5.43502         13.4674        0.827213 
         5.4507         13.3601        0.820998 
        5.46639         13.2626        0.814844 
        5.48212         13.1694         0.80874 
        5.49786         13.0753         0.80269 
        5.51353         12.9584        0.796731 
        5.52921         12.8915        0.790827 
        5.54495         12.7971        0.784965 
        5.56066         12.6965        0.779168 
        5.57637         12.5895         0.77343 
        5.59207         12.5012        0.767754 
        5.60778         12.4031        0.762133 
        5.62346         12.3118        0.756576 
        5.63916          12.239        0.751068 
        5.65487         12.1265        0.745612 
         5.6706         12.0652        0.740204 
        5.68633         11.9596        0.734847 
        5.70203         11.8598        0.729553 
        5.71773         11.8377        0.724313 
        5.73344         11.6638         0.71912 
        5.74916         11.6212        0.713974 
        5.76486          11.564        0.708884 
        5.78054         11.4655        0.703851 
        5.79626         11.3775        0.698853 
          5.812         11.2884        0.693899 
         5.8277         11.2129        0.689006 
        5.84339         11.1262         0.68416 
        5.85911         11.0554        0.679351 
        5.87484         10.9617        0.674589 
        5.89053         10.9076        0.669882 
        5.90623         10.8176        0.665217 
        5.92195          10.735        0.660589 
        5.93767         10.6562        0.656006 
        5.95336         10.5648        0.651474 
        5.96905         10.5081        0.646987 
        5.98476         10.4168        0.642535 
        6.00048         10.3763        0.638123 
        6.01617         10.2899        0.633759 
        6.03185         10.2283         0.62944 
        6.04756          10.152        0.625151 
        6.06331         10.0903        0.620892 
        6.07903              10        0.616682 
        6.09473         9.92067        0.612514 
        6.11044         9.87192        0.608381 
        6.12616         9.78849        0.604287 
        6.14186         9.72235        0.600234 
        6.15755         9.64273        0.596218 
        6.17326         9.58836        0.592236 
        6.18898         9.52576        0.588287 
        6.20467         9.46517        0.584382 
        6.22036         9.38641        0.580512 
         6.2361         9.33471        0.576667 
         6.2518         9.27813        0.572862 
        6.26748         9.22933          0.5691 
        6.28319          9.1723        0.565361 
        6.29893         9.08258        0.561652 
        6.31463         9.02656        0.557982 
        6.33033         8.97227        0.554347 
        6.34604         8.92496         0.55074 
        6.36177         8.84994        0.547163 
        6.37747         8.79201        0.543623 
