# k  (h/Mpc)    Pcb(k)  (Mpc/h)^3    Pcb_linear(k) (Mpc/h)^3   ShotnoiseSubtracted = true
      0.0200456         23433.8         23967.4 
      0.0350414         16224.2         17006.1 
      0.0492313         12227.6         12511.9 
      0.0637834         10510.1         10299.2 
      0.0800726         7990.49         7798.46 
       0.096163         5519.67         5658.15 
       0.111083          4557.2         4681.44 
       0.126058         4153.46         4086.69 
       0.142273         3498.68         3282.22 
       0.158546         3082.48         2615.14 
        0.17375         2500.71         2293.33 
       0.188953         2431.91         2043.33 
       0.204907         2254.67         1728.51 
       0.220756         1956.44         1470.01 
        0.23588         1758.87         1319.38 
         0.2514         1529.58          1189.1 
       0.267535         1521.95         1042.05 
       0.283568          1377.6         918.833 
       0.299022         1305.46         834.125 
       0.314451         1240.89         760.472 
       0.330372         1136.45         684.362 
       0.346141         1090.78         618.835 
       0.361624         1047.46         567.706 
       0.377134         974.918         522.419 
       0.392932         932.195          478.49 
       0.408854         916.554         439.069 
       0.424564         844.368         406.001 
       0.440253         829.343         376.516 
       0.455999         800.061         348.999 
       0.471626         771.255          324.27 
        0.48727         737.816          302.36 
       0.502856         715.304         282.594 
       0.518488         707.928         264.316 
       0.534347         663.335         247.342 
       0.550082         647.549         232.104 
       0.565732         643.183          218.24 
       0.581496         606.606         205.358 
       0.597222         594.366         193.503 
       0.612804          583.14         182.715 
       0.628434         565.864         172.734 
       0.644267         550.897         163.375 
       0.660051         534.104         154.727 
       0.675724         527.996         146.752 
       0.691403         509.869         139.332 
       0.707174         492.765         132.382 
       0.722871         486.425         125.933 
        0.73838         476.959         119.981 
       0.754018         466.596         114.367 
       0.769845         457.109         109.051 
        0.78569         448.224         104.067 
       0.801365         436.306         99.4431 
       0.817031         424.974         95.1023 
       0.832809         420.676         90.9925 
       0.848511         411.057         87.1433 
       0.864097         397.974         83.5427 
       0.879701         392.286         80.1415 
       0.895507         389.295         76.8892 
       0.911279         377.821         73.8236 
        0.92691         373.076         70.9501 
       0.942635         362.209         68.2133 
       0.958396         353.471         65.6147 
       0.974128         347.981         63.1559 
       0.989692         345.135          60.847 
        1.00528         335.041         58.6498 
        1.02113         332.983         56.5265 
        1.03692         323.489          54.516 
        1.05264          320.95         52.6122 
        1.06832         311.374         50.8021 
        1.08405         307.337         49.0722 
        1.09979         302.353         47.4216 
        1.11537         296.468          45.863 
        1.13105         291.156         44.3651 
        1.14679         283.009         42.9281 
        1.16256          278.55         41.5518 
        1.17828         277.388         40.2402 
        1.19395         270.312         38.9895 
         1.2097         265.742         37.7855 
        1.22537           260.3         36.6379 
          1.241         257.866         35.5413 
        1.25666         253.403         34.4868 
        1.27241         249.171         33.4699 
        1.28819         244.812         32.4923 
        1.30392         239.567         31.5563 
        1.31957          238.69         30.6613 
        1.33529         233.971         29.7977 
        1.35108         228.458         28.9637 
        1.36674         224.832         28.1675 
         1.3824         223.676         27.4019 
        1.39811         219.495         26.6621 
        1.41389         216.856         25.9467 
        1.42964         214.072         25.2587 
        1.44531         210.739         24.5989 
        1.46101         206.614         23.9611 
        1.47667          204.09         23.3478 
        1.49229         201.791         22.7575 
        1.50793         196.476         22.1869 
        1.52367         195.468         21.6322 
        1.53953         192.165         21.0926 
        1.55526         188.243         20.5756 
        1.57092         186.467          20.078 
        1.58662         184.199         19.5957 
        1.60235         181.182         19.1282 
        1.61809         179.078         18.6756 
        1.63369         176.461         18.2417 
        1.64941         172.484         17.8184 
        1.66519         171.449         17.4069 
        1.68085         168.779         17.0113 
        1.69652         166.299         16.6279 
        1.71228         162.296          16.254 
        1.72806         160.723         15.8913 
        1.74368         158.402         15.5432 
        1.75933         155.843         15.2048 
        1.77505         154.489         14.8749 
        1.79081         152.726         14.5542 
         1.8065         149.613         14.2442 
        1.82218         148.362         13.9435 
        1.83797         146.395         13.6493 
        1.85367         144.169         13.3653 
        1.86928          141.53          13.091 
        1.88497         140.105         12.8228 
        1.90073         138.375         12.5612 
        1.91647         136.813          12.307 
        1.93218         134.942         12.0604 
        1.94787         131.908         11.8209 
        1.96363         130.251         11.5869 
        1.97935         129.412         11.3597 
        1.99499         127.185         11.1398 
        2.01064         125.674         10.9254 
         2.0264         124.284         10.7153 
        2.04216         122.349         10.5108 
        2.05781         121.134         10.3129 
        2.07353          119.78         10.1193 
        2.08928         117.429         9.93027 
        2.10499         116.488         9.74655 
        2.12065          114.29           9.568 
        2.13633         112.941         9.39375 
        2.15211         111.212          9.2227 
        2.16785         109.928         9.05636 
        2.18349         108.948         8.89514 
        2.19916          107.28         8.73749 
        2.21489         106.133         8.58312 
        2.23063         104.168         8.43236 
         2.2463         103.287         8.28587 
        2.26194         101.442         8.14321 
        2.27765         100.518         8.00317 
        2.29341         99.0875         7.86603 
        2.30914         98.2387         7.73237 
        2.32486         96.7151         7.60188 
        2.34061         95.5201         7.47417 
        2.35635         94.4064         7.34949 
        2.37203          93.242         7.22807 
        2.38768         91.8815         7.10963 
        2.40339         91.0366          6.9934 
        2.41914         89.5733         6.87948 
        2.43483         88.6807         6.76849 
         2.4505          87.651         6.66013 
        2.46622          86.685         6.55375 
        2.48195         85.3468         6.44967 
        2.49759         84.1787          6.3484 
        2.51328         83.7917         6.24902 
        2.52906         82.3734         6.15114 
        2.54479         81.4629          6.0557 
        2.56049         80.4152         5.96246 
        2.57618         79.4973         5.87125 
        2.59189         78.6637         5.78181 
        2.60758          77.604         5.69436 
        2.62325         76.5016         5.60881 
        2.63898         75.5106         5.52471 
        2.65468         74.5937         5.44251 
        2.67044         74.0748         5.36161 
        2.68618         73.2154         5.28254 
        2.70184         72.6016         5.20537 
        2.71755          71.356         5.12954 
        2.73329         70.8266         5.05509 
        2.74897         70.0086         4.98236 
        2.76462         68.8945         4.91121 
        2.78034          68.377         4.84114 
        2.79607         67.1702         4.77237 
        2.81179         66.5075           4.705 
        2.82749         65.8367           4.639 
        2.84321         65.1427         4.57418 
        2.85893         64.3631         4.51061 
        2.87462         63.6358         4.44836 
        2.89033         62.7685         4.38721 
        2.90605         62.0545         4.32716 
        2.92176          61.262         4.26825 
        2.93747         60.8896         4.21046 
        2.95318         60.0741         4.15372 
        2.96891         59.5971           4.098 
        2.98456         59.0381         4.04354 
        3.00023         58.1106         3.98999 
        3.01596          57.413         3.93723 
        3.03164         56.8077         3.88557 
        3.04738          56.216         3.83468 
         3.0631         55.5119         3.78472 
        3.07883         55.1968         3.73563 
        3.09456         54.5392         3.68743 
        3.11026         53.6934         3.64014 
        3.12596         53.1743         3.59368 
        3.14163         52.7166         3.54813 
        3.15734         51.9811         3.50326 
        3.17308         51.3984         3.45905 
        3.18879         51.0426         3.41573 
        3.20447          50.356          3.3732 
         3.2202         49.9602         3.33126 
         3.2359         49.2528         3.29011 
        3.25157         48.7724         3.24974 
        3.26729         48.3728         3.20993 
        3.28304          47.979          3.1707 
        3.29877         47.3769         3.13217 
        3.31446          46.624         3.09436 
        3.33014          46.465         3.05721 
        3.34585         45.7552         3.02061 
        3.36158         45.3788         2.98454 
        3.37727         44.9568         2.94918 
        3.39294         44.4219         2.91441 
        3.40867         43.9301         2.88008 
        3.42439           43.56         2.84632 
        3.44008         43.0578         2.81316 
        3.45578          42.616          2.7805 
        3.47153         42.2104         2.74829 
        3.48724         41.7737         2.71663 
        3.50292         41.4742         2.68555 
        3.51859         40.9088         2.65497 
        3.53431         40.6501         2.62476 
        3.55007         40.1125         2.59495 
        3.56577         39.7783         2.56571 
        3.58146         39.4274         2.53694 
        3.59719         38.9565         2.50853 
        3.61292         38.5874         2.48057 
        3.62859         38.1702         2.45314 
        3.64429         37.8172         2.42607 
        3.66003         37.4957         2.39932 
        3.67578         37.0493         2.37298 
        3.69146         36.7207         2.34713 
        3.70712          36.272         2.32171 
        3.72284         35.9787         2.29657 
        3.73853          35.616         2.27185 
        3.75422         35.1632         2.24748 
        3.76993         34.8832         2.22344 
        3.78564         34.6054         2.19976 
        3.80137          34.274         2.17639 
        3.81707         33.8806          2.1534 
        3.83279         33.5966         2.13072 
        3.84853         33.3255         2.10833 
        3.86424         32.9847         2.08631 
        3.87992         32.7183         2.06463 
        3.89561         32.4036         2.04325 
        3.91134         32.0252         2.02214 
        3.92704         31.7123         2.00134 
        3.94273          31.458         1.98085 
        3.95845         31.3126         1.96061 
        3.97418           30.92         1.94065 
        3.98988          30.669         1.92099 
        4.00554         30.3139         1.90166 
        4.02125         30.1244         1.88253 
        4.03698         29.8562         1.86364 
        4.05268         29.5612         1.84505 
        4.06839         29.2545         1.82669 
         4.0841         28.9838         1.80859 
        4.09983         28.7493         1.79071 
        4.11555         28.4249         1.77307 
        4.13124         28.2701         1.75572 
        4.14693          27.947         1.73859 
        4.16266         27.7222         1.72164 
        4.17839         27.4009         1.70493 
        4.19408         27.2186         1.68847 
        4.20977         26.9445         1.67222 
        4.22551         26.6585         1.65615 
        4.24123         26.4756         1.64031 
        4.25691         26.2408         1.62471 
        4.27259         25.9982         1.60931 
        4.28831         25.7819         1.59408 
        4.30404         25.6005         1.57902 
        4.31974         25.3049          1.5642 
        4.33543         25.0127         1.54957 
        4.35116         24.9136         1.53509 
        4.36688         24.6807          1.5208 
        4.38255         24.4555         1.50675 
        4.39825         24.2419         1.49284 
        4.41398         24.0952         1.47908 
         4.4297         23.7638          1.4655 
        4.44541         23.6274          1.4521 
        4.46111         23.3684         1.43888 
        4.47683         23.2207          1.4258 
        4.49251         22.9645         1.41292 
        4.50819         22.8282          1.4002 
         4.5239         22.6639         1.38761 
        4.53962         22.3941         1.37516 
        4.55535         22.2702         1.36286 
        4.57106         22.0647         1.35073 
        4.58678         21.8587         1.33874 
         4.6025         21.5815         1.32689 
        4.61821         21.5086         1.31518 
        4.63391          21.311         1.30364 
         4.6496         21.1229         1.29223 
        4.66532         20.9637         1.28094 
        4.68103         20.7847         1.26979 
        4.69673         20.6195         1.25879 
        4.71241         20.4951         1.24792 
        4.72811         20.2295         1.23716 
        4.74384         20.1672         1.22652 
        4.75955         19.9202         1.21601 
        4.77525         19.7555         1.20564 
        4.79096         19.6436         1.19537 
        4.80669         19.4418         1.18521 
         4.8224         19.2942         1.17519 
        4.83809         19.1858         1.16529 
        4.85379         18.9812          1.1555 
         4.8695         18.8453         1.14581 
        4.88521         18.6603         1.13623 
        4.90093          18.475         1.12677 
        4.91663         18.3785         1.11741 
        4.93234         18.2532         1.10816 
        4.94807          18.094           1.099 
        4.96377         17.9237         1.08996 
        4.97943         17.8011         1.08105 
        4.99514          17.674          1.0722 
        5.01086         17.5518         1.06345 
        5.02654         17.3563         1.05482 
        5.04227         17.2695         1.04626 
          5.058         17.1151         1.03779 
        5.07371          16.976         1.02943 
        5.08942         16.8212         1.02116 
        5.10513         16.7224         1.01298 
        5.12084         16.5994         1.00488 
        5.13656         16.4457        0.996873 
        5.15225         16.2816        0.988966 
        5.16796         16.2271        0.981132 
        5.18369         16.0593        0.973375 
         5.1994         15.9804        0.965716 
        5.21509          15.831        0.958145 
        5.23079         15.7207        0.950646 
        5.24649         15.6081        0.943233 
        5.26217         15.4915        0.935903 
        5.27788         15.3549         0.92864 
        5.29359         15.2259        0.921452 
        5.30933         15.0771         0.91433 
        5.32504         14.9902        0.907294 
        5.34073         14.8539         0.90034 
        5.35646          14.721        0.893444 
        5.37218         14.6532        0.886619 
        5.38789         14.5279        0.879875 
        5.40357           14.42        0.873209 
        5.41929          14.313        0.866596 
        5.43502         14.2164        0.860051 
         5.4507         14.1135        0.853589 
        5.46639         13.9859        0.847191 
        5.48212         13.9196        0.840844 
        5.49786         13.7815        0.834554 
        5.51353         13.6742        0.828359 
        5.52921         13.5965         0.82222 
        5.54495         13.5007        0.816125 
        5.56066         13.3889        0.810098 
        5.57637         13.2792        0.804133 
        5.59207         13.1903        0.798232 
        5.60778          13.073        0.792388 
        5.62346         12.9933         0.78661 
        5.63916          12.905        0.780884 
        5.65487         12.7857        0.775211 
         5.6706         12.7161        0.769588 
        5.68633         12.6183        0.764018 
        5.70203         12.5234        0.758514 
        5.71773         12.4565        0.753066 
        5.73344         12.3147        0.747667 
        5.74916         12.2487        0.742316 
        5.76486         12.1828        0.737025 
        5.78054         12.1023        0.731792 
        5.79626         11.9865        0.726596 
          5.812         11.9212        0.721444 
         5.8277         11.8163        0.716357 
        5.84339         11.7476        0.711319 
        5.85911         11.6587         0.70632 
        5.87484         11.5657        0.701369 
        5.89053         11.4814        0.696475 
        5.90623         11.4198        0.691625 
        5.92195         11.3213        0.686812 
        5.93767         11.2449        0.682048 
        5.95336         11.1535        0.677336 
        5.96905         11.0761         0.67267 
        5.98476          11.014        0.668042 
        6.00048         10.9329        0.663455 
        6.01617         10.8645        0.658917 
        6.03185         10.7865        0.654427 
        6.04756         10.7039        0.649968 
        6.06331         10.6413         0.64554 
        6.07903         10.5648        0.641163 
        6.09473         10.4779        0.636829 
        6.11044         10.4176        0.632532 
        6.12616         10.3416        0.628275 
        6.14186          10.248        0.624061 
        6.15755         10.1754        0.619886 
        6.17326         10.1216        0.615746 
        6.18898         10.0648        0.611641 
        6.20467         9.98791         0.60758 
        6.22036         9.91442        0.603557 
         6.2361          9.8335        0.599559 
         6.2518          9.7751        0.595603 
        6.26748         9.70948        0.591691 
        6.28319         9.65672        0.587804 
        6.29893         9.56705        0.583948 
        6.31463         9.51255        0.580133 
        6.33033         9.45855        0.576353 
        6.34604         9.39152        0.572603 
        6.36177         9.33628        0.568883 
        6.37747         9.27343        0.565203 
