# k  (h/Mpc)    Pcb(k)  (Mpc/h)^3    Pcb_linear(k) (Mpc/h)^3   ShotnoiseSubtracted = true
      0.0200456         18929.8         19326.6 
      0.0350414         13166.1         13713.2 
      0.0492313         9910.77         10089.2 
      0.0637834         8478.16         8304.92 
      0.0800726          6447.2         6288.43 
       0.096163         4463.93         4562.56 
       0.111083         3671.94         3774.97 
       0.126058          3350.2         3295.38 
       0.142273         2811.62         2646.68 
       0.158546         2437.66         2108.77 
        0.17375          1979.7         1849.27 
       0.188953         1917.33         1647.68 
       0.204907         1773.54         1393.81 
       0.220756         1530.23         1185.37 
        0.23588         1368.29         1063.91 
         0.2514         1187.19         958.855 
       0.267535         1172.12         840.277 
       0.283568         1060.64         740.918 
       0.299022         1000.92         672.612 
       0.314451         950.554          613.22 
       0.330372         872.522         551.848 
       0.346141         817.944         499.009 
       0.361624         785.768          457.78 
       0.377134         728.499         421.262 
       0.392932         698.984          385.84 
       0.408854         680.048         354.051 
       0.424564         631.611         327.386 
       0.440253          620.99         303.611 
       0.455999           589.5         281.421 
       0.471626         564.274         261.481 
        0.48727         540.652         243.813 
       0.502856         525.385         227.875 
       0.518488          518.62         213.136 
       0.534347         484.186         199.449 
       0.550082         467.255         187.162 
       0.565732         466.029         175.982 
       0.581496         436.851         165.594 
       0.597222         430.097         156.035 
       0.612804         419.079         147.336 
       0.628434         404.303         139.287 
       0.644267         393.261          131.74 
       0.660051         380.744         124.767 
       0.675724         376.701         118.336 
       0.691403         364.012         112.353 
       0.707174         351.363         106.749 
       0.722871         346.896         101.548 
        0.73838         341.349         96.7486 
       0.754018         331.598         92.2222 
       0.769845         322.695         87.9354 
        0.78569         319.856         83.9166 
       0.801365         309.558         80.1877 
       0.817031         299.798         76.6875 
       0.832809         297.632         73.3735 
       0.848511          289.35         70.2696 
       0.864097         283.219         67.3662 
       0.879701         278.937         64.6236 
       0.895507         274.047          62.001 
       0.911279         264.912          59.529 
        0.92691         263.225         57.2119 
       0.942635         256.262         55.0051 
       0.958396         251.516         52.9097 
       0.974128          246.89         50.9269 
       0.989692         242.908         49.0651 
        1.00528         238.626         47.2934 
        1.02113         235.935         45.5812 
        1.03692          230.16           43.96 
        1.05264         226.973         42.4248 
        1.06832         221.615         40.9652 
        1.08405         217.822         39.5702 
        1.09979         213.817         38.2393 
        1.11537          210.87         36.9825 
        1.13105         205.137         35.7746 
        1.14679         204.024         34.6159 
        1.16256         200.514         33.5061 
        1.17828          197.37         32.4485 
        1.19395         193.229         31.4399 
         1.2097         192.799          30.469 
        1.22537         188.012         29.5437 
          1.241         186.774         28.6594 
        1.25666         182.633          27.809 
        1.27241         179.931         26.9891 
        1.28819         177.374         26.2007 
        1.30392         173.267          25.446 
        1.31957         173.405         24.7243 
        1.33529         169.006         24.0279 
        1.35108         165.592         23.3554 
        1.36674         164.562         22.7134 
         1.3824         162.908          22.096 
        1.39811         160.977         21.4995 
        1.41389         157.727         20.9226 
        1.42964         155.346         20.3678 
        1.44531         152.978         19.8357 
        1.46101         150.995         19.3215 
        1.47667          148.12         18.8269 
        1.49229         146.652          18.351 
        1.50793         144.013         17.8908 
        1.52367         142.883         17.4435 
        1.53953         140.094         17.0084 
        1.55526         137.619         16.5915 
        1.57092         136.491         16.1903 
        1.58662         134.529         15.8013 
        1.60235         132.273         15.4244 
        1.61809         131.299         15.0594 
        1.63369         128.483         14.7095 
        1.64941         126.329         14.3682 
        1.66519         125.097         14.0364 
        1.68085         124.036         13.7174 
        1.69652         122.104         13.4082 
        1.71228         119.824         13.1067 
        1.72806         118.513         12.8142 
        1.74368          117.43         12.5336 
        1.75933         115.455         12.2607 
        1.77505         113.955         11.9947 
        1.79081         112.993          11.736 
         1.8065         111.499         11.4861 
        1.82218         109.244         11.2436 
        1.83797         107.912         11.0064 
        1.85367          106.91         10.7773 
        1.86928         104.929         10.5562 
        1.88497         103.304         10.3399 
        1.90073         102.118         10.1289 
        1.91647         100.894         9.92401 
        1.93218         99.6272         9.72515 
        1.94787         98.1153           9.532 
        1.96363         96.9666         9.34331 
        1.97935         95.2916         9.16009 
        1.99499         94.2478          8.9828 
        2.01064         93.1072         8.80992 
         2.0264         91.8014         8.64048 
        2.04216          90.883         8.47556 
        2.05781         89.8706         8.31596 
        2.07353         88.8632         8.15989 
        2.08928         86.9652         8.00746 
        2.10499         85.8591         7.85931 
        2.12065         85.0479         7.71534 
        2.13633         84.2517         7.57483 
        2.15211         82.9088         7.43689 
        2.16785         81.6095         7.30276 
        2.18349         80.7759         7.17276 
        2.19916          79.768         7.04564 
        2.21489         78.8245         6.92116 
        2.23063          77.617         6.79959 
         2.2463         76.6396         6.68146 
        2.26194         76.1105         6.56643 
        2.27765         74.7839          6.4535 
        2.29341         74.1154         6.34292 
        2.30914         73.0988         6.23514 
        2.32486         72.4634         6.12992 
        2.34061          71.413         6.02693 
        2.35635          70.013          5.9264 
        2.37203         69.2658         5.82849 
        2.38768          68.605         5.73298 
        2.40339         67.7355         5.63926 
        2.41914         66.7523          5.5474 
        2.43483         66.2136          5.4579 
         2.4505         65.2664         5.37051 
        2.46622         64.3957         5.28473 
        2.48195         63.8294         5.20081 
        2.49759         63.0024         5.11915 
        2.51328         62.4216         5.03901 
        2.52906         61.4734         4.96008 
        2.54479         60.9522         4.88312 
        2.56049          60.102         4.80794 
        2.57618         59.5548         4.73439 
        2.59189         58.6137         4.66227 
        2.60758         57.9094         4.59175 
        2.62325         57.2429         4.52277 
        2.63898         56.6074         4.45495 
        2.65468         56.0272         4.38867 
        2.67044         55.3434         4.32344 
        2.68618          54.793         4.25967 
        2.70184         54.3584         4.19744 
        2.71755         53.5798          4.1363 
        2.73329         52.9651         4.07627 
        2.74897         52.4609         4.01761 
        2.76462         51.7753         3.96024 
        2.78034         51.0907         3.90375 
        2.79607         50.4574         3.84829 
        2.81179         50.0769         3.79396 
        2.82749         49.3354         3.74074 
        2.84321         48.9351         3.68847 
        2.85893         48.2095         3.63722 
        2.87462         47.7602         3.58701 
        2.89033         47.2048         3.53771 
        2.90605         46.5607         3.48928 
        2.92176         46.2648         3.44178 
        2.93747          45.828         3.39518 
        2.95318         45.1865         3.34943 
        2.96891         44.4824          3.3045 
        2.98456         44.1671         3.26059 
        3.00023         43.4191          3.2174 
        3.01596         43.0303         3.17486 
        3.03164         42.6159          3.1332 
        3.04738         42.1214         3.09217 
         3.0631         41.6475         3.05188 
        3.07883         41.2449          3.0123 
        3.09456         40.8514         2.97342 
        3.11026         40.3531         2.93529 
        3.12596         39.9056         2.89783 
        3.14163         39.4442          2.8611 
        3.15734         39.1238         2.82492 
        3.17308          38.734         2.78927 
        3.18879           38.38         2.75433 
        3.20447          37.606         2.72004 
         3.2202         37.5317         2.68623 
         3.2359         37.0859         2.65304 
        3.25157         36.7497         2.62049 
        3.26729         36.2862         2.58838 
        3.28304         35.9356         2.55675 
        3.29877         35.4708         2.52568 
        3.31446         35.0345          2.4952 
        3.33014          34.798         2.46524 
        3.34585         34.5704         2.43572 
        3.36158         34.1885         2.40664 
        3.37727         33.7509         2.37812 
        3.39294         33.4413         2.35009 
        3.40867         33.0312         2.32241 
        3.42439         32.7101         2.29518 
        3.44008         32.3247         2.26844 
        3.45578         31.9886         2.24211 
        3.47153         31.8024         2.21613 
        3.48724         31.4465         2.19061 
        3.50292         31.1572         2.16554 
        3.51859         30.6864         2.14088 
        3.53431         30.3966         2.11652 
        3.55007         30.1361         2.09248 
        3.56577         29.8422         2.06891 
        3.58146         29.5717          2.0457 
        3.59719         29.2411          2.0228 
        3.61292         29.0118         2.00025 
        3.62859         28.7083         1.97813 
        3.64429         28.4436          1.9563 
        3.66003         28.1027         1.93473 
        3.67578         27.7804         1.91349 
        3.69146         27.6327         1.89265 
        3.70712         27.2749         1.87215 
        3.72284         27.0595         1.85188 
        3.73853         26.8454         1.83195 
        3.75422         26.5431          1.8123 
        3.76993         26.2847         1.79291 
        3.78564           26.09         1.77382 
        3.80137           25.74         1.75497 
        3.81707         25.5105         1.73643 
        3.83279         25.3129         1.71815 
        3.84853         25.1278         1.70009 
        3.86424         24.8585         1.68233 
        3.87992         24.6382         1.66485 
        3.89561         24.4543         1.64762 
        3.91134         24.1606         1.63059 
        3.92704         23.9568         1.61382 
        3.94273         23.6855          1.5973 
        3.95845         23.4436         1.58098 
        3.97418         23.2824         1.56488 
        3.98988         23.0416         1.54903 
        4.00554         22.8046         1.53344 
        4.02125         22.6766         1.51802 
        4.03698         22.4095         1.50278 
        4.05268         22.2892         1.48779 
        4.06839         22.0734         1.47299 
         4.0841         21.8009         1.45839 
        4.09983         21.5738         1.44397 
        4.11555         21.4171         1.42975 
        4.13124         21.2002         1.41576 
        4.14693         21.0671         1.40194 
        4.16266         20.8503         1.38827 
        4.17839         20.6134          1.3748 
        4.19408         20.4147         1.36153 
        4.20977         20.2807         1.34843 
        4.22551         20.1203         1.33547 
        4.24123         19.9025         1.32269 
        4.25691         19.7667         1.31011 
        4.27259         19.6131          1.2977 
        4.28831         19.3638         1.28541 
        4.30404         19.2303         1.27328 
        4.31974         19.0799         1.26132 
        4.33543          18.852         1.24952 
        4.35116         18.7381         1.23785 
        4.36688         18.5628         1.22633 
        4.38255         18.4152           1.215 
        4.39825         18.2107         1.20378 
        4.41398         18.0438         1.19268 
         4.4297         17.8771         1.18174 
        4.44541         17.7829         1.17093 
        4.46111         17.6537         1.16026 
        4.47683         17.4527         1.14972 
        4.49251         17.3566         1.13933 
        4.50819         17.1287         1.12907 
         4.5239         17.0355         1.11893 
        4.53962         16.8771         1.10889 
        4.55535         16.7606         1.09897 
        4.57106          16.566         1.08918 
        4.58678          16.433         1.07952 
         4.6025         16.2771         1.06996 
        4.61821          16.196         1.06052 
        4.63391          16.037         1.05121 
         4.6496          15.907         1.04201 
        4.66532         15.7744         1.03291 
        4.68103          15.638         1.02392 
        4.69673         15.4793         1.01504 
        4.71241         15.3529         1.00628 
        4.72811         15.2266        0.997608 
        4.74384           15.11        0.989025 
        4.75955         15.0166        0.980555 
        4.77525         14.8596        0.972188 
        4.79096         14.7808        0.963908 
        4.80669         14.6303         0.95572 
         4.8224         14.4955        0.947636 
        4.83809         14.3947        0.939652 
        4.85379          14.273        0.931756 
         4.8695         14.1857        0.923943 
        4.88521         14.0491        0.916223 
        4.90093         13.9475        0.908589 
        4.91663         13.8201        0.901048 
        4.93234         13.7003        0.893584 
        4.94807         13.5772          0.8862 
        4.96377         13.5027        0.878912 
        4.97943         13.3954        0.871721 
        4.99514         13.2671        0.864591 
        5.01086         13.1549        0.857535 
        5.02654         13.0738        0.850575 
        5.04227         12.9658        0.843671 
          5.058         12.8987        0.836841 
        5.07371          12.756        0.830099 
        5.08942          12.674        0.823429 
        5.10513          12.571        0.816832 
        5.12084         12.4887        0.810303 
        5.13656         12.3635        0.803847 
        5.15225         12.2706        0.797471 
        5.16796         12.1758        0.791154 
        5.18369         12.0815        0.784899 
         5.1994          11.978        0.778723 
        5.21509         11.8981        0.772618 
        5.23079         11.8003        0.766571 
        5.24649          11.725        0.760593 
        5.26217         11.6408        0.754682 
        5.27788         11.5244        0.748826 
        5.29359          11.442         0.74303 
        5.30933         11.3723        0.737287 
        5.32504         11.2501        0.731613 
        5.34073          11.194        0.726006 
        5.35646         11.1196        0.720445 
        5.37218           11.01        0.714941 
        5.38789          10.926        0.709503 
        5.40357         10.8358        0.704128 
        5.41929         10.7656        0.698796 
        5.43502          10.675        0.693518 
         5.4507         10.5949        0.688307 
        5.46639         10.5233        0.683148 
        5.48212         10.4425         0.67803 
        5.49786         10.3922        0.672958 
        5.51353         10.2963        0.667963 
        5.52921         10.2264        0.663012 
        5.54495         10.1567        0.658098 
        5.56066         10.0527        0.653238 
        5.57637         9.97835        0.648427 
        5.59207         9.91824        0.643669 
        5.60778         9.83933        0.638956 
        5.62346         9.78868        0.634297 
        5.63916         9.70725         0.62968 
        5.65487         9.62829        0.625106 
         5.6706         9.56226        0.620571 
        5.68633         9.49571         0.61608 
        5.70203         9.44018        0.611642 
        5.71773         9.36324        0.607248 
        5.73344         9.27987        0.602895 
        5.74916         9.23715         0.59858 
        5.76486         9.15315        0.594313 
        5.78054         9.10203        0.590094 
        5.79626         9.01498        0.585904 
          5.812         8.98237         0.58175 
         5.8277         8.91071        0.577648 
        5.84339         8.82543        0.573585 
        5.85911         8.77185        0.569554 
        5.87484         8.70301        0.565561 
        5.89053         8.64772        0.561615 
        5.90623         8.58466        0.557704 
        5.92195         8.53095        0.553824 
        5.93767         8.47034        0.549982 
        5.95336         8.41882        0.546182 
        5.96905         8.36656         0.54242 
        5.98476         8.29976        0.538688 
        6.00048         8.23013        0.534989 
        6.01617         8.16726         0.53133 
        6.03185         8.12224        0.527709 
        6.04756         8.05471        0.524113 
        6.06331         8.00296        0.520543 
        6.07903         7.95498        0.517013 
        6.09473         7.88969        0.513519 
        6.11044         7.83632        0.510054 
        6.12616          7.7968        0.506621 
        6.14186         7.73076        0.503223 
        6.15755         7.69002        0.499857 
        6.17326         7.63593        0.496518 
        6.18898         7.58214        0.493208 
        6.20467         7.52839        0.489934 
        6.22036         7.49314        0.486689 
         6.2361         7.42606        0.483465 
         6.2518         7.38044        0.480275 
        6.26748         7.32102        0.477121 
        6.28319         7.27181        0.473987 
        6.29893         7.23273        0.470877 
        6.31463         7.17163        0.467801 
        6.33033         7.13939        0.464752 
        6.34604         7.07587        0.461729 
        6.36177         7.03528         0.45873 
        6.37747         6.98821        0.455762 
