# k  (h/Mpc)    Pcb(k)  (Mpc/h)^3    Pcb_linear(k) (Mpc/h)^3   ShotnoiseSubtracted = true
      0.0200456         1093.85         1106.58 
      0.0350414         795.808         785.176 
      0.0492313         579.115         577.675 
      0.0637834         470.329         475.514 
      0.0800726         356.763         360.056 
       0.096163         265.725         261.238 
       0.111083         220.117         216.143 
       0.126058         187.505         188.683 
       0.142273         151.199         151.541 
       0.158546         122.014         120.742 
        0.17375         107.616         105.883 
       0.188953         95.3627         94.3408 
       0.204907         79.0917         79.8055 
       0.220756         68.9741         67.8706 
        0.23588         61.7007         60.9162 
         0.2514         55.6008         54.9011 
       0.267535         49.4934         48.1116 
       0.283568         43.4977         42.4226 
       0.299022         39.7381         38.5117 
       0.314451         36.9892         35.1111 
       0.330372         32.8818         31.5971 
       0.346141         29.8269         28.5717 
       0.361624         27.3165         26.2111 
       0.377134         25.0166         24.1201 
       0.392932         23.7538          22.092 
       0.408854         21.3983         20.2719 
       0.424564         20.3251         18.7451 
       0.440253         18.5642         17.3838 
       0.455999           16.94         16.1133 
       0.471626         15.8434         14.9716 
        0.48727         15.2128           13.96 
       0.502856         14.2449         13.0474 
       0.518488          13.105         12.2035 
       0.534347         12.2356         11.4198 
       0.550082         11.7115         10.7163 
       0.565732         11.1778         10.0762 
       0.581496         10.4807         9.48139 
       0.597222         9.85274         8.93407 
       0.612804         9.27715         8.43598 
       0.628434         8.95099         7.97517 
       0.644267         8.48479         7.54303 
       0.660051         8.01885         7.14375 
       0.675724         7.56805         6.77556 
       0.691403         7.29134         6.43297 
       0.707174         6.92814          6.1121 
       0.722871         6.73714         5.81433 
        0.73838         6.29129         5.53952 
       0.754018         5.99259         5.28036 
       0.769845         5.70356         5.03491 
        0.78569         5.55198          4.8048 
       0.801365         5.29496          4.5913 
       0.817031         5.10502         4.39089 
       0.832809         4.84748         4.20114 
       0.848511         4.69867         4.02342 
       0.864097         4.52123         3.85718 
       0.879701         4.39496         3.70015 
       0.895507         4.19797         3.54998 
       0.911279         4.04006         3.40845 
        0.92691           3.919         3.27578 
       0.942635         3.74511         3.14942 
       0.958396         3.62273         3.02944 
       0.974128         3.52034         2.91592 
       0.989692         3.35806         2.80931 
        1.00528         3.27888         2.70787 
        1.02113         3.17809         2.60984 
        1.03692         3.09174         2.51701 
        1.05264          2.9604         2.42911 
        1.06832         2.88013         2.34554 
        1.08405         2.78742         2.26567 
        1.09979         2.71561         2.18946 
        1.11537         2.63002          2.1175 
        1.13105         2.53779         2.04834 
        1.14679         2.47106           1.982 
        1.16256         2.39014         1.91845 
        1.17828         2.35346          1.8579 
        1.19395         2.26267         1.80015 
         1.2097          2.1958         1.74456 
        1.22537         2.12322         1.69158 
          1.241          2.0795         1.64095 
        1.25666         2.04409         1.59226 
        1.27241         1.98996         1.54531 
        1.28819         1.91076         1.50017 
        1.30392         1.86442         1.45696 
        1.31957         1.83275         1.41564 
        1.33529         1.75805         1.37576 
        1.35108         1.72517         1.33726 
        1.36674           1.679          1.3005 
         1.3824         1.65645         1.26515 
        1.39811         1.60856         1.23099 
        1.41389         1.56474         1.19796 
        1.42964         1.52785          1.1662 
        1.44531         1.49887         1.13573 
        1.46101         1.45899         1.10629 
        1.47667         1.43077         1.07797 
        1.49229         1.38158         1.05072 
        1.50793         1.34748         1.02437 
        1.52367          1.3219         0.99876 
        1.53953         1.28752        0.973846 
        1.55526         1.28077        0.949978 
        1.57092         1.24933        0.927006 
        1.58662         1.23267        0.904735 
        1.60235         1.18909        0.883151 
        1.61809         1.16779        0.862257 
        1.63369         1.13663        0.842221 
        1.64941         1.11897        0.822677 
        1.66519         1.10099         0.80368 
        1.68085         1.07184        0.785416 
        1.69652         1.05075        0.767711 
        1.71228         1.02724        0.750449 
        1.72806         1.00964        0.733703 
        1.74368        0.990923        0.717633 
        1.75933        0.974583         0.70201 
        1.77505        0.956735        0.686777 
        1.79081        0.928111        0.671968 
         1.8065        0.920046        0.657656 
        1.82218        0.895768        0.643772 
        1.83797        0.877739        0.630192 
        1.85367        0.865613        0.617077 
        1.86928        0.848898        0.604413 
        1.88497        0.829225        0.592033 
        1.90073        0.822472        0.579952 
        1.91647        0.799124        0.568218 
        1.93218        0.788014        0.556832 
        1.94787        0.775305        0.545773 
        1.96363        0.763103        0.534969 
        1.97935        0.747236        0.524479 
        1.99499        0.735508        0.514327 
        2.01064        0.722728        0.504429 
         2.0264        0.705578        0.494727 
        2.04216        0.698873        0.485284 
        2.05781        0.685553        0.476146 
        2.07353        0.675162         0.46721 
        2.08928         0.66404        0.458482 
        2.10499        0.652149            0.45 
        2.12065        0.640155        0.441756 
        2.13633        0.631814        0.433711 
        2.15211        0.617367        0.425813 
        2.16785        0.611524        0.418133 
        2.18349        0.600248         0.41069 
        2.19916        0.592432        0.403411 
        2.21489        0.581867        0.396284 
        2.23063        0.570234        0.389323 
         2.2463        0.562951         0.38256 
        2.26194        0.556475        0.375973 
        2.27765        0.546532        0.369507 
        2.29341        0.538412        0.363176 
        2.30914        0.527443        0.357005 
        2.32486        0.521944         0.35098 
        2.34061        0.512589        0.345084 
        2.35635        0.505398        0.339327 
        2.37203        0.499379        0.333721 
        2.38768        0.492279        0.328253 
        2.40339        0.485117        0.322886 
        2.41914        0.478625        0.317627 
        2.43483        0.470963        0.312502 
         2.4505        0.463994        0.307499 
        2.46622        0.457981        0.302587 
        2.48195        0.450675        0.297782 
        2.49759        0.445808        0.293106 
        2.51328        0.436702        0.288518 
        2.52906        0.432388        0.283999 
        2.54479        0.425054        0.279593 
        2.56049        0.420528        0.275288 
        2.57618        0.415421        0.271077 
        2.59189        0.408617        0.266947 
        2.60758        0.404643        0.262909 
        2.62325        0.398236         0.25896 
        2.63898        0.394494        0.255077 
        2.65468        0.386612        0.251281 
        2.67044        0.382481        0.247546 
        2.68618        0.378376        0.243896 
        2.70184        0.372665        0.240333 
        2.71755        0.367621        0.236831 
        2.73329        0.364508        0.233394 
        2.74897        0.358291        0.230036 
        2.76462        0.353675        0.226751 
        2.78034        0.349023        0.223516 
        2.79607        0.345956        0.220341 
        2.81179        0.340409         0.21723 
        2.82749        0.336361        0.214183 
        2.84321        0.331836         0.21119 
        2.85893        0.327964        0.208256 
        2.87462        0.323371        0.205381 
        2.89033        0.321705        0.202558 
        2.90605        0.317101        0.199785 
        2.92176        0.314035        0.197066 
        2.93747        0.309263        0.194398 
        2.95318        0.305879        0.191778 
        2.96891        0.303552        0.189205 
        2.98456        0.298471        0.186691 
        3.00023        0.295432        0.184218 
        3.01596        0.292059        0.181782 
        3.03164        0.288306        0.179397 
        3.04738        0.285451        0.177048 
         3.0631        0.281977        0.174741 
        3.07883        0.279077        0.172475 
        3.09456        0.276392        0.170249 
        3.11026        0.273067        0.168066 
        3.12596        0.269379        0.165921 
        3.14163        0.267792        0.163818 
        3.15734        0.264414        0.161746 
        3.17308         0.26168        0.159705 
        3.18879        0.258806        0.157705 
        3.20447        0.255419        0.155741 
         3.2202        0.253606        0.153805 
         3.2359         0.25025        0.151905 
        3.25157        0.246456        0.150041 
        3.26729        0.245929        0.148203 
        3.28304        0.243066        0.146392 
        3.29877        0.240389        0.144613 
        3.31446        0.238838        0.142867 
        3.33014        0.235109        0.141152 
        3.34585        0.233232        0.139462 
        3.36158        0.231079        0.137797 
        3.37727        0.228849        0.136164 
        3.39294          0.2273        0.134559 
        3.40867        0.223684        0.132974 
        3.42439        0.222535        0.131415 
        3.44008         0.22028        0.129884 
        3.45578        0.217966        0.128376 
        3.47153        0.216427        0.126889 
        3.48724        0.214252        0.125427 
        3.50292        0.212409        0.123992 
        3.51859        0.210334         0.12258 
        3.53431        0.208394        0.121186 
        3.55007        0.206605        0.119809 
        3.56577        0.204876        0.118459 
        3.58146        0.202835        0.117131 
        3.59719        0.201257        0.115819 
        3.61292        0.199844        0.114528 
        3.62859        0.197873        0.113262 
        3.64429        0.195964        0.112012 
        3.66003        0.194172        0.110777 
        3.67578        0.192839        0.109561 
        3.69146         0.19062        0.108367 
        3.70712        0.189732        0.107194 
        3.72284        0.188687        0.106033 
        3.73853        0.187106        0.104892 
        3.75422        0.184824        0.103766 
        3.76993         0.18363        0.102657 
        3.78564        0.181842        0.101563 
        3.80137        0.180148        0.100484 
        3.81707        0.179198       0.0994228 
        3.83279        0.177747       0.0983758 
        3.84853        0.176131       0.0973421 
        3.86424         0.17501       0.0963252 
        3.87992        0.173475       0.0953242 
        3.89561        0.172294       0.0943373 
        3.91134        0.170834       0.0933623 
        3.92704        0.169294       0.0924021 
        3.94273        0.168582       0.0914563 
        3.95845        0.166634       0.0905219 
        3.97418        0.165762       0.0896002 
        3.98988        0.163959       0.0886926 
        4.00554        0.162393       0.0877999 
        4.02125        0.160888       0.0869169 
        4.03698        0.159229       0.0860446 
        4.05268        0.157494       0.0851861 
        4.06839        0.155888       0.0843386 
         4.0841        0.154334       0.0835029 
        4.09983        0.152972       0.0826772 
        4.11555        0.151183        0.081863 
        4.13124        0.149712       0.0810619 
        4.14693        0.147959       0.0802708 
        4.16266        0.146374       0.0794883 
        4.17839        0.145219       0.0787167 
        4.19408        0.143475        0.077957 
        4.20977        0.142696       0.0772069 
        4.22551        0.141307       0.0764648 
        4.24123        0.139645       0.0757332 
        4.25691        0.138813       0.0750131 
        4.27259        0.137468        0.074302 
        4.28831        0.136801       0.0735987 
        4.30404        0.135277       0.0729038 
        4.31974        0.134344       0.0722193 
        4.33543         0.13329       0.0715439 
        4.35116        0.132617       0.0708754 
        4.36688        0.131643       0.0702157 
        4.38255        0.130351       0.0695669 
        4.39825        0.129968       0.0689247 
        4.41398        0.128991       0.0682893 
         4.4297        0.128374       0.0676626 
        4.44541        0.127375       0.0670438 
        4.46111        0.126786       0.0664331 
        4.47683          0.1262       0.0658296 
        4.49251        0.125196       0.0652347 
        4.50819        0.125054       0.0646473 
         4.5239        0.124279       0.0640662 
        4.53962        0.123741       0.0634915 
        4.55535        0.123395       0.0629235 
        4.57106        0.122985       0.0623633 
        4.58678        0.122175       0.0618097 
         4.6025        0.122321       0.0612627 
        4.61821        0.122053       0.0607223 
        4.63391        0.121619       0.0601891 
         4.6496        0.120997       0.0596624 
        4.66532        0.121031       0.0591413 
        4.68103        0.120716       0.0586265 
        4.69673        0.120525       0.0581183 
        4.71241        0.120325       0.0576166 
        4.72811        0.120582         0.05712 
        4.74384        0.120283       0.0566285 
        4.75955        0.120211       0.0561435 
        4.77525        0.120372       0.0556645 
        4.79096        0.120172       0.0551904 
        4.80669        0.119952       0.0547216 
         4.8224        0.120409       0.0542587 
        4.83809        0.120239       0.0538016 
        4.85379        0.120718       0.0533495 
         4.8695        0.120835       0.0529021 
        4.88521        0.120769       0.0524601 
        4.90093        0.121513        0.052023 
        4.91663        0.121517       0.0515912 
        4.93234        0.121674       0.0511639 
        4.94807        0.122265        0.050741 
        4.96377        0.122803       0.0503238 
        4.97943        0.123297        0.049912 
        4.99514        0.122945       0.0495038 
        5.01086        0.124281       0.0490998 
        5.02654        0.124494       0.0487013 
        5.04227        0.124961        0.048306 
          5.058        0.126075       0.0479149 
        5.07371        0.126179       0.0475289 
        5.08942        0.127425        0.047147 
        5.10513        0.127882       0.0467693 
        5.12084        0.128479       0.0463955 
        5.13656        0.129306       0.0460258 
        5.15225        0.130179       0.0456607 
        5.16796        0.131506        0.045299 
        5.18369         0.13204       0.0449409 
         5.1994        0.133213       0.0445872 
        5.21509        0.133693       0.0442377 
        5.23079        0.134844       0.0438915 
        5.24649        0.135996       0.0435492 
        5.26217          0.1373       0.0432108 
        5.27788        0.137896       0.0428754 
        5.29359        0.139436       0.0425436 
        5.30933        0.140716       0.0422148 
        5.32504        0.141984       0.0418899 
        5.34073        0.143341       0.0415688 
        5.35646        0.144397       0.0412504 
        5.37218        0.146361       0.0409353 
        5.38789        0.146741        0.040624 
        5.40357        0.148473       0.0403162 
        5.41929         0.14983       0.0400109 
        5.43502        0.152262       0.0397087 
         5.4507        0.153425       0.0394103 
        5.46639        0.154999        0.039115 
        5.48212        0.156587       0.0388219 
        5.49786        0.158425       0.0385315 
        5.51353         0.16114       0.0382455 
        5.52921        0.161308        0.037962 
        5.54495        0.163811       0.0376806 
        5.56066        0.165878       0.0374024 
        5.57637        0.167863       0.0371269 
        5.59207        0.169693       0.0368545 
        5.60778        0.171943       0.0365847 
        5.62346        0.174475       0.0363179 
        5.63916         0.17555       0.0360535 
        5.65487        0.178313       0.0357916 
         5.6706        0.179319        0.035532 
        5.68633        0.182798       0.0352748 
        5.70203        0.185539       0.0350207 
        5.71773         0.18763       0.0347692 
        5.73344        0.189598       0.0345199 
        5.74916        0.192067       0.0342729 
        5.76486         0.19515       0.0340285 
        5.78054        0.196667        0.033787 
        5.79626        0.199268        0.033547 
          5.812        0.202375       0.0333092 
         5.8277        0.204639       0.0330743 
        5.84339        0.207313       0.0328417 
        5.85911        0.210741       0.0326109 
        5.87484         0.21278       0.0323823 
        5.89053        0.216087       0.0321563 
        5.90623        0.218158       0.0319324 
        5.92195        0.221297       0.0317102 
        5.93767        0.224234       0.0314902 
        5.95336        0.226653       0.0312727 
        5.96905         0.23025       0.0310573 
        5.98476        0.232621       0.0308436 
        6.00048        0.235175       0.0306318 
        6.01617        0.240108       0.0304223 
        6.03185        0.242784        0.030215 
        6.04756        0.244219       0.0300091 
        6.06331        0.247751       0.0298047 
        6.07903        0.253359       0.0296026 
        6.09473        0.255037       0.0294025 
        6.11044        0.258525       0.0292041 
        6.12616        0.261109       0.0290076 
        6.14186        0.264657        0.028813 
        6.15755        0.269426       0.0286202 
        6.17326        0.271287       0.0284291 
        6.18898        0.274459       0.0282395 
        6.20467        0.276066       0.0280521 
        6.22036         0.28144       0.0278663 
         6.2361        0.283002       0.0276817 
         6.2518        0.287633       0.0274991 
        6.26748        0.290369       0.0273185 
        6.28319        0.295246        0.027139 
        6.29893        0.297906        0.026961 
        6.31463        0.301358       0.0267848 
        6.33033        0.304865       0.0266103 
        6.34604        0.309345       0.0264372 
        6.36177         0.31122       0.0262654 
        6.37747        0.314636       0.0260955 
