# k  (h/Mpc)    Pcb(k)  (Mpc/h)^3    Pcb_linear(k) (Mpc/h)^3   ShotnoiseSubtracted = true
      0.0200456         359.784         364.261 
      0.0350414         258.473         258.462 
      0.0492313         190.778         190.158 
      0.0637834         157.116         156.529 
      0.0800726          119.35         118.522 
       0.096163         86.1372         85.9937 
       0.111083         70.7959         71.1494 
       0.126058         62.1198         62.1103 
       0.142273         50.2865         49.8838 
       0.158546         40.1178         39.7454 
        0.17375         34.7118         34.8544 
       0.188953         31.0977         31.0549 
       0.204907         26.8446         26.2702 
       0.220756         22.6055         22.3415 
        0.23588         20.2075         20.0522 
         0.2514         18.1116         18.0722 
       0.267535         15.9619         15.8373 
       0.283568         14.1165         13.9646 
       0.299022         12.8403         12.6772 
       0.314451         11.5458         11.5578 
       0.330372         10.4832         10.4011 
       0.346141         9.48461         9.40517 
       0.361624         8.72902         8.62809 
       0.377134         8.07915         7.93982 
       0.392932         7.23315         7.27219 
       0.408854         6.79072         6.67305 
       0.424564         6.24099         6.17048 
       0.440253         5.78766         5.72237 
       0.455999         5.40249         5.30414 
       0.471626         5.04538         4.92832 
        0.48727         4.67505         4.59532 
       0.502856         4.35237         4.29491 
       0.518488         4.12785         4.01712 
       0.534347         3.89653         3.75915 
       0.550082         3.58453         3.52757 
       0.565732         3.32198         3.31686 
       0.581496         3.19646         3.12106 
       0.597222         3.02689          2.9409 
       0.612804         2.83507         2.77694 
       0.628434         2.71256         2.62525 
       0.644267         2.55441           2.483 
       0.660051         2.40829         2.35156 
       0.675724         2.29166         2.23036 
       0.691403         2.19111         2.11759 
       0.707174         2.07089         2.01197 
       0.722871         1.96361         1.91395 
        0.73838          1.8861         1.82349 
       0.754018         1.81423         1.73818 
       0.769845         1.71848         1.65738 
        0.78569         1.64182         1.58163 
       0.801365         1.56595         1.51135 
       0.817031         1.50324         1.44538 
       0.832809         1.43879         1.38292 
       0.848511         1.36974         1.32442 
       0.864097         1.30732          1.2697 
       0.879701         1.25551         1.21801 
       0.895507         1.21265         1.16858 
       0.911279         1.17273         1.12198 
        0.92691         1.12306         1.07831 
       0.942635          1.0784         1.03672 
       0.958396         1.03366        0.997225 
       0.974128         0.99626        0.959855 
       0.989692        0.966495        0.924764 
        1.00528        0.929405        0.891371 
        1.02113        0.888641        0.859101 
        1.03692        0.866665        0.828544 
        1.05264        0.834746         0.79961 
        1.06832        0.808252          0.7721 
        1.08405        0.772356        0.745808 
        1.09979        0.749029        0.720722 
        1.11537        0.729903        0.697035 
        1.13105        0.706902        0.674269 
        1.14679        0.687375         0.65243 
        1.16256        0.658051        0.631513 
        1.17828        0.638956        0.611579 
        1.19395         0.61801         0.59257 
         1.2097        0.594443        0.574271 
        1.22537        0.583346         0.55683 
          1.241        0.565172        0.540164 
        1.25666        0.554055        0.524136 
        1.27241        0.530741        0.508682 
        1.28819        0.515694        0.493823 
        1.30392        0.503319        0.479599 
        1.31957        0.489557        0.465997 
        1.33529          0.4739         0.45287 
        1.35108        0.460521        0.440196 
        1.36674        0.443771        0.428095 
         1.3824        0.437985        0.416459 
        1.39811        0.423851        0.405216 
        1.41389        0.413874        0.394343 
        1.42964        0.404125        0.383886 
        1.44531        0.390168        0.373858 
        1.46101        0.382749        0.364166 
        1.47667        0.368026        0.354844 
        1.49229        0.363122        0.345873 
        1.50793         0.35148        0.337201 
        1.52367         0.34428        0.328769 
        1.53953        0.334915        0.320568 
        1.55526        0.327457        0.312712 
        1.57092        0.317746         0.30515 
        1.58662        0.311737        0.297819 
        1.60235        0.304758        0.290714 
        1.61809        0.294669        0.283836 
        1.63369         0.29238        0.277241 
        1.64941        0.282999        0.270807 
        1.66519        0.275985        0.264554 
        1.68085        0.268791        0.258541 
        1.69652        0.262971        0.252713 
        1.71228        0.258652        0.247031 
        1.72806        0.250391        0.241519 
        1.74368        0.247498        0.236229 
        1.75933        0.240943        0.231086 
        1.77505        0.235489        0.226072 
        1.79081        0.231261        0.221197 
         1.8065        0.224056        0.216486 
        1.82218         0.22079        0.211916 
        1.83797        0.215452        0.207445 
        1.85367        0.212103        0.203128 
        1.86928        0.207303        0.198959 
        1.88497        0.203129        0.194884 
        1.90073        0.198435        0.190907 
        1.91647        0.194751        0.187045 
        1.93218        0.190098        0.183297 
        1.94787        0.186392        0.179656 
        1.96363         0.18294          0.1761 
        1.97935         0.17828        0.172647 
        1.99499        0.175483        0.169305 
        2.01064        0.172116        0.166047 
         2.0264        0.168169        0.162853 
        2.04216        0.166355        0.159745 
        2.05781        0.162425        0.156737 
        2.07353        0.158253        0.153795 
        2.08928        0.155271        0.150922 
        2.10499        0.152647         0.14813 
        2.12065        0.150519        0.145416 
        2.13633        0.147191        0.142768 
        2.15211         0.14507        0.140168 
        2.16785         0.14175         0.13764 
        2.18349        0.138461         0.13519 
        2.19916        0.137252        0.132794 
        2.21489        0.134385        0.130448 
        2.23063        0.132229        0.128157 
         2.2463        0.129551         0.12593 
        2.26194        0.126713        0.123762 
        2.27765        0.124681        0.121634 
        2.29341        0.122796        0.119549 
        2.30914        0.120399        0.117518 
        2.32486        0.118305        0.115535 
        2.34061        0.116425        0.113594 
        2.35635        0.114018        0.111699 
        2.37203        0.112262        0.109854 
        2.38768        0.110229        0.108053 
        2.40339        0.108602        0.106287 
        2.41914        0.107121        0.104556 
        2.43483        0.104994        0.102869 
         2.4505        0.102677        0.101222 
        2.46622        0.101036        0.099605 
        2.48195       0.0994987       0.0980233 
        2.49759        0.098581       0.0964841 
        2.51328       0.0968402       0.0949738 
        2.52906       0.0951665       0.0934861 
        2.54479       0.0932658       0.0920356 
        2.56049       0.0916843       0.0906186 
        2.57618       0.0902783       0.0892324 
        2.59189        0.089125        0.087873 
        2.60758       0.0879992       0.0865439 
        2.62325       0.0862199       0.0852437 
        2.63898        0.084958       0.0839656 
        2.65468       0.0832965       0.0827162 
        2.67044       0.0824699       0.0814868 
        2.68618       0.0811267        0.080285 
        2.70184       0.0796191       0.0791121 
        2.71755       0.0782397       0.0779596 
        2.73329       0.0773622       0.0768282 
        2.74897       0.0764083       0.0757228 
        2.76462       0.0749834       0.0746414 
        2.78034       0.0739391       0.0735766 
        2.79607       0.0726415       0.0725313 
        2.81179       0.0719733       0.0715074 
        2.82749       0.0706243       0.0705043 
        2.84321        0.069705       0.0695192 
        2.85893        0.068857       0.0685531 
        2.87462       0.0680448       0.0676069 
        2.89033       0.0668062       0.0666776 
        2.90605       0.0656324       0.0657649 
        2.92176       0.0650269       0.0648696 
        2.93747       0.0638509       0.0639914 
        2.95318       0.0629814       0.0631291 
        2.96891       0.0621176       0.0622822 
        2.98456       0.0613865       0.0614545 
        3.00023       0.0604257       0.0606406 
        3.01596       0.0596276       0.0598387 
        3.03164       0.0591004       0.0590536 
        3.04738        0.057982       0.0582802 
         3.0631       0.0572269       0.0575208 
        3.07883        0.056428       0.0567749 
        3.09456       0.0557817       0.0560422 
        3.11026       0.0549211       0.0553235 
        3.12596       0.0543468       0.0546173 
        3.14163       0.0535504       0.0539251 
        3.15734       0.0529512       0.0532432 
        3.17308       0.0522685       0.0525713 
        3.18879       0.0515279       0.0519129 
        3.20447       0.0508958       0.0512665 
         3.2202       0.0504117       0.0506292 
         3.2359       0.0497039       0.0500037 
        3.25157       0.0489334       0.0493902 
        3.26729       0.0482737       0.0487851 
        3.28304       0.0479467       0.0481889 
        3.29877       0.0472517       0.0476033 
        3.31446       0.0466416       0.0470287 
        3.33014        0.046259        0.046464 
        3.34585       0.0456051       0.0459077 
        3.36158       0.0450486       0.0453596 
        3.37727       0.0445831       0.0448221 
        3.39294       0.0440689       0.0442938 
        3.40867       0.0434796        0.043772 
        3.42439       0.0429899       0.0432589 
        3.44008       0.0423942       0.0427549 
        3.45578       0.0421347       0.0422586 
        3.47153       0.0415171        0.041769 
        3.48724       0.0412164       0.0412879 
        3.50292       0.0406174       0.0408155 
        3.51859       0.0401241       0.0403507 
        3.53431       0.0397682       0.0398916 
        3.55007       0.0393937       0.0394385 
        3.56577       0.0389293       0.0389942 
        3.58146       0.0385459       0.0385568 
        3.59719       0.0382594       0.0381251 
        3.61292       0.0377615       0.0377002 
        3.62859       0.0372851       0.0372832 
        3.64429       0.0369358       0.0368718 
        3.66003       0.0365392       0.0364652 
        3.67578       0.0361647       0.0360649 
        3.69146       0.0357975       0.0356721 
        3.70712       0.0355993       0.0352858 
        3.72284       0.0352631       0.0349038 
        3.73853       0.0348042        0.034528 
        3.75422       0.0345782       0.0341576 
        3.76993       0.0340598       0.0337923 
        3.78564       0.0338359       0.0334324 
        3.80137       0.0334557       0.0330771 
        3.81707       0.0331468       0.0327278 
        3.83279       0.0329361       0.0323831 
        3.84853       0.0326111       0.0320429 
        3.86424       0.0323098       0.0317081 
        3.87992       0.0319795       0.0313786 
        3.89561       0.0316662       0.0310538 
        3.91134       0.0314088       0.0307328 
        3.92704       0.0311083       0.0304167 
        3.94273       0.0307766       0.0301054 
        3.95845       0.0305608       0.0297978 
        3.97418       0.0302489       0.0294944 
        3.98988       0.0299434       0.0291956 
        4.00554       0.0296547       0.0289018 
        4.02125       0.0293211       0.0286111 
        4.03698       0.0289012       0.0283239 
        4.05268       0.0286041       0.0280414 
        4.06839        0.028233       0.0277624 
         4.0841       0.0278326       0.0274873 
        4.09983       0.0274602       0.0272155 
        4.11555       0.0271703       0.0269475 
        4.13124       0.0268395       0.0266838 
        4.14693       0.0264316       0.0264233 
        4.16266       0.0261424       0.0261658 
        4.17839       0.0258817       0.0259118 
        4.19408       0.0255658       0.0256617 
        4.20977       0.0252623       0.0254148 
        4.22551       0.0249477       0.0251705 
        4.24123       0.0247172       0.0249297 
        4.25691       0.0244441       0.0246926 
        4.27259       0.0241684       0.0244586 
        4.28831       0.0239983       0.0242271 
        4.30404       0.0237665       0.0239983 
        4.31974       0.0235785        0.023773 
        4.33543        0.023397       0.0235507 
        4.35116       0.0231599       0.0233306 
        4.36688       0.0229992       0.0231135 
        4.38255       0.0227654       0.0228999 
        4.39825        0.022675       0.0226885 
        4.41398       0.0226004       0.0224793 
         4.4297       0.0224248        0.022273 
        4.44541       0.0222662       0.0220693 
        4.46111       0.0221482       0.0218683 
        4.47683        0.022058       0.0216696 
        4.49251        0.021898       0.0214738 
        4.50819        0.021822       0.0212804 
         4.5239        0.021733       0.0210892 
        4.53962       0.0216899          0.0209 
        4.55535       0.0216426        0.020713 
        4.57106       0.0215994       0.0205286 
        4.58678       0.0214877       0.0203464 
         4.6025       0.0215017       0.0201663 
        4.61821       0.0215172       0.0199884 
        4.63391       0.0214907       0.0198129 
         4.6496       0.0213997       0.0196395 
        4.66532       0.0214821        0.019468 
        4.68103       0.0214783       0.0192985 
        4.69673       0.0214809       0.0191313 
        4.71241       0.0215449       0.0189661 
        4.72811       0.0215502       0.0188026 
        4.74384        0.021622       0.0186408 
        4.75955       0.0217185       0.0184812 
        4.77525       0.0218054       0.0183235 
        4.79096       0.0217707       0.0181674 
        4.80669       0.0218569       0.0180131 
         4.8224       0.0220529       0.0178607 
        4.83809        0.022171       0.0177103 
        4.85379       0.0222503       0.0175615 
         4.8695       0.0224289       0.0174142 
        4.88521       0.0225442       0.0172687 
        4.90093        0.022798       0.0171248 
        4.91663       0.0229231       0.0169827 
        4.93234       0.0230301        0.016842 
        4.94807       0.0231589       0.0167028 
        4.96377       0.0234837       0.0165655 
        4.97943       0.0237166       0.0164299 
        4.99514       0.0237644       0.0162955 
        5.01086       0.0240772       0.0161626 
        5.02654       0.0242659       0.0160314 
        5.04227       0.0245682       0.0159013 
          5.058       0.0248666       0.0157725 
        5.07371       0.0250162       0.0156454 
        5.08942       0.0254298       0.0155197 
        5.10513       0.0258402       0.0153954 
        5.12084       0.0260138       0.0152724 
        5.13656       0.0263587       0.0151507 
        5.15225       0.0266736       0.0150305 
        5.16796       0.0270229       0.0149114 
        5.18369       0.0273997       0.0147935 
         5.1994       0.0278031       0.0146771 
        5.21509        0.028113       0.0145621 
        5.23079       0.0285728       0.0144481 
        5.24649       0.0289902       0.0143354 
        5.26217       0.0293993        0.014224 
        5.27788       0.0299378       0.0141136 
        5.29359       0.0304182       0.0140044 
        5.30933       0.0308085       0.0138962 
        5.32504       0.0313683       0.0137892 
        5.34073       0.0319322       0.0136835 
        5.35646       0.0323695       0.0135787 
        5.37218       0.0329526        0.013475 
        5.38789       0.0337223       0.0133725 
        5.40357       0.0341504       0.0132712 
        5.41929       0.0348357       0.0131707 
        5.43502       0.0353423       0.0130712 
         5.4507       0.0359878        0.012973 
        5.46639       0.0367897       0.0128758 
        5.48212        0.037431       0.0127793 
        5.49786       0.0382557       0.0126837 
        5.51353       0.0390427       0.0125896 
        5.52921       0.0396311       0.0124963 
        5.54495       0.0406649       0.0124036 
        5.56066       0.0413873        0.012312 
        5.57637        0.042087       0.0122214 
        5.59207       0.0431624       0.0121317 
        5.60778       0.0440132       0.0120429 
        5.62346       0.0449185        0.011955 
        5.63916       0.0458867        0.011868 
        5.65487       0.0467757       0.0117818 
         5.6706        0.047639       0.0116963 
        5.68633       0.0489624       0.0116117 
        5.70203       0.0498067        0.011528 
        5.71773       0.0510667       0.0114452 
        5.73344       0.0520136       0.0113632 
        5.74916       0.0534685       0.0112819 
        5.76486       0.0545275       0.0112014 
        5.78054       0.0556416       0.0111219 
        5.79626       0.0568739       0.0110429 
          5.812       0.0583904       0.0109646 
         5.8277       0.0594598       0.0108873 
        5.84339       0.0608861       0.0108108 
        5.85911       0.0623991       0.0107348 
        5.87484       0.0636457       0.0106595 
        5.89053       0.0653124       0.0105851 
        5.90623       0.0672146       0.0105114 
        5.92195       0.0686471       0.0104383 
        5.93767       0.0703128       0.0103659 
        5.95336       0.0716661       0.0102943 
        5.96905       0.0740495       0.0102234 
        5.98476        0.075438        0.010153 
        6.00048       0.0767339       0.0100833 
        6.01617       0.0791098       0.0100143 
        6.03185       0.0811306       0.0099461 
        6.04756       0.0832403      0.00987833 
        6.06331       0.0848837      0.00981104 
        6.07903       0.0871754      0.00974451 
        6.09473       0.0895535      0.00967865 
        6.11044       0.0918968      0.00961334 
        6.12616       0.0943304      0.00954865 
        6.14186       0.0967516       0.0094846 
        6.15755       0.0992099      0.00942114 
        6.17326        0.101745      0.00935822 
        6.18898        0.104053      0.00929583 
        6.20467        0.107164      0.00923412 
        6.22036        0.109185      0.00917297 
         6.2361        0.112353       0.0091122 
         6.2518        0.114846      0.00905208 
        6.26748        0.117706      0.00899264 
        6.28319        0.121642      0.00893355 
        6.29893        0.124315      0.00887495 
        6.31463        0.127495      0.00881696 
        6.33033        0.130396      0.00875951 
        6.34604        0.134886      0.00870253 
        6.36177        0.137091      0.00864599 
        6.37747        0.142007      0.00859006 
