# k  (h/Mpc)    Pcb(k)  (Mpc/h)^3    Pcb_linear(k) (Mpc/h)^3   ShotnoiseSubtracted = true
      0.0200456         3386.31         3430.61 
      0.0350414         2538.11         2493.94 
      0.0492313          1813.2         1812.05 
      0.0637834         1479.33         1506.34 
      0.0800726         1169.75         1195.54 
       0.096163         887.746         867.471 
       0.111083         715.796         691.917 
       0.126058         609.452         613.179 
       0.142273          517.19         519.498 
       0.158546         419.249         410.294 
        0.17375         360.223         345.673 
       0.188953         325.612         312.999 
       0.204907         277.794          276.94 
       0.220756         245.299         234.308 
        0.23588         214.987         203.828 
         0.2514          194.04         185.175 
       0.267535         181.334         167.552 
       0.283568         158.789         147.758 
       0.299022          146.31         131.645 
       0.314451         139.068         120.315 
       0.330372         123.177         110.375 
       0.346141         113.012         100.182 
       0.361624         104.604          91.052 
       0.377134         95.5572         83.7822 
       0.392932         92.6972          77.522 
       0.408854         85.5354         71.4603 
       0.424564         81.5304          65.866 
       0.440253         74.2644         61.0654 
       0.455999           68.19         56.8911 
       0.471626         64.9556          53.055 
        0.48727          63.114         49.4665 
       0.502856         58.5367         46.2428 
       0.518488         55.4877         43.3664 
       0.534347          52.336         40.6923 
       0.550082         50.4167         38.2267 
       0.565732         48.6406         35.9711 
       0.581496         45.3961         33.9051 
       0.597222         43.2722         32.0105 
       0.612804         41.4978         30.2683 
       0.628434         40.6901         28.6444 
       0.644267         38.4654         27.1262 
       0.660051         36.7157         25.7269 
       0.675724         35.1786         24.4349 
       0.691403         34.5613         23.2305 
       0.707174         33.2556         22.1005 
       0.722871         32.1442         21.0501 
        0.73838         30.5825         20.0793 
       0.754018         29.0203         19.1624 
       0.769845         28.4638         18.2927 
        0.78569         27.4796         17.4763 
       0.801365         26.5971         16.7178 
       0.817031         25.5794         16.0051 
       0.832809         25.0055         15.3296 
       0.848511         24.1779         14.6963 
       0.864097         23.4838         14.1033 
       0.879701         23.1021         13.5426 
       0.895507         22.2209         13.0059 
       0.911279         21.3946         12.4995 
        0.92691         21.0327         12.0244 
       0.942635         20.5543         11.5716 
       0.958396         19.9366         11.1411 
       0.974128         19.4147         10.7335 
       0.989692          18.603         10.3503 
        1.00528         18.4798         9.98541 
        1.02113         17.8931         9.63243 
        1.03692         17.5155         9.29789 
        1.05264         17.1579         8.98084 
        1.06832         16.8173         8.67913 
        1.08405         16.3333         8.39053 
        1.09979         15.9977         8.11494 
        1.11537         15.5594         7.85451 
        1.13105         15.3289         7.60399 
        1.14679         14.9532         7.36348 
        1.16256         14.6795         7.13294 
        1.17828         14.3939         6.91307 
        1.19395         14.1665         6.70324 
         1.2097         13.7585         6.50108 
        1.22537         13.5336         6.30827 
          1.241         13.2212         6.12388 
        1.25666         13.1063         5.94644 
        1.27241         12.8497         5.77521 
        1.28819         12.3424         5.61046 
        1.30392         12.4089         5.45264 
        1.31957          12.062         5.30161 
        1.33529         11.9026         5.15577 
        1.35108         11.7035         5.01485 
        1.36674         11.4337         4.88022 
         1.3824          11.272         4.75068 
        1.39811         11.0858         4.62541 
        1.41389         10.8862          4.5042 
        1.42964         10.7348         4.38755 
        1.44531         10.5574         4.27562 
        1.46101          10.423         4.16736 
        1.47667         10.2345         4.06318 
        1.49229         9.99304         3.96285 
        1.50793         9.90764          3.8658 
        1.52367          9.7649         3.77139 
        1.53953         9.58736         3.67951 
        1.55526         9.44911         3.59143 
        1.57092         9.36402          3.5066 
        1.58662          9.1952         3.42432 
        1.60235         9.08899         3.34452 
        1.61809         8.96455         3.26723 
        1.63369         8.78761         3.19308 
        1.64941         8.67603          3.1207 
        1.66519         8.56642         3.05031 
        1.68085         8.41825          2.9826 
        1.69652         8.37267         2.91693 
        1.71228         8.26619         2.85286 
        1.72806         8.10851         2.79068 
        1.74368         8.03184         2.73097 
        1.75933         7.93841          2.6729 
        1.77505         7.79404         2.61624 
        1.79081         7.72961         2.56113 
         1.8065         7.67758         2.50785 
        1.82218         7.56291         2.45613 
        1.83797         7.43693         2.40552 
        1.85367         7.35443         2.35662 
        1.86928           7.273         2.30937 
        1.88497         7.19345         2.26316 
        1.90073         7.09318         2.21805 
        1.91647         6.94425         2.17421 
        1.93218         6.92449         2.13165 
        1.94787          6.8179          2.0903 
        1.96363         6.76004         2.04987 
        1.97935          6.7253         2.01061 
        1.99499         6.62506         1.97259 
        2.01064         6.54296          1.9355 
         2.0264         6.47879         1.89914 
        2.04216         6.43952         1.86373 
        2.05781         6.35773         1.82945 
        2.07353         6.27673          1.7959 
        2.08928         6.17224         1.76313 
        2.10499         6.12891         1.73126 
        2.12065          6.1255         1.70028 
        2.13633         6.03483         1.67003 
        2.15211         5.95897         1.64032 
        2.16785         5.86917         1.61142 
        2.18349         5.87045          1.5834 
        2.19916         5.78703         1.55598 
        2.21489         5.73335         1.52913 
        2.23063         5.67763         1.50289 
         2.2463         5.60188         1.47738 
        2.26194         5.54138         1.45253 
        2.27765         5.48664         1.42813 
        2.29341         5.41182         1.40422 
        2.30914         5.40589         1.38091 
        2.32486         5.33337         1.35814 
        2.34061         5.29732         1.33585 
        2.35635         5.23706         1.31408 
        2.37203         5.20705         1.29287 
        2.38768         5.16196         1.27217 
        2.40339         5.10199         1.25185 
        2.41914         5.06687         1.23193 
        2.43483         5.01285         1.21251 
         2.4505         4.95758         1.19355 
        2.46622         4.91448         1.17492 
        2.48195         4.90596         1.15669 
        2.49759         4.81643         1.13895 
        2.51328         4.79675         1.12153 
        2.52906         4.74105         1.10436 
        2.54479         4.70783         1.08762 
        2.56049         4.67115         1.07126 
        2.57618         4.63364         1.05525 
        2.59189         4.63262         1.03954 
        2.60758         4.56647         1.02418 
        2.62325         4.49467         1.00915 
        2.63898         4.49949        0.994365 
        2.65468         4.44227        0.979909 
        2.67044          4.4174        0.965678 
        2.68618         4.37955        0.951763 
        2.70184          4.3567        0.938178 
        2.71755         4.29673        0.924824 
        2.73329         4.27025         0.91171 
        2.74897         4.24055        0.898892 
        2.76462         4.20263         0.88635 
        2.78034         4.17677        0.873995 
        2.79607         4.13591        0.861863 
        2.81179         4.10672        0.849975 
        2.82749         4.06158        0.838325 
        2.84321         4.04726         0.82688 
        2.85893         4.00981        0.815653 
        2.87462         3.98517        0.804653 
        2.89033         3.96645        0.793846 
        2.90605         3.92734        0.783228 
        2.92176         3.87884         0.77281 
        2.93747         3.86441        0.762586 
        2.95318         3.82774        0.752546 
        2.96891         3.81345        0.742681 
        2.98456         3.77857        0.733037 
        3.00023         3.76207        0.723551 
        3.01596         3.71912        0.714202 
        3.03164         3.69325        0.705046 
        3.04738         3.67891        0.696023 
         3.0631         3.65676        0.687162 
        3.07883         3.62172        0.678454 
        3.09456         3.58225        0.669899 
        3.11026         3.57233        0.661504 
        3.12596         3.54896        0.653254 
        3.14163         3.52066        0.645164 
        3.15734         3.49403        0.637192 
        3.17308          3.4701        0.629335 
        3.18879         3.45512        0.621632 
        3.20447         3.42804         0.61407 
         3.2202         3.40128         0.60661 
         3.2359         3.38043        0.599287 
        3.25157         3.36195        0.592102 
        3.26729         3.33658        0.585013 
        3.28304         3.30943        0.578027 
        3.29877         3.28776        0.571164 
        3.31446         3.27289        0.564427 
        3.33014         3.24342        0.557805 
        3.34585         3.23446        0.551278 
        3.36158         3.20105        0.544847 
        3.37727         3.19002        0.538538 
        3.39294         3.16766        0.532335 
        3.40867         3.14975        0.526207 
        3.42439         3.11134        0.520179 
        3.44008         3.10235        0.514257 
        3.45578         3.08371        0.508423 
        3.47153         3.06417        0.502667 
        3.48724         3.05094         0.49701 
        3.50292         3.02519        0.491453 
        3.51859         3.00522        0.485983 
        3.53431         2.98544         0.48058 
        3.55007         2.97735        0.475246 
        3.56577         2.94701        0.470014 
        3.58146         2.93477        0.464863 
        3.59719         2.92306        0.459777 
        3.61292         2.89837        0.454769 
        3.62859         2.88797        0.449854 
        3.64429         2.85918        0.445002 
        3.66003         2.85195        0.440208 
        3.67578         2.83237        0.435485 
        3.69146         2.80788         0.43085 
        3.70712         2.79644         0.42629 
        3.72284         2.77894         0.42178 
        3.73853         2.76381        0.417343 
        3.75422         2.74193        0.412967 
        3.76993         2.72657        0.408651 
        3.78564         2.70932        0.404398 
        3.80137         2.69308        0.400199 
        3.81707         2.68188        0.396068 
        3.83279         2.66085        0.391992 
        3.84853         2.64504        0.387967 
        3.86424         2.62757        0.384007 
        3.87992         2.61225        0.380107 
        3.89561         2.59942        0.376261 
        3.91134         2.58374        0.372461 
        3.92704         2.56272        0.368717 
        3.94273         2.54749        0.365029 
        3.95845         2.53563        0.361384 
        3.97418         2.52178        0.357789 
        3.98988          2.5063        0.354247 
        4.00554         2.49364        0.350762 
        4.02125         2.46939        0.347315 
        4.03698         2.46346        0.343908 
        4.05268         2.44327        0.340555 
        4.06839         2.43108        0.337244 
         4.0841         2.41408        0.333978 
        4.09983         2.39623        0.330751 
        4.11555         2.38423        0.327568 
        4.13124         2.37165        0.324435 
        4.14693         2.35391        0.321341 
        4.16266          2.3472         0.31828 
        4.17839         2.32674         0.31526 
        4.19408         2.31002        0.312287 
        4.20977         2.29769         0.30935 
        4.22551          2.2865        0.306444 
        4.24123          2.2732        0.303579 
        4.25691         2.25971        0.300758 
        4.27259         2.24327        0.297972 
        4.28831         2.22951        0.295215 
        4.30404         2.22312        0.292491 
        4.31974          2.2089        0.289807 
        4.33543         2.18476        0.287158 
        4.35116         2.18227        0.284536 
        4.36688         2.16771        0.281948 
        4.38255         2.15673        0.279402 
        4.39825         2.14173        0.276881 
        4.41398         2.13298        0.274387 
         4.4297         2.11877        0.271926 
        4.44541         2.10354        0.269495 
        4.46111         2.09778        0.267096 
        4.47683          2.0865        0.264725 
        4.49251         2.07064        0.262387 
        4.50819          2.0609        0.260078 
         4.5239         2.05064        0.257793 
        4.53962         2.03922        0.255533 
        4.55535         2.02748        0.253299 
        4.57106         2.01627        0.251095 
        4.58678         2.00091        0.248916 
         4.6025         1.99248        0.246763 
        4.61821         1.98742        0.244636 
        4.63391          1.9744        0.242537 
         4.6496         1.96554        0.240463 
        4.66532         1.95497         0.23841 
        4.68103         1.94058        0.236382 
        4.69673         1.93169        0.234379 
        4.71241         1.92337        0.232402 
        4.72811         1.91698        0.230444 
        4.74384         1.90782        0.228506 
        4.75955         1.89536        0.226593 
        4.77525          1.8847        0.224704 
        4.79096         1.87382        0.222833 
        4.80669         1.86658        0.220983 
         4.8224         1.85891        0.219156 
        4.83809         1.84927        0.217352 
        4.85379         1.84461        0.215567 
         4.8695         1.82887          0.2138 
        4.88521          1.8235        0.212054 
        4.90093         1.81846        0.210327 
        4.91663         1.80423        0.208621 
        4.93234         1.80103        0.206932 
        4.94807         1.79094        0.205261 
        4.96377         1.77796        0.203611 
        4.97943         1.77251        0.201983 
        4.99514         1.76066        0.200368 
        5.01086         1.75283         0.19877 
        5.02654           1.745        0.197193 
        5.04227         1.74132        0.195629 
          5.058         1.73307        0.194081 
        5.07371         1.72832        0.192553 
        5.08942         1.71986        0.191041 
        5.10513         1.70821        0.189545 
        5.12084          1.6988        0.188064 
        5.13656         1.69332        0.186599 
        5.15225         1.68501        0.185153 
        5.16796         1.67693        0.183719 
        5.18369         1.67129          0.1823 
         5.1994         1.66481        0.180897 
        5.21509         1.65799        0.179511 
        5.23079         1.65188        0.178138 
        5.24649         1.64673         0.17678 
        5.26217         1.63793        0.175438 
        5.27788         1.62639        0.174107 
        5.29359         1.62273         0.17279 
        5.30933         1.61772        0.171484 
        5.32504          1.6105        0.170195 
        5.34073          1.5981         0.16892 
        5.35646         1.59404        0.167655 
        5.37218         1.59023        0.166403 
        5.38789         1.57934        0.165166 
        5.40357         1.57622        0.163943 
        5.41929         1.56882         0.16273 
        5.43502         1.56197        0.161528 
         5.4507         1.55471        0.160342 
        5.46639         1.54984        0.159167 
        5.48212          1.5441        0.158002 
        5.49786          1.5356        0.156846 
        5.51353         1.53267        0.155708 
        5.52921         1.52443        0.154581 
        5.54495         1.52121        0.153461 
        5.56066         1.51246        0.152353 
        5.57637         1.50391        0.151256 
        5.59207         1.49912        0.150171 
        5.60778         1.49884        0.149097 
        5.62346         1.48668        0.148034 
        5.63916          1.4858        0.146981 
        5.65487         1.47801        0.145937 
         5.6706         1.47193        0.144902 
        5.68633         1.46455        0.143877 
        5.70203         1.46215        0.142864 
        5.71773         1.45429        0.141861 
        5.73344         1.45269        0.140867 
        5.74916         1.44631        0.139882 
        5.76486          1.4387        0.138907 
        5.78054         1.43284        0.137943 
        5.79626         1.43102        0.136986 
          5.812         1.42363        0.136036 
         5.8277         1.41706        0.135099 
        5.84339          1.4135         0.13417 
        5.85911         1.40887        0.133248 
        5.87484         1.40023        0.132335 
        5.89053         1.39768        0.131433 
        5.90623         1.39515        0.130538 
        5.92195         1.38951         0.12965 
        5.93767         1.38161        0.128771 
        5.95336         1.37866        0.127901 
        5.96905         1.36864         0.12704 
        5.98476         1.36713        0.126186 
        6.00048         1.36331        0.125339 
        6.01617         1.35651        0.124501 
        6.03185         1.35344        0.123672 
        6.04756         1.34956        0.122848 
        6.06331         1.34467         0.12203 
        6.07903          1.3394        0.121221 
        6.09473           1.334         0.12042 
        6.11044         1.32951        0.119626 
        6.12616         1.32275        0.118839 
        6.14186         1.31958         0.11806 
        6.15755         1.31803        0.117288 
        6.17326         1.31139        0.116522 
        6.18898         1.30789        0.115763 
        6.20467         1.30254        0.115012 
        6.22036         1.29936        0.114267 
         6.2361         1.29579        0.113527 
         6.2518         1.29225        0.112795 
        6.26748         1.28443        0.112071 
        6.28319          1.2821        0.111351 
        6.29893         1.27681        0.110637 
        6.31463          1.2735        0.109931 
        6.33033         1.26738         0.10923 
        6.34604          1.2651        0.108536 
        6.36177         1.25906        0.107847 
        6.37747         1.25666        0.107165 
