# k  (h/Mpc)    Pcb(k)  (Mpc/h)^3    Pcb_linear(k) (Mpc/h)^3   ShotnoiseSubtracted = true
      0.0200456         7807.42         7916.71 
      0.0350414          5889.6         5755.18 
      0.0492313         4161.84          4181.6 
      0.0637834         3377.28         3476.13 
      0.0800726         2664.99         2758.92 
       0.096163         2063.57         2001.83 
       0.111083         1672.52         1596.72 
       0.126058         1404.35         1415.01 
       0.142273         1202.28         1198.83 
       0.158546         983.881         946.823 
        0.17375         853.843         797.698 
       0.188953         782.433         722.297 
       0.204907          666.25         639.086 
       0.220756         594.713         540.705 
        0.23588         525.782         470.367 
         0.2514         471.314         427.323 
       0.267535         452.445         386.654 
       0.283568         394.291         340.977 
       0.299022          372.39         303.793 
       0.314451         366.635         277.646 
       0.330372         316.898         254.709 
       0.346141         293.322         231.187 
       0.361624         277.596         210.118 
       0.377134         255.557         193.342 
       0.392932         248.882         178.895 
       0.408854          235.18         164.907 
       0.424564         225.192         151.997 
       0.440253         203.358         140.919 
       0.455999          192.03         131.286 
       0.471626         188.261         122.433 
        0.48727         180.675         114.152 
       0.502856         164.887         106.713 
       0.518488         163.432         100.075 
       0.534347         152.567         93.9044 
       0.550082         149.005         88.2146 
       0.565732         146.326         83.0093 
       0.581496         135.152         78.2418 
       0.597222          132.19         73.8695 
       0.612804         127.831         69.8491 
       0.628434         124.265         66.1017 
       0.644267          117.91         62.5982 
       0.660051         114.387         59.3692 
       0.675724         112.647         56.3876 
       0.691403         109.964         53.6083 
       0.707174         106.114         51.0006 
       0.722871         104.141         48.5768 
        0.73838         101.516         46.3364 
       0.754018          95.433         44.2204 
       0.769845         94.9439         42.2135 
        0.78569         92.2008         40.3295 
       0.801365         89.3475         38.5792 
       0.817031         86.4539         36.9344 
       0.832809         84.9377         35.3756 
       0.848511          82.998         33.9141 
       0.864097         81.5128         32.5456 
       0.879701         79.9991         31.2517 
       0.895507         76.9995         30.0132 
       0.911279         75.8642         28.8448 
        0.92691         73.7113         27.7484 
       0.942635         72.1322         26.7033 
       0.958396         71.9064           25.71 
       0.974128         70.1726         24.7693 
       0.989692         68.5188         23.8851 
        1.00528         67.2398          23.043 
        1.02113         65.7096         22.2285 
        1.03692         65.5363         21.4564 
        1.05264         64.2268         20.7248 
        1.06832         62.2939         20.0286 
        1.08405         61.5225         19.3626 
        1.09979         61.0827         18.7266 
        1.11537         59.4261         18.1256 
        1.13105         58.1358         17.5475 
        1.14679         57.5207         16.9925 
        1.16256         56.5436         16.4605 
        1.17828         55.9864         15.9531 
        1.19395         54.4748         15.4689 
         1.2097         54.6098         15.0023 
        1.22537          53.249         14.5574 
          1.241         52.7178         14.1319 
        1.25666         51.2673         13.7224 
        1.27241         51.1879         13.3273 
        1.28819         50.2662         12.9471 
        1.30392         49.4757         12.5829 
        1.31957         49.1851         12.2344 
        1.33529         48.3423         11.8978 
        1.35108         47.5364         11.5726 
        1.36674         46.8809         11.2619 
         1.3824         46.2045          10.963 
        1.39811         45.4697         10.6739 
        1.41389          44.837         10.3942 
        1.42964         44.5267          10.125 
        1.44531         43.6146         9.86671 
        1.46101         43.3646         9.61688 
        1.47667         42.7581         9.37647 
        1.49229         42.1088         9.14495 
        1.50793         41.7258           8.921 
        1.52367         41.0963         8.70312 
        1.53953         40.8174         8.49109 
        1.55526         40.1522         8.28782 
        1.57092         39.7197         8.09207 
        1.58662         39.1669         7.90218 
        1.60235         38.6744         7.71804 
        1.61809         38.1908         7.53969 
        1.63369         37.7413         7.36857 
        1.64941         37.3125         7.20155 
        1.66519          36.728         7.03911 
        1.68085         36.3197         6.88285 
        1.69652         35.8424          6.7313 
        1.71228          35.679         6.58346 
        1.72806         35.0944         6.43995 
        1.74368         34.6383         6.30217 
        1.75933          34.439         6.16816 
        1.77505         34.1667         6.03742 
        1.79081         33.6876         5.91024 
         1.8065         33.1705         5.78728 
        1.82218         32.7236         5.66793 
        1.83797         32.5366         5.55114 
        1.85367         32.0564         5.43829 
        1.86928         32.1033         5.32926 
        1.88497         31.3691         5.22263 
        1.90073         31.1804         5.11853 
        1.91647         30.9522         5.01736 
        1.93218         30.8118         4.91914 
        1.94787         30.3633         4.82371 
        1.96363         29.8596         4.73043 
        1.97935         29.6614         4.63981 
        1.99499         29.4318         4.55209 
        2.01064          28.965          4.4665 
         2.0264           28.72         4.38259 
        2.04216         28.5793         4.30087 
        2.05781         28.2446         4.22175 
        2.07353         27.9282         4.14435 
        2.08928         27.6166         4.06872 
        2.10499         27.3939         3.99518 
        2.12065         27.0713         3.92369 
        2.13633         26.8736         3.85388 
        2.15211         26.4187         3.78532 
        2.16785         26.3011         3.71863 
        2.18349         26.0208         3.65396 
        2.19916         25.7614         3.59069 
        2.21489         25.4904         3.52872 
        2.23063          25.367         3.46816 
         2.2463         25.0817          3.4093 
        2.26194          24.801         3.35196 
        2.27765         24.5321         3.29564 
        2.29341         24.2568         3.24047 
        2.30914         24.0481         3.18668 
        2.32486         23.8549         3.13414 
        2.34061         23.6497          3.0827 
        2.35635          23.322         3.03246 
        2.37203         23.1878         2.98351 
        2.38768         22.9848         2.93575 
        2.40339         22.8593         2.88886 
        2.41914         22.5746         2.84289 
        2.43483          22.475         2.79808 
         2.4505         22.0623         2.75431 
        2.46622         21.8946         2.71133 
        2.48195         21.7051         2.66926 
        2.49759         21.4137         2.62831 
        2.51328         21.3136         2.58811 
        2.52906         21.1625          2.5485 
        2.54479         20.9328         2.50987 
        2.56049         20.8467         2.47212 
        2.57618         20.6588         2.43517 
        2.59189         20.3162         2.39892 
        2.60758         20.1633         2.36347 
        2.62325          19.987         2.32878 
        2.63898         19.8611         2.29466 
        2.65468         19.6843          2.2613 
        2.67044          19.434         2.22846 
        2.68618         19.2662         2.19635 
        2.70184         19.0864           2.165 
        2.71755         18.8925         2.13419 
        2.73329         18.7545         2.10392 
        2.74897         18.6145         2.07435 
        2.76462         18.4737          2.0454 
        2.78034         18.1945         2.01689 
        2.79607         18.0956          1.9889 
        2.81179         17.9533         1.96146 
        2.82749         17.7387         1.93458 
        2.84321         17.6655         1.90817 
        2.85893          17.415         1.88226 
        2.87462          17.319         1.85687 
        2.89033         17.1882         1.83193 
        2.90605         16.9891         1.80743 
        2.92176          16.807         1.78339 
        2.93747         16.6965          1.7598 
        2.95318         16.5785         1.73663 
        2.96891         16.3901         1.71386 
        2.98456         16.3247         1.69161 
        3.00023          16.114         1.66972 
        3.01596         15.9949         1.64814 
        3.03164         15.8491         1.62701 
        3.04738         15.7093         1.60619 
         3.0631         15.6056         1.58574 
        3.07883         15.4747         1.56565 
        3.09456         15.3323          1.5459 
        3.11026         15.2151         1.52653 
        3.12596         15.0758         1.50749 
        3.14163         14.9216         1.48882 
        3.15734         14.8072         1.47043 
        3.17308         14.7229          1.4523 
        3.18879         14.5054         1.43452 
        3.20447         14.4867         1.41707 
         3.2202         14.3086         1.39985 
         3.2359         14.2043         1.38296 
        3.25157          14.125         1.36638 
        3.26729         13.9384         1.35002 
        3.28304         13.8587         1.33389 
        3.29877         13.8109         1.31806 
        3.31446         13.6319         1.30251 
        3.33014         13.5395         1.28723 
        3.34585         13.3797         1.27217 
        3.36158         13.2831         1.25733 
        3.37727         13.1955         1.24277 
        3.39294         13.0866         1.22845 
        3.40867         12.9408         1.21431 
        3.42439         12.8553          1.2004 
        3.44008         12.7739         1.18674 
        3.45578          12.613         1.17327 
        3.47153         12.5366         1.15999 
        3.48724         12.4779         1.14693 
        3.50292         12.3703         1.13411 
        3.51859         12.2567         1.12149 
        3.53431         12.1122         1.10902 
        3.55007         12.0593         1.09671 
        3.56577         11.9376         1.08464 
        3.58146         11.8126         1.07275 
        3.59719          11.739         1.06101 
        3.61292         11.6703         1.04946 
        3.62859         11.5491         1.03811 
        3.64429         11.4786         1.02692 
        3.66003         11.3537         1.01585 
        3.67578         11.2806         1.00496 
        3.69146         11.1963        0.994259 
        3.70712         11.0724        0.983737 
        3.72284         11.0087        0.973328 
        3.73853         10.9306        0.963089 
        3.75422         10.8196        0.952992 
        3.76993         10.7296        0.943032 
        3.78564         10.6727        0.933218 
        3.80137          10.575        0.923527 
        3.81707         10.4875        0.913995 
        3.83279         10.4207        0.904589 
        3.84853         10.3279          0.8953 
        3.86424         10.2246         0.88616 
        3.87992         10.1755        0.877161 
        3.89561         10.0924        0.868286 
        3.91134         10.0133        0.859516 
        3.92704         9.94224        0.850877 
        3.94273         9.84808        0.842366 
        3.95845         9.75456        0.833955 
        3.97418         9.68627        0.825657 
        3.98988         9.66182        0.817484 
        4.00554         9.55101        0.809443 
        4.02125         9.48376        0.801487 
        4.03698         9.41456        0.793626 
        4.05268         9.35058        0.785889 
        4.06839         9.24738        0.778248 
         4.0841         9.16867        0.770712 
        4.09983         9.10884        0.763264 
        4.11555         9.00716        0.755918 
        4.13124         8.96464        0.748689 
        4.14693         8.87333        0.741548 
        4.16266         8.83401        0.734484 
        4.17839          8.7332        0.727516 
        4.19408         8.71066        0.720654 
        4.20977         8.58758        0.713877 
        4.22551         8.55181        0.707172 
        4.24123         8.49947        0.700559 
        4.25691         8.43376        0.694049 
        4.27259         8.35202         0.68762 
        4.28831         8.28197        0.681259 
        4.30404         8.26259        0.674972 
        4.31974          8.1698        0.668779 
        4.33543          8.1249        0.662667 
        4.35116         8.01155        0.656616 
        4.36688         7.98188        0.650643 
        4.38255         7.94652        0.644767 
        4.39825         7.84235         0.63895 
        4.41398          7.7973        0.633194 
         4.4297         7.74141        0.627514 
        4.44541         7.68754        0.621905 
        4.46111         7.63862        0.616369 
        4.47683         7.59772        0.610897 
        4.49251         7.51918        0.605502 
        4.50819         7.46198        0.600173 
         4.5239         7.39915        0.594901 
        4.53962         7.34643        0.589686 
        4.55535         7.28942         0.58453 
        4.57106         7.25921        0.579444 
        4.58678         7.19693        0.574417 
         4.6025         7.13596        0.569448 
        4.61821         7.08472        0.564539 
        4.63391         7.04096        0.559694 
         4.6496         6.98702        0.554908 
        4.66532         6.94052        0.550171 
        4.68103         6.87935        0.545491 
        4.69673         6.83938        0.540869 
        4.71241         6.77581        0.536306 
        4.72811         6.73968        0.531788 
        4.74384         6.71142        0.527316 
        4.75955         6.65164        0.522903 
        4.77525         6.60556        0.518542 
        4.79096         6.57046        0.514225 
        4.80669         6.49955        0.509956 
         4.8224         6.44609         0.50574 
        4.83809          6.4081        0.501576 
        4.85379         6.35827        0.497457 
         4.8695         6.32855         0.49338 
        4.88521         6.27064        0.489351 
        4.90093          6.2294        0.485366 
        4.91663         6.18059        0.481429 
        4.93234         6.13722        0.477531 
        4.94807         6.09222        0.473674 
        4.96377         6.05383        0.469867 
        4.97943          5.9986        0.466109 
        4.99514         5.97326        0.462383 
        5.01086         5.93216        0.458695 
        5.02654         5.88478        0.455057 
        5.04227         5.85462        0.451447 
          5.058          5.7907        0.447874 
        5.07371         5.76172        0.444348 
        5.08942         5.71508        0.440858 
        5.10513         5.68321        0.437406 
        5.12084         5.64446        0.433989 
        5.13656         5.59376        0.430609 
        5.15225         5.55845        0.427271 
        5.16796         5.52616        0.423963 
        5.18369         5.48152        0.420687 
         5.1994          5.4424        0.417451 
        5.21509         5.41813        0.414253 
        5.23079         5.37999        0.411084 
        5.24649         5.33078         0.40795 
        5.26217         5.30949        0.404852 
        5.27788         5.26569        0.401781 
        5.29359         5.23091        0.398742 
        5.30933         5.20405        0.395729 
        5.32504          5.1611        0.392753 
        5.34073          5.1285         0.38981 
        5.35646         5.09568        0.386892 
        5.37218         5.05405        0.384003 
        5.38789         5.02792        0.381148 
        5.40357         4.98256        0.378326 
        5.41929         4.95025        0.375526 
        5.43502         4.91611        0.372754 
         5.4507         4.89674        0.370016 
        5.46639         4.85552        0.367305 
        5.48212         4.83119        0.364616 
        5.49786         4.80343         0.36195 
        5.51353         4.76993        0.359324 
        5.52921           4.739        0.356721 
        5.54495         4.70338        0.354136 
        5.56066         4.66918         0.35158 
        5.57637         4.63383        0.349049 
        5.59207         4.61443        0.346546 
        5.60778         4.57735        0.344066 
        5.62346         4.54958        0.341613 
        5.63916         4.51735        0.339183 
        5.65487         4.49399        0.336774 
         5.6706         4.46466        0.334387 
        5.68633         4.43593        0.332021 
        5.70203         4.40366        0.329683 
        5.71773         4.38705        0.327368 
        5.73344         4.34596        0.325075 
        5.74916         4.32717          0.3228 
        5.76486         4.29365        0.320551 
        5.78054         4.27807        0.318327 
        5.79626         4.23883        0.316117 
          5.812         4.21584        0.313927 
         5.8277         4.18916        0.311763 
        5.84339         4.16238         0.30962 
        5.85911          4.1342        0.307493 
        5.87484         4.10806        0.305386 
        5.89053         4.08609        0.303303 
        5.90623           4.065        0.301238 
        5.92195         4.03847        0.299189 
        5.93767          4.0069        0.297161 
        5.95336           3.988        0.295154 
        5.96905         3.95692        0.293167 
        5.98476         3.94304        0.291195 
        6.00048         3.91099        0.289241 
        6.01617         3.88797        0.287307 
        6.03185         3.85693        0.285393 
        6.04756          3.8354        0.283492 
        6.06331         3.82133        0.281605 
        6.07903         3.79533        0.279738 
        6.09473         3.77063         0.27789 
        6.11044         3.74326        0.276057 
        6.12616         3.73015        0.274241 
        6.14186         3.70287        0.272443 
        6.15755         3.67719        0.270661 
        6.17326         3.65717        0.268894 
        6.18898         3.63055        0.267142 
        6.20467         3.61383        0.265408 
        6.22036         3.58496         0.26369 
         6.2361         3.56941        0.261983 
         6.2518         3.55081        0.260293 
        6.26748         3.53309        0.258622 
        6.28319          3.5061        0.256962 
        6.29893         3.48426        0.255314 
        6.31463         3.46035        0.253683 
        6.33033         3.45292        0.252067 
        6.34604         3.42751        0.250465 
        6.36177         3.40729        0.248874 
        6.37747          3.3859          0.2473 
