# k  (h/Mpc)    Pcb(k)  (Mpc/h)^3    Pcb_linear(k) (Mpc/h)^3   ShotnoiseSubtracted = true
      0.0200456         13873.6         14156.7 
      0.0350414         9937.01         10291.4 
      0.0492313         7387.05         7477.55 
      0.0637834         6339.41         6216.02 
      0.0800726          5012.4          4933.5 
       0.096163         3492.95         3579.69 
       0.111083         2785.12         2855.25 
       0.126058         2568.14         2530.33 
       0.142273          2220.5         2143.75 
       0.158546         1881.77         1693.11 
        0.17375         1506.26         1426.45 
       0.188953         1460.72         1291.61 
       0.204907         1372.83         1142.82 
       0.220756          1174.3         966.891 
        0.23588         1037.87         841.111 
         0.2514          903.92         764.141 
       0.267535         889.165         691.416 
       0.283568         806.292         609.736 
       0.299022         755.409         543.244 
       0.314451         714.932         496.488 
       0.330372         658.679         455.472 
       0.346141         604.989          413.41 
       0.361624         581.817         375.733 
       0.377134         540.163         345.734 
       0.392932         517.247         319.901 
       0.408854         498.258         294.887 
       0.424564         469.842         271.801 
       0.440253         458.552         251.991 
       0.455999         432.356         234.766 
       0.471626          407.45         218.936 
        0.48727         394.232         204.127 
       0.502856         382.288         190.824 
       0.518488           378.6         178.955 
       0.534347         354.333          167.92 
       0.550082         336.798         157.746 
       0.565732         334.529         148.437 
       0.581496         315.592         139.912 
       0.597222         310.081         132.094 
       0.612804         300.416         124.904 
       0.628434         288.903         118.203 
       0.644267         280.478         111.938 
       0.660051         275.318         106.164 
       0.675724         270.677         100.832 
       0.691403         262.732         95.8624 
       0.707174         252.908         91.1994 
       0.722871         250.006         86.8651 
        0.73838         245.618         82.8588 
       0.754018         239.181          79.075 
       0.769845         231.009         75.4863 
        0.78569         230.594         72.1173 
       0.801365         222.607         68.9875 
       0.817031         215.916         66.0463 
       0.832809         213.747         63.2587 
       0.848511         208.072         60.6453 
       0.864097         205.421         58.1982 
       0.879701         201.456         55.8844 
       0.895507         196.372         53.6698 
       0.911279         190.616         51.5803 
        0.92691         190.617         49.6198 
       0.942635         185.774         47.7509 
       0.958396         184.667         45.9747 
       0.974128         180.284         44.2925 
       0.989692         176.046         42.7115 
        1.00528         173.736         41.2056 
        1.02113         172.535          39.749 
        1.03692         167.321         38.3685 
        1.05264         164.186         37.0602 
        1.06832         161.336         35.8151 
        1.08405         158.906         34.6242 
        1.09979         157.928          33.487 
        1.11537          153.28         32.4122 
        1.13105         151.629         31.3785 
        1.14679         151.227          30.386 
        1.16256         148.635         29.4347 
        1.17828         145.498         28.5273 
        1.19395         143.379         27.6614 
         1.2097         142.143         26.8272 
        1.22537         139.808         26.0316 
          1.241         137.631         25.2707 
        1.25666         135.434         24.5384 
        1.27241          133.14         23.8319 
        1.28819         131.671          23.152 
        1.30392         129.791         22.5008 
        1.31957         128.678         21.8775 
        1.33529         125.358         21.2757 
        1.35108         124.502         20.6942 
        1.36674         123.328         20.1386 
         1.3824         120.828          19.604 
        1.39811         120.207         19.0871 
        1.41389         118.122          18.587 
        1.42964         115.675         18.1056 
        1.44531         113.571         17.6437 
        1.46101          112.57         17.1969 
        1.47667         111.359          16.767 
        1.49229         109.764          16.353 
        1.50793         108.816         15.9526 
        1.52367         107.424          15.563 
        1.53953         105.384         15.1838 
        1.55526         104.481         14.8203 
        1.57092         103.304         14.4703 
        1.58662         101.357         14.1307 
        1.60235          100.96         13.8014 
        1.61809         98.9503         13.4825 
        1.63369         98.2248         13.1765 
        1.64941         97.3701         12.8778 
        1.66519         95.1943         12.5874 
        1.68085         94.6697         12.3079 
        1.69652         92.3279         12.0369 
        1.71228          92.515         11.7726 
        1.72806         91.1088         11.5159 
        1.74368         89.9454         11.2696 
        1.75933         88.6044         11.0299 
        1.77505         87.7301         10.7961 
        1.79081          86.338         10.5687 
         1.8065         85.4278         10.3488 
        1.82218         83.8574         10.1354 
        1.83797         82.9862         9.92657 
        1.85367         82.1763         9.72477 
        1.86928         81.7923          9.5298 
        1.88497         80.0605         9.33912 
        1.90073         79.4525         9.15296 
        1.91647         78.5181         8.97206 
        1.93218         77.3754         8.79643 
        1.94787         76.6929         8.62577 
        1.96363         75.3868         8.45897 
        1.97935         74.8337         8.29693 
        1.99499          73.781         8.14005 
        2.01064         73.1189         7.98701 
         2.0264         71.7027         7.83695 
        2.04216         70.9733         7.69083 
        2.05781          70.206         7.54935 
        2.07353         69.0115         7.41094 
        2.08928          68.115          7.2757 
        2.10499         67.6638          7.1442 
        2.12065         67.1832         7.01635 
        2.13633         66.3118         6.89152 
        2.15211         65.5542         6.76892 
        2.16785         64.8555         6.64966 
        2.18349         64.1648         6.53402 
        2.19916         63.2716         6.42088 
        2.21489         62.6708         6.31006 
        2.23063         62.2059         6.20178 
         2.2463         61.2579         6.09653 
        2.26194         60.5927         5.99398 
        2.27765         60.0776         5.89327 
        2.29341          59.334         5.79462 
        2.30914         58.4086         5.69843 
        2.32486         57.6196         5.60448 
        2.34061         57.1479         5.51249 
        2.35635         56.6279         5.42265 
        2.37203         55.7317         5.33513 
        2.38768         55.2072         5.24972 
        2.40339         54.5045         5.16587 
        2.41914         54.1763         5.08366 
        2.43483         53.8231         5.00353 
         2.4505         53.1927         4.92526 
        2.46622         52.5544          4.8484 
        2.48195         51.9284         4.77318 
        2.49759         51.0846         4.69995 
        2.51328         50.6684         4.62807 
        2.52906         50.2495         4.55724 
        2.54479         49.6564         4.48816 
        2.56049         49.0126         4.42065 
        2.57618         48.6461         4.35458 
        2.59189         48.0896         4.28976 
        2.60758         47.7332         4.22637 
        2.62325         47.0735         4.16433 
        2.63898         46.6588         4.10333 
        2.65468          46.105         4.04367 
        2.67044         45.3535         3.98495 
        2.68618         45.1456         3.92753 
        2.70184         44.4902         3.87146 
        2.71755         44.3495         3.81636 
        2.73329         43.5533         3.76224 
        2.74897         43.1969         3.70935 
        2.76462         42.7112         3.65759 
        2.78034         42.4417         3.60661 
        2.79607          41.866         3.55655 
        2.81179         41.4873         3.50749 
        2.82749         40.8244         3.45942 
        2.84321          40.575         3.41219 
        2.85893         40.1397         3.36586 
        2.87462         39.6144         3.32046 
        2.89033         39.2776         3.27587 
        2.90605         38.9258         3.23205 
        2.92176          38.534         3.18906 
        2.93747         38.1491         3.14687 
        2.95318         37.7384         3.10544 
        2.96891          37.149         3.06473 
        2.98456          37.001         3.02494 
        3.00023         36.5776         2.98579 
        3.01596          36.186         2.94721 
        3.03164         35.7954         2.90943 
        3.04738         35.5852          2.8722 
         3.0631         35.0298         2.83563 
        3.07883         34.7486         2.79969 
        3.09456         34.4234         2.76439 
        3.11026         34.0434         2.72975 
        3.12596         33.7366          2.6957 
        3.14163         33.3588         2.66232 
        3.15734         32.9632         2.62942 
        3.17308         32.7497           2.597 
        3.18879         32.4738         2.56522 
        3.20447         32.0447         2.53401 
         3.2202         31.6883         2.50322 
         3.2359         31.4851           2.473 
        3.25157         31.1741         2.44336 
        3.26729          30.906          2.4141 
        3.28304         30.5513         2.38527 
        3.29877          30.195         2.35695 
        3.31446         29.9913         2.32915 
        3.33014         29.6709         2.30183 
        3.34585          29.445         2.27489 
        3.36158         29.0923         2.24835 
        3.37727         28.7931         2.22232 
        3.39294         28.5324         2.19672 
        3.40867          28.262         2.17144 
        3.42439         28.0122         2.14656 
        3.44008         27.7879         2.12212 
        3.45578         27.3739         2.09805 
        3.47153         27.1748          2.0743 
        3.48724         26.8965         2.05095 
        3.50292         26.6449         2.02802 
        3.51859         26.4034         2.00545 
        3.53431         26.2557         1.98315 
        3.55007         25.9407         1.96114 
        3.56577         25.6831         1.93955 
        3.58146         25.5209         1.91829 
        3.59719          25.198         1.89731 
        3.61292           24.99         1.87664 
        3.62859         24.7684         1.85636 
        3.64429         24.5081         1.83634 
        3.66003         24.2728         1.81655 
        3.67578         24.1378         1.79706 
        3.69146         23.8602         1.77794 
        3.70712         23.6112         1.75912 
        3.72284         23.4704         1.74051 
        3.73853          23.247          1.7222 
        3.75422         22.9961         1.70414 
        3.76993         22.8231         1.68633 
        3.78564         22.5152         1.66878 
        3.80137         22.3808         1.65145 
        3.81707         22.2096         1.63441 
        3.83279         21.8963         1.61759 
        3.84853         21.6931         1.60098 
        3.86424         21.5407         1.58463 
        3.87992         21.3748         1.56854 
        3.89561         21.1809         1.55267 
        3.91134         21.0254         1.53699 
        3.92704         20.8194         1.52154 
        3.94273         20.6074         1.50632 
        3.95845         20.4375         1.49128 
        3.97418         20.2856         1.47644 
        3.98988          20.075         1.46183 
        4.00554          19.942         1.44745 
        4.02125         19.7456         1.43322 
        4.03698         19.4806         1.41917 
        4.05268         19.3635         1.40533 
        4.06839         19.1664         1.39167 
         4.0841         19.0944         1.37819 
        4.09983         18.8711         1.36487 
        4.11555         18.7137         1.35174 
        4.13124          18.504         1.33881 
        4.14693         18.3249         1.32604 
        4.16266         18.1854         1.31341 
        4.17839         18.0297         1.30095 
        4.19408         17.8565         1.28868 
        4.20977         17.7627         1.27656 
        4.22551         17.6051         1.26457 
        4.24123         17.4278         1.25274 
        4.25691         17.3374          1.2411 
        4.27259          17.145          1.2296 
        4.28831         16.9936         1.21823 
        4.30404         16.8497         1.20699 
        4.31974         16.6804         1.19591 
        4.33543         16.5661         1.18498 
        4.35116           16.44         1.17416 
        4.36688         16.2639         1.16348 
        4.38255         16.1601         1.15297 
        4.39825         16.0561         1.14257 
        4.41398         15.8806         1.13228 
         4.4297         15.7597         1.12212 
        4.44541         15.6509         1.11209 
        4.46111         15.5081         1.10219 
        4.47683         15.3641         1.09241 
        4.49251         15.2929         1.08276 
        4.50819         15.1143         1.07323 
         4.5239         15.0277          1.0638 
        4.53962         14.8648         1.05448 
        4.55535         14.7723         1.04526 
        4.57106         14.6476         1.03616 
        4.58678         14.5584         1.02717 
         4.6025         14.3914         1.01829 
        4.61821         14.2841         1.00951 
        4.63391         14.1984         1.00085 
         4.6496          14.037        0.992288 
        4.66532         13.9114        0.983817 
        4.68103         13.8155        0.975448 
        4.69673         13.7652        0.967184 
        4.71241         13.6246        0.959024 
        4.72811         13.5071        0.950945 
        4.74384         13.3977        0.942948 
        4.75955           13.29        0.935056 
        4.77525         13.2101        0.927258 
        4.79096         13.1086        0.919539 
        4.80669         12.9999        0.911905 
         4.8224         12.8738        0.904366 
        4.83809          12.795         0.89692 
        4.85379          12.676        0.889553 
         4.8695         12.6151        0.882263 
        4.88521         12.4838        0.875058 
        4.90093         12.3801        0.867932 
        4.91663         12.3269        0.860892 
        4.93234         12.1854        0.853922 
        4.94807         12.1177        0.847025 
        4.96377          12.013        0.840217 
        4.97943         11.9302        0.833498 
        4.99514         11.8233        0.826835 
        5.01086         11.7469         0.82024 
        5.02654         11.6468        0.813733 
        5.04227          11.577        0.807278 
          5.058         11.4949         0.80089 
        5.07371         11.4073        0.794584 
        5.08942         11.2916        0.788344 
        5.10513         11.2163        0.782171 
        5.12084         11.1525        0.776061 
        5.13656         11.0562        0.770017 
        5.15225         10.9762        0.764047 
        5.16796         10.9071        0.758132 
        5.18369         10.7976        0.752273 
         5.1994         10.7456        0.746488 
        5.21509           10.65        0.740768 
        5.23079         10.5823        0.735101 
        5.24649         10.5286        0.729498 
        5.26217         10.3973        0.723957 
        5.27788         10.3348        0.718466 
        5.29359         10.2681        0.713031 
        5.30933         10.2046        0.707644 
        5.32504         10.1264        0.702322 
        5.34073         10.0389         0.69706 
        5.35646         9.97588        0.691842 
        5.37218         9.89585        0.686676 
        5.38789         9.82262        0.681571 
        5.40357         9.75349        0.676524 
        5.41929         9.67242        0.671516 
        5.43502         9.63515        0.666559 
         5.4507         9.53984        0.661664 
        5.46639         9.46791        0.656817 
        5.48212         9.40627        0.652007 
        5.49786         9.34313        0.647239 
        5.51353          9.2652        0.642543 
        5.52921         9.20743        0.637889 
        5.54495         9.13083        0.633267 
        5.56066         9.05647        0.628696 
        5.57637         9.00213        0.624171 
        5.59207          8.9431        0.619694 
        5.60778         8.87045        0.615259 
        5.62346         8.80437        0.610874 
        5.63916         8.75782        0.606527 
        5.65487         8.68717        0.602221 
         5.6706         8.64324        0.597951 
        5.68633         8.56688        0.593721 
        5.70203         8.52243        0.589541 
        5.71773          8.4483        0.585401 
        5.73344         8.39566        0.581299 
        5.74916         8.31615        0.577233 
        5.76486         8.30577        0.573211 
        5.78054          8.2156        0.569233 
        5.79626         8.15307        0.565282 
          5.812          8.1147        0.561365 
         5.8277         8.05202        0.557496 
        5.84339         8.00354        0.553663 
        5.85911         7.93937        0.549859 
        5.87484         7.89237        0.546092 
        5.89053         7.83772        0.542367 
        5.90623         7.77654        0.538675 
        5.92195         7.73595        0.535012 
        5.93767         7.68538        0.531384 
        5.95336         7.62495        0.527796 
        5.96905         7.56119        0.524242 
        5.98476         7.53339        0.520716 
        6.00048         7.47903        0.517221 
        6.01617         7.42679        0.513763 
        6.03185         7.36782        0.510341 
        6.04756         7.32451        0.506942 
        6.06331          7.2864        0.503566 
        6.07903          7.2444        0.500228 
        6.09473         7.17203        0.496924 
        6.11044         7.13326        0.493646 
        6.12616          7.0917        0.490399 
        6.14186         7.04646        0.487184 
        6.15755         6.98656        0.483998 
        6.17326         6.94552        0.480838 
        6.18898         6.90981        0.477704 
        6.20467         6.85784        0.474604 
        6.22036         6.80939        0.471532 
         6.2361         6.77532        0.468479 
         6.2518         6.71664        0.465457 
        6.26748         6.67104        0.462469 
        6.28319         6.63149        0.459499 
        6.29893         6.60119        0.456553 
        6.31463         6.55757        0.453637 
        6.33033         6.50858        0.450748 
        6.34604         6.47175        0.447881 
        6.36177         6.42097        0.445037 
        6.37747          6.3962        0.442223 
