# k  (h/Mpc)    Pcb(k)  (Mpc/h)^3    Pcb_linear(k) (Mpc/h)^3   ShotnoiseSubtracted = true
      0.0200456         1033.31         1046.57 
      0.0350414         769.909         760.822 
      0.0492313         554.627         552.799 
      0.0637834         455.064         459.537 
      0.0800726         360.257         364.723 
       0.096163         268.712         264.638 
       0.111083         215.542         211.082 
       0.126058         186.115         187.062 
       0.142273         157.321         158.483 
       0.158546         126.188         125.168 
        0.17375          107.55         105.454 
       0.188953         96.5972         95.4862 
       0.204907         83.3158         84.4858 
       0.220756         72.3912         71.4801 
        0.23588         63.1094         62.1815 
         0.2514         57.2476         56.4912 
       0.267535         52.3068         51.1149 
       0.283568          46.047         45.0765 
       0.299022          41.458         40.1608 
       0.314451         38.6545         36.7042 
       0.330372         34.8901          33.672 
       0.346141         31.7606         30.5625 
       0.361624         28.9121         27.7771 
       0.377134          26.484         25.5593 
       0.392932          25.349         23.6495 
       0.408854         22.9203         21.8003 
       0.424564         21.7322         20.0937 
       0.440253         19.8538         18.6292 
       0.455999         18.1917         17.3557 
       0.471626         17.0699         16.1854 
        0.48727         16.4008         15.0907 
       0.502856         15.3575         14.1072 
       0.518488         14.1642         13.2297 
       0.534347         13.2527          12.414 
       0.550082         12.6991         11.6618 
       0.565732         12.1345         10.9736 
       0.581496         11.4016         10.3434 
       0.597222         10.7323         9.76539 
       0.612804         10.1223          9.2339 
       0.628434         9.77484          8.7385 
       0.644267          9.2784         8.27535 
       0.660051         8.78279         7.84848 
       0.675724         8.29729         7.45432 
       0.691403         8.00572          7.0869 
       0.707174          7.6164         6.74217 
       0.722871         7.41896         6.42174 
        0.73838          6.9334         6.12557 
       0.754018         6.61772         5.84584 
       0.769845         6.30127         5.58053 
        0.78569         6.13751         5.33147 
       0.801365         5.86331         5.10009 
       0.817031         5.66135         4.88266 
       0.832809         5.37568         4.67658 
       0.848511         5.22034         4.48337 
       0.864097         5.02839         4.30246 
       0.879701           4.892         4.13141 
       0.895507         4.67715         3.96769 
       0.911279         4.50803         3.81321 
        0.92691          4.3768         3.66828 
       0.942635         4.18643         3.53012 
       0.958396         4.05151         3.39881 
       0.974128          3.9412         3.27445 
       0.989692         3.76437         3.15756 
        1.00528         3.68007         3.04624 
        1.02113         3.56984         2.93855 
        1.03692         3.47459          2.8365 
        1.05264         3.32864         2.73977 
        1.06832         3.24302         2.64773 
        1.08405         3.14222         2.55969 
        1.09979         3.06565         2.47562 
        1.11537         2.97006         2.39617 
        1.13105          2.8674         2.31974 
        1.14679          2.7952         2.24637 
        1.16256         2.70472         2.17604 
        1.17828         2.66602         2.10896 
        1.19395         2.56506         2.04495 
         1.2097         2.49282         1.98328 
        1.22537         2.41141         1.92446 
          1.241         2.36286         1.86821 
        1.25666         2.32455         1.81407 
        1.27241         2.26537         1.76184 
        1.28819          2.1764         1.71158 
        1.30392         2.12493         1.66343 
        1.31957         2.09101         1.61736 
        1.33529         2.00761         1.57286 
        1.35108         1.97145         1.52987 
        1.36674         1.91865          1.4888 
         1.3824         1.89422         1.44928 
        1.39811         1.83925         1.41107 
        1.41389         1.79323         1.37409 
        1.42964         1.75236         1.33851 
        1.44531         1.72171         1.30436 
        1.46101         1.67503         1.27133 
        1.47667         1.64474         1.23955 
        1.49229         1.58817         1.20894 
        1.50793         1.55062         1.17934 
        1.52367         1.52102         1.15053 
        1.53953         1.48343          1.1225 
        1.55526         1.47578         1.09563 
        1.57092         1.44197         1.06975 
        1.58662         1.42341         1.04465 
        1.60235         1.37268         1.02031 
        1.61809         1.35045        0.996731 
        1.63369         1.31506        0.974109 
        1.64941         1.29485        0.952029 
        1.66519         1.27511        0.930556 
        1.68085         1.24119        0.909898 
        1.69652         1.21856        0.889864 
        1.71228         1.19182        0.870319 
        1.72806          1.1723        0.851348 
        1.74368         1.15098        0.833134 
        1.75933         1.13252        0.815417 
        1.77505         1.11241        0.798133 
        1.79081         1.08021        0.781321 
         1.8065         1.07055        0.765066 
        1.82218         1.04347        0.749289 
        1.83797         1.02341        0.733849 
        1.85367         1.00914         0.71893 
        1.86928        0.990911        0.704517 
        1.88497        0.969018         0.69042 
        1.90073        0.961371        0.676658 
        1.91647        0.934595        0.663284 
        1.93218        0.922239          0.6503 
        1.94787        0.906618        0.637684 
        1.96363         0.89377        0.625353 
        1.97935        0.875457        0.613373 
        1.99499         0.86224        0.601776 
        2.01064        0.848263        0.590462 
         2.0264        0.828926        0.579368 
        2.04216        0.820542        0.568566 
        2.05781         0.80513        0.558107 
        2.07353        0.794096        0.547874 
        2.08928        0.780241        0.537876 
        2.10499        0.767321        0.528155 
        2.12065        0.753985        0.518703 
        2.13633        0.744426        0.509475 
        2.15211        0.727777        0.500411 
        2.16785        0.721174        0.491594 
        2.18349        0.708523        0.483045 
        2.19916        0.699619        0.474682 
        2.21489        0.687724        0.466489 
        2.23063        0.674396        0.458484 
         2.2463        0.666002        0.450703 
        2.26194         0.65792        0.443122 
        2.27765        0.646874        0.435677 
        2.29341        0.637663        0.428383 
        2.30914        0.624933        0.421272 
        2.32486        0.618519        0.414327 
        2.34061        0.607951        0.407526 
        2.35635        0.599657        0.400885 
        2.37203        0.592779        0.394414 
        2.38768        0.584244          0.3881 
        2.40339        0.576889        0.381901 
        2.41914        0.569178        0.375824 
        2.43483        0.560305          0.3699 
         2.4505        0.552407        0.364114 
        2.46622        0.545321        0.358432 
        2.48195        0.536473         0.35287 
        2.49759        0.531754        0.347457 
        2.51328        0.521567        0.342143 
        2.52906        0.515509        0.336907 
        2.54479        0.507854          0.3318 
        2.56049        0.502088        0.326808 
        2.57618        0.496093        0.321924 
        2.59189        0.488388        0.317133 
        2.60758        0.484218        0.312446 
        2.62325        0.476571         0.30786 
        2.63898        0.472433         0.30335 
        2.65468        0.463152         0.29894 
        2.67044        0.458861        0.294598 
        2.68618        0.454237        0.290353 
        2.70184        0.446949        0.286209 
        2.71755        0.441185        0.282135 
        2.73329        0.438144        0.278134 
        2.74897        0.430471        0.274224 
        2.76462        0.425425        0.270398 
        2.78034        0.420023        0.266629 
        2.79607        0.416475        0.262928 
        2.81179        0.409837        0.259301 
        2.82749        0.405849        0.255747 
        2.84321        0.400344        0.252255 
        2.85893        0.395495         0.24883 
        2.87462        0.390285        0.245474 
        2.89033         0.38857        0.242178 
        2.90605        0.383346        0.238938 
        2.92176          0.3798         0.23576 
        2.93747        0.374148        0.232641 
        2.95318        0.370387        0.229578 
        2.96891        0.367142        0.226569 
        2.98456        0.361604        0.223627 
        3.00023        0.358125        0.220733 
        3.01596        0.354111        0.217881 
        3.03164        0.350263        0.215088 
        3.04738        0.346818        0.212335 
         3.0631        0.342636        0.209632 
        3.07883        0.339237        0.206975 
        3.09456        0.336423        0.204365 
        3.11026        0.332128        0.201804 
        3.12596        0.327856        0.199287 
        3.14163         0.32613        0.196819 
        3.15734        0.322503        0.194387 
        3.17308         0.31927         0.19199 
        3.18879        0.316011        0.189641 
        3.20447        0.312002        0.187334 
         3.2202        0.309479        0.185058 
         3.2359        0.305932        0.182824 
        3.25157        0.301204        0.180632 
        3.26729         0.30094        0.178469 
        3.28304        0.297289        0.176338 
        3.29877        0.294608        0.174244 
        3.31446        0.292703        0.172189 
        3.33014         0.28865        0.170169 
        3.34585        0.286026        0.168178 
        3.36158        0.283837        0.166216 
        3.37727        0.281256        0.164291 
        3.39294        0.279259        0.162399 
        3.40867        0.275121        0.160529 
        3.42439        0.273702         0.15869 
        3.44008         0.27105        0.156884 
        3.45578          0.2684        0.155104 
        3.47153        0.266681        0.153348 
        3.48724        0.264168        0.151622 
        3.50292         0.26186        0.149927 
        3.51859        0.259642        0.148258 
        3.53431        0.257185         0.14661 
        3.55007        0.255278        0.144983 
        3.56577        0.252997        0.143387 
        3.58146        0.250774        0.141815 
        3.59719        0.248966        0.140264 
        3.61292        0.247034        0.138736 
        3.62859        0.244968        0.137236 
        3.64429        0.242623        0.135756 
        3.66003        0.240444        0.134294 
        3.67578        0.239009        0.132853 
        3.69146        0.236328        0.131439 
        3.70712        0.235363        0.130048 
        3.72284        0.234145        0.128672 
        3.73853        0.232248        0.127318 
        3.75422        0.229619        0.125984 
        3.76993        0.227997        0.124667 
        3.78564        0.225825        0.123369 
        3.80137        0.224187        0.122088 
        3.81707        0.222926        0.120828 
        3.83279        0.221033        0.119585 
        3.84853        0.219193        0.118357 
        3.86424        0.217814        0.117148 
        3.87992        0.215875        0.115959 
        3.89561         0.21438        0.114786 
        3.91134        0.212498        0.113626 
        3.92704        0.210758        0.112484 
        3.94273        0.209861        0.111359 
        3.95845        0.207629        0.110247 
        3.97418        0.206371         0.10915 
        3.98988        0.204247         0.10807 
        4.00554        0.202333        0.107007 
        4.02125        0.200352        0.105955 
        4.03698         0.19812        0.104916 
        4.05268         0.19606        0.103893 
        4.06839        0.194193        0.102883 
         4.0841        0.192101        0.101886 
        4.09983        0.190318        0.100902 
        4.11555        0.188053       0.0999308 
        4.13124        0.186188       0.0989751 
        4.14693        0.184197        0.098031 
        4.16266        0.182166       0.0970972 
        4.17839         0.18054        0.096176 
        4.19408        0.178432       0.0952689 
        4.20977        0.177515       0.0943731 
        4.22551        0.175701       0.0934866 
        4.24123         0.17358       0.0926124 
        4.25691          0.1727       0.0917519 
        4.27259        0.170913       0.0909019 
        4.28831        0.169995        0.090061 
        4.30404        0.167922       0.0892299 
        4.31974        0.166838       0.0884111 
        4.33543        0.165597       0.0876031 
        4.35116        0.164669       0.0868032 
        4.36688        0.163416       0.0860136 
        4.38255        0.161599       0.0852368 
        4.39825        0.161189       0.0844678 
        4.41398         0.15987       0.0837068 
         4.4297        0.159066        0.082956 
        4.44541        0.157619       0.0822146 
        4.46111         0.15697       0.0814827 
        4.47683        0.156216       0.0807592 
        4.49251        0.155004        0.080046 
        4.50819        0.154701       0.0793416 
         4.5239        0.153835       0.0786446 
        4.53962        0.152805       0.0779552 
        4.55535        0.152376       0.0772736 
        4.57106        0.151791       0.0766012 
        4.58678        0.150708       0.0759367 
         4.6025        0.150774       0.0752798 
        4.61821        0.150395       0.0746309 
        4.63391        0.149691       0.0739904 
         4.6496        0.149122       0.0733577 
        4.66532        0.148734       0.0727314 
        4.68103        0.148319       0.0721127 
        4.69673        0.148223       0.0715018 
        4.71241        0.147896       0.0708985 
        4.72811        0.148002       0.0703012 
        4.74384        0.147449       0.0697101 
        4.75955        0.147278       0.0691266 
        4.77525        0.147337       0.0685501 
        4.79096         0.14704       0.0679795 
        4.80669        0.146581       0.0674151 
         4.8224        0.147109       0.0668578 
        4.83809        0.146809       0.0663073 
        4.85379        0.147033       0.0657627 
         4.8695        0.147186       0.0652238 
        4.88521        0.147168       0.0646911 
        4.90093         0.14766       0.0641643 
        4.91663        0.147496       0.0636438 
        4.93234        0.147733       0.0631286 
        4.94807        0.148065       0.0626187 
        4.96377         0.14882       0.0621154 
        4.97943        0.149304       0.0616187 
        4.99514        0.148565       0.0611261 
        5.01086        0.149843       0.0606385 
        5.02654        0.150156       0.0601575 
        5.04227        0.150609       0.0596803 
          5.058        0.151771        0.059208 
        5.07371        0.151713       0.0587418 
        5.08942        0.152846       0.0582805 
        5.10513        0.153322       0.0578241 
        5.12084        0.153872       0.0573724 
        5.13656        0.154578       0.0569256 
        5.15225        0.155535       0.0564843 
        5.16796        0.156796        0.056047 
        5.18369        0.157321       0.0556139 
         5.1994        0.158442       0.0551862 
        5.21509        0.158812       0.0547633 
        5.23079        0.159866       0.0543444 
        5.24649        0.160951       0.0539302 
        5.26217        0.162433       0.0535205 
        5.27788        0.162862       0.0531146 
        5.29359        0.164478       0.0527128 
        5.30933        0.165694       0.0523146 
        5.32504        0.166833       0.0519211 
        5.34073         0.16831       0.0515321 
        5.35646        0.169418       0.0511463 
        5.37218        0.171325       0.0507644 
        5.38789        0.171609        0.050387 
        5.40357        0.173206       0.0500139 
        5.41929        0.174559       0.0496437 
        5.43502        0.176913       0.0492772 
         5.4507        0.178238       0.0489153 
        5.46639        0.179769        0.048557 
        5.48212        0.181201       0.0482014 
        5.49786        0.182987        0.047849 
        5.51353        0.185918       0.0475018 
        5.52921        0.185944       0.0471577 
        5.54495        0.188345        0.046816 
        5.56066        0.190575       0.0464781 
        5.57637        0.192279       0.0461436 
        5.59207           0.194       0.0458126 
        5.60778        0.196316       0.0454847 
        5.62346        0.198637       0.0451606 
        5.63916        0.199598       0.0448392 
        5.65487        0.202392       0.0445208 
         5.6706        0.203281       0.0442052 
        5.68633        0.206813       0.0438925 
        5.70203        0.209688       0.0435834 
        5.71773        0.211412       0.0432774 
        5.73344        0.213621       0.0429742 
        5.74916        0.215581       0.0426735 
        5.76486        0.218863       0.0423762 
        5.78054         0.22001       0.0420821 
        5.79626        0.222745         0.04179 
          5.812        0.225826       0.0415004 
         5.8277         0.22788       0.0412144 
        5.84339        0.230473       0.0409311 
        5.85911        0.233772       0.0406499 
        5.87484        0.235733       0.0403714 
        5.89053        0.238572        0.040096 
        5.90623        0.240866       0.0398231 
        5.92195         0.24358       0.0395522 
        5.93767        0.246101        0.039284 
        5.95336         0.24858       0.0390188 
        5.96905        0.252031        0.038756 
        5.98476         0.25406       0.0384954 
        6.00048         0.25697        0.038237 
        6.01617        0.261423       0.0379814 
        6.03185        0.263813       0.0377284 
        6.04756        0.265117       0.0374771 
        6.06331        0.268254       0.0372275 
        6.07903        0.273644       0.0369808 
        6.09473        0.275083       0.0367365 
        6.11044        0.278145       0.0364942 
        6.12616        0.281008       0.0362541 
        6.14186        0.284381       0.0360164 
        6.15755        0.288357       0.0357809 
        6.17326        0.290192       0.0355472 
        6.18898        0.292925       0.0353156 
        6.20467        0.294303       0.0350864 
        6.22036         0.30017       0.0348593 
         6.2361        0.300573       0.0346336 
         6.2518         0.30489       0.0344102 
        6.26748        0.307622       0.0341893 
        6.28319        0.312087       0.0339698 
        6.29893        0.314351       0.0337519 
        6.31463         0.31718       0.0335364 
        6.33033        0.321378       0.0333228 
        6.34604        0.324968       0.0331109 
        6.36177        0.326031       0.0329006 
        6.37747         0.32962       0.0326926 
