# k  (h/Mpc)    Pcb(k)  (Mpc/h)^3    Pcb_linear(k) (Mpc/h)^3   ShotnoiseSubtracted = true
      0.0200456         8722.15         8846.15 
      0.0350414         6586.42         6430.86 
      0.0492313         4645.19         4672.54 
      0.0637834         3766.59         3884.24 
      0.0800726         2970.97         3082.82 
       0.096163         2308.12         2236.86 
       0.111083         1872.07         1784.17 
       0.126058         1568.77         1581.14 
       0.142273         1345.43         1339.58 
       0.158546         1102.23         1057.98 
        0.17375         958.372          891.35 
       0.188953         880.546         807.097 
       0.204907         750.236         714.117 
       0.220756         670.434         604.186 
        0.23588         593.568         525.589 
         0.2514         531.753         477.493 
       0.267535         512.141         432.049 
       0.283568         446.376         381.009 
       0.299022          422.78         339.459 
       0.314451         419.029         310.243 
       0.330372         361.258         284.613 
       0.346141         334.636          258.33 
       0.361624         317.572         234.786 
       0.377134         293.329          216.04 
       0.392932         285.569         199.898 
       0.408854         270.377         184.267 
       0.424564         259.477         169.842 
       0.440253         234.152         157.463 
       0.455999         222.096         146.699 
       0.471626         219.025         136.807 
        0.48727         209.531         127.554 
       0.502856         191.208         119.241 
       0.518488          190.53         111.824 
       0.534347         177.419         104.929 
       0.550082         173.346         98.5713 
       0.565732         170.851         92.7548 
       0.581496          158.42         87.4276 
       0.597222         154.974         82.5421 
       0.612804         150.002         78.0496 
       0.628434         145.559         73.8622 
       0.644267         138.333         69.9475 
       0.660051         134.535         66.3394 
       0.675724         132.887         63.0077 
       0.691403         129.544          59.902 
       0.707174         125.035         56.9882 
       0.722871         122.918         54.2798 
        0.73838           120.5         51.7764 
       0.754018         113.125          49.412 
       0.769845         112.748         47.1695 
        0.78569          109.65         45.0643 
       0.801365         106.225         43.1086 
       0.817031         102.971         41.2707 
       0.832809         101.191         39.5288 
       0.848511         98.8705         37.8957 
       0.864097         97.1538         36.3666 
       0.879701         95.5152         34.9208 
       0.895507         92.0759         33.5369 
       0.911279         90.5256         32.2312 
        0.92691         88.1454         31.0062 
       0.942635         86.2431         29.8384 
       0.958396         85.8155         28.7285 
       0.974128          83.829         27.6773 
       0.989692         81.9638         26.6893 
        1.00528          80.511         25.7483 
        1.02113         78.5384         24.8381 
        1.03692         78.4443         23.9755 
        1.05264         77.1124          23.158 
        1.06832         74.5518           22.38 
        1.08405         73.8948         21.6358 
        1.09979         73.2504         20.9252 
        1.11537         71.2722         20.2536 
        1.13105          70.009         19.6076 
        1.14679         69.1047         18.9874 
        1.16256         67.7878          18.393 
        1.17828         67.2215          17.826 
        1.19395         65.3669         17.2849 
         1.2097         65.5518         16.7637 
        1.22537         63.9059         16.2665 
          1.241         63.5488          15.791 
        1.25666          61.463         15.3335 
        1.27241          61.391         14.8919 
        1.28819         60.6677         14.4671 
        1.30392         59.4619         14.0602 
        1.31957         59.1613         13.6707 
        1.33529         58.2136         13.2946 
        1.35108         57.4566         12.9313 
        1.36674         56.5606         12.5841 
         1.3824         55.8078         12.2501 
        1.39811         54.8422         11.9271 
        1.41389         54.0168         11.6145 
        1.42964         53.6377         11.3137 
        1.44531         52.7721         11.0251 
        1.46101         52.3685         10.7459 
        1.47667         51.5398         10.4773 
        1.49229         50.8633         10.2186 
        1.50793         50.3726         9.96835 
        1.52367         49.8027          9.7249 
        1.53953         49.2122         9.48797 
        1.55526         48.4179         9.26084 
        1.57092         48.0922          9.0421 
        1.58662         47.4467         8.82993 
        1.60235           46.81         8.62417 
        1.61809         46.1238         8.42487 
        1.63369         45.5488         8.23366 
        1.64941         45.1651         8.04703 
        1.66519         44.3285         7.86553 
        1.68085         44.0263         7.69092 
        1.69652         43.2296         7.52158 
        1.71228         43.0827         7.35638 
        1.72806         42.4336         7.19603 
        1.74368         41.8843         7.04207 
        1.75933         41.6493         6.89232 
        1.77505         41.2607         6.74623 
        1.79081          40.722         6.60412 
         1.8065         40.1207         6.46673 
        1.82218          39.372         6.33337 
        1.83797         39.1486         6.20286 
        1.85367         38.7362         6.07676 
        1.86928         38.6581         5.95493 
        1.88497         37.8246         5.83578 
        1.90073         37.5242         5.71946 
        1.91647         37.3493         5.60641 
        1.93218          37.162         5.49667 
        1.94787         36.5415         5.39003 
        1.96363         35.9191          5.2858 
        1.97935         35.7622         5.18454 
        1.99499         35.3668         5.08652 
        2.01064         34.8462         4.99089 
         2.0264         34.6345         4.89712 
        2.04216           34.33         4.80581 
        2.05781         33.9121          4.7174 
        2.07353         33.4758         4.63091 
        2.08928         33.3541          4.5464 
        2.10499         32.9987         4.46423 
        2.12065         32.5588         4.38434 
        2.13633         32.3827         4.30634 
        2.15211         31.8019         4.22973 
        2.16785         31.4883          4.1552 
        2.18349         31.2203         4.08294 
        2.19916         30.9059         4.01225 
        2.21489         30.6526           3.943 
        2.23063         30.4029         3.87534 
         2.2463         30.1556         3.80957 
        2.26194         29.7166         3.74549 
        2.27765         29.4278         3.68256 
        2.29341         29.1227         3.62091 
        2.30914         28.8288         3.56081 
        2.32486         28.5344          3.5021 
        2.34061         28.3108         3.44462 
        2.35635         28.0075         3.38848 
        2.37203         27.7807         3.33379 
        2.38768           27.54         3.28042 
        2.40339         27.3524         3.22802 
        2.41914         27.0237         3.17665 
        2.43483         26.9208         3.12658 
         2.4505         26.4422         3.07767 
        2.46622         26.1572         3.02965 
        2.48195         25.9895         2.98264 
        2.49759         25.5955         2.93688 
        2.51328         25.4512         2.89197 
        2.52906         25.2761         2.84771 
        2.54479         24.9957         2.80454 
        2.56049         24.9299         2.76235 
        2.57618         24.5967         2.72107 
        2.59189         24.2721         2.68056 
        2.60758         24.1083         2.64095 
        2.62325         23.8129         2.60219 
        2.63898         23.7149         2.56407 
        2.65468         23.4504         2.52679 
        2.67044         23.1957         2.49009 
        2.68618         22.9258         2.45421 
        2.70184         22.6968         2.41918 
        2.71755         22.5251         2.38475 
        2.73329         22.2819         2.35093 
        2.74897         22.1509         2.31788 
        2.76462         21.9963         2.28554 
        2.78034         21.6412         2.25368 
        2.79607         21.4494          2.2224 
        2.81179          21.297         2.19174 
        2.82749         21.1013          2.1617 
        2.84321         20.9383         2.13219 
        2.85893         20.7176         2.10324 
        2.87462         20.5535         2.07487 
        2.89033         20.3851         2.04701 
        2.90605         20.1019         2.01963 
        2.92176          19.868         1.99276 
        2.93747         19.8017          1.9664 
        2.95318          19.658         1.94051 
        2.96891         19.3747         1.91507 
        2.98456         19.3079         1.89021 
        3.00023          19.025         1.86575 
        3.01596         18.8092         1.84164 
        3.03164         18.7042         1.81803 
        3.04738          18.561         1.79476 
         3.0631         18.3903         1.77191 
        3.07883         18.2122         1.74946 
        3.09456         18.0657          1.7274 
        3.11026         17.8865         1.70575 
        3.12596         17.6898         1.68448 
        3.14163         17.5824         1.66362 
        3.15734         17.4339         1.64306 
        3.17308         17.2942          1.6228 
        3.18879         17.0472         1.60294 
        3.20447         16.9957         1.58344 
         3.2202          16.787          1.5642 
         3.2359         16.6545         1.54532 
        3.25157         16.5339         1.52679 
        3.26729         16.3686         1.50851 
        3.28304         16.2918          1.4905 
        3.29877         16.1921          1.4728 
        3.31446         15.9903         1.45543 
        3.33014         15.8103         1.43835 
        3.34585         15.7445         1.42152 
        3.36158         15.5659         1.40494 
        3.37727         15.4172         1.38867 
        3.39294         15.2814         1.37268 
        3.40867         15.1643         1.35688 
        3.42439         15.0377         1.34133 
        3.44008         14.8986         1.32606 
        3.45578         14.7656         1.31102 
        3.47153         14.6715         1.29618 
        3.48724         14.5583         1.28159 
        3.50292         14.4584         1.26726 
        3.51859         14.3019         1.25316 
        3.53431         14.1715         1.23922 
        3.55007         14.0528         1.22547 
        3.56577         13.9606         1.21198 
        3.58146          13.812         1.19869 
        3.59719         13.7147         1.18558 
        3.61292         13.5818         1.17266 
        3.62859         13.4638         1.15999 
        3.64429         13.3636         1.14748 
        3.66003         13.2581         1.13512 
        3.67578         13.1668         1.12294 
        3.69146         13.0658         1.11099 
        3.70712         12.9027         1.09923 
        3.72284          12.808          1.0876 
        3.73853         12.7205         1.07616 
        3.75422         12.5737         1.06488 
        3.76993         12.4806         1.05375 
        3.78564         12.4128         1.04278 
        3.80137         12.2895         1.03195 
        3.81707         12.1728          1.0213 
        3.83279         12.1281         1.01079 
        3.84853         11.9901         1.00041 
        3.86424         11.8947        0.990198 
        3.87992         11.7913        0.980142 
        3.89561         11.7065        0.970226 
        3.91134         11.6186        0.960426 
        3.92704         11.5359        0.950773 
        3.94273         11.4452        0.941262 
        3.95845         11.3205        0.931864 
        3.97418         11.2268        0.922592 
        3.98988         11.1772        0.913459 
        4.00554           11.06        0.904474 
        4.02125         10.9792        0.895585 
        4.03698         10.8954        0.886801 
        4.05268         10.8145        0.878154 
        4.06839         10.6998        0.869617 
         4.0841         10.6266        0.861196 
        4.09983          10.546        0.852874 
        4.11555         10.4575        0.844665 
        4.13124         10.3698        0.836587 
        4.14693         10.2768        0.828608 
        4.16266         10.2114        0.820715 
        4.17839         10.1206        0.812928 
        4.19408         10.0521        0.805261 
        4.20977         9.94113        0.797689 
        4.22551         9.89006        0.790196 
        4.24123         9.82361        0.782807 
        4.25691         9.71935        0.775533 
        4.27259         9.64643        0.768349 
        4.28831         9.55774        0.761241 
        4.30404         9.52737        0.754216 
        4.31974         9.41865        0.747296 
        4.33543         9.35497        0.740466 
        4.35116         9.26725        0.733705 
        4.36688          9.2031        0.727031 
        4.38255         9.14109        0.720464 
        4.39825         9.04537        0.713965 
        4.41398         8.97907        0.707532 
         4.4297         8.90465        0.701186 
        4.44541         8.85519        0.694919 
        4.46111         8.76668        0.688733 
        4.47683         8.72427        0.682618 
        4.49251         8.62887         0.67659 
        4.50819         8.58192        0.670635 
         4.5239         8.51974        0.664744 
        4.53962         8.43366        0.658917 
        4.55535         8.39367        0.653156 
        4.57106          8.3098        0.647472 
        4.58678         8.27749        0.641855 
         4.6025         8.18243        0.636303 
        4.61821         8.12094        0.630818 
        4.63391         8.06638        0.625404 
         4.6496         8.01202        0.620056 
        4.66532         7.95973        0.614763 
        4.68103         7.87514        0.609533 
        4.69673         7.83114        0.604369 
        4.71241         7.75684         0.59927 
        4.72811         7.69264        0.594222 
        4.74384         7.68153        0.589225 
        4.75955         7.61374        0.584293 
        4.77525         7.56987         0.57942 
        4.79096          7.5102        0.574597 
        4.80669         7.43552        0.569827 
         4.8224         7.38687        0.565116 
        4.83809          7.3401        0.560463 
        4.85379         7.28126         0.55586 
         4.8695         7.25421        0.551304 
        4.88521         7.16695        0.546802 
        4.90093         7.13418        0.542349 
        4.91663         7.08134         0.53795 
        4.93234         7.02918        0.533595 
        4.94807         6.95664        0.529285 
        4.96377         6.92228        0.525031 
        4.97943         6.85637        0.520832 
        4.99514         6.81745        0.516669 
        5.01086         6.76976        0.512547 
        5.02654         6.72734        0.508482 
        5.04227         6.67315        0.504448 
          5.058         6.61618        0.500456 
        5.07371         6.61606        0.496515 
        5.08942         6.53695        0.492616 
        5.10513          6.4997        0.488759 
        5.12084         6.43956        0.484941 
        5.13656         6.39904        0.481164 
        5.15225         6.34068        0.477434 
        5.16796          6.3116        0.473738 
        5.18369         6.26566        0.470077 
         5.1994         6.21988        0.466461 
        5.21509         6.17508        0.462887 
        5.23079          6.1401        0.459346 
        5.24649         6.08263        0.455845 
        5.26217         6.05924        0.452383 
        5.27788         6.00447        0.448951 
        5.29359         5.97629        0.445555 
        5.30933         5.92615        0.442189 
        5.32504         5.89272        0.438863 
        5.34073         5.84765        0.435575 
        5.35646         5.80386        0.432315 
        5.37218         5.76319        0.429087 
        5.38789         5.72729        0.425897 
        5.40357         5.67774        0.422743 
        5.41929         5.64352        0.419614 
        5.43502         5.60728        0.416516 
         5.4507         5.56979        0.413457 
        5.46639         5.52721        0.410428 
        5.48212         5.50596        0.407423 
        5.49786         5.46236        0.404444 
        5.51353         5.43328        0.401509 
        5.52921          5.3827        0.398601 
        5.54495         5.35222        0.395713 
        5.56066         5.32026        0.392856 
        5.57637         5.28118        0.390029 
        5.59207         5.24442        0.387231 
        5.60778          5.2076         0.38446 
        5.62346         5.17586         0.38172 
        5.63916         5.13275        0.379004 
        5.65487         5.10438        0.376313 
         5.6706         5.07302        0.373645 
        5.68633         5.04437        0.371001 
        5.70203         4.99615        0.368389 
        5.71773         4.97712        0.365803 
        5.73344         4.93813        0.363239 
        5.74916         4.90764        0.360698 
        5.76486         4.88353        0.358185 
        5.78054         4.84519        0.355699 
        5.79626         4.80442        0.353231 
          5.812         4.77885        0.350783 
         5.8277          4.7538        0.348365 
        5.84339         4.72092         0.34597 
        5.85911         4.69694        0.343593 
        5.87484         4.64642        0.341239 
        5.89053         4.63246        0.338912 
        5.90623         4.60486        0.336605 
        5.92195         4.57905        0.334315 
        5.93767         4.53279        0.332048 
        5.95336         4.52239        0.329806 
        5.96905          4.4946        0.327586 
        5.98476         4.46125        0.325382 
        6.00048         4.43137        0.323199 
        6.01617         4.40276        0.321038 
        6.03185         4.37409        0.318899 
        6.04756         4.34558        0.316775 
        6.06331         4.32231        0.314666 
        6.07903         4.29561         0.31258 
        6.09473         4.26934        0.310515 
        6.11044         4.23653        0.308467 
        6.12616         4.22365        0.306438 
        6.14186         4.18278        0.304429 
        6.15755         4.15994        0.302438 
        6.17326         4.13234        0.300463 
        6.18898         4.11137        0.298505 
        6.20467         4.07908        0.296568 
        6.22036          4.0662        0.294649 
         6.2361         4.02954        0.292741 
         6.2518          4.0078        0.290853 
        6.26748         3.98315        0.288986 
        6.28319         3.96607         0.28713 
        6.29893         3.94039        0.285288 
        6.31463         3.91843        0.283466 
        6.33033         3.89497        0.281661 
        6.34604          3.8694         0.27987 
        6.36177         3.84931        0.278093 
        6.37747           3.833        0.276334 
