# k  (h/Mpc)    Pcb(k)  (Mpc/h)^3    Pcb_linear(k) (Mpc/h)^3   ShotnoiseSubtracted = true
      0.0200456         10306.3         10456.9 
      0.0350414         7795.41         7601.78 
      0.0492313          5480.2         5523.31 
      0.0637834         4438.45         4591.48 
      0.0800726          3498.5         3644.14 
       0.096163          2732.3         2644.14 
       0.111083         2218.42         2109.04 
       0.126058         1853.48         1869.04 
       0.142273          1594.4         1583.48 
       0.158546         1307.99         1250.62 
        0.17375         1140.99         1053.65 
       0.188953         1052.98         954.053 
       0.204907         898.274         844.143 
       0.220756         804.076         714.196 
        0.23588         713.357         621.288 
         0.2514         638.764         564.434 
       0.267535         617.734         510.716 
       0.283568         538.975         450.383 
       0.299022         512.357         401.268 
       0.314451         513.102         366.732 
       0.330372         441.218         336.435 
       0.346141         408.923         305.366 
       0.361624         389.531         277.536 
       0.377134         362.059         255.377 
       0.392932         351.947         236.295 
       0.408854         334.056         217.819 
       0.424564          321.77         200.767 
       0.440253         290.483         186.134 
       0.455999         277.091          173.41 
       0.471626         275.744         161.717 
        0.48727         262.582         150.779 
       0.502856         240.096         140.953 
       0.518488         240.627         132.185 
       0.534347         223.513         124.035 
       0.550082         218.006         116.519 
       0.565732         215.982         109.644 
       0.581496         202.228         103.346 
       0.597222         197.442         97.5713 
       0.612804         191.563         92.2608 
       0.628434         185.233          87.311 
       0.644267         176.563         82.6834 
       0.660051         172.619         78.4184 
       0.675724         170.796         74.4801 
       0.691403         166.291          70.809 
       0.707174         160.576         67.3646 
       0.722871         158.032         64.1631 
        0.73838         156.076         61.2038 
       0.754018         146.812         58.4089 
       0.769845         146.638         55.7581 
        0.78569         142.744         53.2696 
       0.801365         138.481         50.9577 
       0.817031         134.732         48.7852 
       0.832809         132.466         46.7262 
       0.848511         129.319         44.7958 
       0.864097         127.017         42.9882 
       0.879701         125.335         41.2791 
       0.895507         121.541         39.6433 
       0.911279         118.757         38.0999 
        0.92691         116.269         36.6518 
       0.942635             114         35.2713 
       0.958396         112.771         33.9593 
       0.974128         110.311         32.7168 
       0.989692         107.774         31.5489 
        1.00528         106.337         30.4366 
        1.02113          103.54         29.3607 
        1.03692         103.198          28.341 
        1.05264         101.842         27.3746 
        1.06832          98.627         26.4549 
        1.08405         97.7783         25.5752 
        1.09979         96.9924         24.7352 
        1.11537         94.3522         23.9414 
        1.13105         93.2543         23.1778 
        1.14679         91.6924         22.4447 
        1.16256         89.8474          21.742 
        1.17828         89.0767         21.0718 
        1.19395           86.68         20.4322 
         1.2097         86.5858          19.816 
        1.22537         84.5332         19.2283 
          1.241         84.3153         18.6662 
        1.25666         81.3851         18.1254 
        1.27241         80.8736         17.6035 
        1.28819         80.3292         17.1013 
        1.30392         78.7324         16.6202 
        1.31957         77.9893         16.1599 
        1.33529         76.8928         15.7153 
        1.35108         76.3681         15.2858 
        1.36674         75.0372         14.8754 
         1.3824         74.3978         14.4806 
        1.39811         72.5975         14.0988 
        1.41389         71.6069         13.7293 
        1.42964         70.7852         13.3737 
        1.44531         70.1798         13.0325 
        1.46101         69.4717         12.7025 
        1.47667         68.4136          12.385 
        1.49229         67.6121         12.0792 
        1.50793           66.77         11.7834 
        1.52367          66.261         11.4956 
        1.53953         65.1606         11.2155 
        1.55526         64.0971          10.947 
        1.57092         63.9772         10.6885 
        1.58662          63.009         10.4377 
        1.60235         62.1557         10.1945 
        1.61809         61.0971         9.95887 
        1.63369         60.4282         9.73284 
        1.64941         60.1891         9.51223 
        1.66519         58.7294         9.29768 
        1.68085         58.4318         9.09128 
        1.69652         57.2306          8.8911 
        1.71228         56.9526         8.69583 
        1.72806         56.3754         8.50627 
        1.74368         55.5605         8.32429 
        1.75933         55.1399         8.14727 
        1.77505         54.5715         7.97458 
        1.79081          53.777          7.8066 
         1.8065          53.402         7.64419 
        1.82218         51.9275         7.48655 
        1.83797         51.6417         7.33228 
        1.85367         51.2691         7.18322 
        1.86928         50.8414          7.0392 
        1.88497         49.9381         6.89836 
        1.90073         49.2907         6.76085 
        1.91647          49.125         6.62723 
        1.93218         48.7636          6.4975 
        1.94787         47.9366         6.37144 
        1.96363         47.2117         6.24823 
        1.97935         46.8379         6.12854 
        1.99499         46.2905         6.01267 
        2.01064         45.7184         5.89962 
         2.0264         45.5384         5.78878 
        2.04216         44.7863         5.68084 
        2.05781         44.2849         5.57634 
        2.07353         43.5847          5.4741 
        2.08928          43.499         5.37421 
        2.10499         43.0672         5.27708 
        2.12065         42.4944         5.18264 
        2.13633         42.2372         5.09043 
        2.15211         41.5602         4.99988 
        2.16785         40.9107         4.91178 
        2.18349         40.5504         4.82636 
        2.19916         40.1714          4.7428 
        2.21489         39.9422         4.66094 
        2.23063         39.3589         4.58095 
         2.2463           39.09         4.50321 
        2.26194         38.5842         4.42747 
        2.27765         38.1238         4.35308 
        2.29341         37.6581         4.28021 
        2.30914         37.3324         4.20916 
        2.32486         36.7708         4.13976 
        2.34061         36.5557         4.07181 
        2.35635          36.177         4.00545 
        2.37203         35.8543          3.9408 
        2.38768         35.5697         3.87771 
        2.40339         35.2656         3.81578 
        2.41914         34.8747         3.75505 
        2.43483         34.4213         3.69587 
         2.4505         34.1659         3.63805 
        2.46622         33.7442         3.58128 
        2.48195         33.5209         3.52572 
        2.49759         33.0247         3.47163 
        2.51328         32.7018         3.41854 
        2.52906         32.4823         3.36622 
        2.54479         32.1379         3.31519 
        2.56049         31.9271         3.26532 
        2.57618         31.5187         3.21652 
        2.59189         31.1655         3.16864 
        2.60758         30.8395         3.12181 
        2.62325         30.6622         3.07599 
        2.63898         30.3956         3.03093 
        2.65468         29.9447         2.98687 
        2.67044         29.7614         2.94349 
        2.68618         29.5008         2.90107 
        2.70184         29.1504         2.85966 
        2.71755         28.8858         2.81896 
        2.73329         28.5925         2.77899 
        2.74897         28.2868         2.73992 
        2.76462         28.0708         2.70169 
        2.78034         27.7546         2.66403 
        2.79607         27.5018         2.62705 
        2.81179         27.2734         2.59082 
        2.82749         26.9711          2.5553 
        2.84321         26.7193         2.52042 
        2.85893         26.5214          2.4862 
        2.87462         26.2826         2.45267 
        2.89033         25.9983         2.41973 
        2.90605         25.7659         2.38736 
        2.92176         25.5325         2.35561 
        2.93747         25.2734         2.32444 
        2.95318         25.1612         2.29384 
        2.96891         24.8194         2.26377 
        2.98456         24.6166         2.23438 
        3.00023         24.2914         2.20546 
        3.01596         24.0052         2.17696 
        3.03164         23.8506         2.14905 
        3.04738         23.7141         2.12155 
         3.0631         23.4695         2.09454 
        3.07883         23.1731           2.068 
        3.09456         22.9684         2.04192 
        3.11026         22.7237         2.01633 
        3.12596         22.4854         1.99119 
        3.14163         22.3289         1.96653 
        3.15734         22.1741         1.94223 
        3.17308         21.8981         1.91828 
        3.18879         21.7269          1.8948 
        3.20447         21.5823         1.87175 
         3.2202         21.3189         1.84901 
         3.2359          21.111         1.82669 
        3.25157         20.9223         1.80479 
        3.26729         20.8052         1.78318 
        3.28304         20.5865         1.76189 
        3.29877         20.3984         1.74097 
        3.31446         20.2251         1.72043 
        3.33014          19.984         1.70025 
        3.34585         19.9086         1.68035 
        3.36158         19.6204         1.66075 
        3.37727         19.5026         1.64152 
        3.39294         19.3684         1.62261 
        3.40867         19.1589         1.60394 
        3.42439         18.9602         1.58556 
        3.44008         18.7945         1.56751 
        3.45578         18.6268         1.54973 
        3.47153         18.4687         1.53218 
        3.48724         18.3456         1.51494 
        3.50292         18.1444           1.498 
        3.51859         18.0088         1.48133 
        3.53431         17.8452         1.46486 
        3.55007         17.6465          1.4486 
        3.56577         17.5555         1.43265 
        3.58146         17.3489         1.41695 
        3.59719          17.229         1.40145 
        3.61292         17.0801         1.38618 
        3.62859         16.8698          1.3712 
        3.64429          16.734         1.35641 
        3.66003         16.6608          1.3418 
        3.67578         16.5538         1.32741 
        3.69146         16.3452         1.31328 
        3.70712         16.2051         1.29938 
        3.72284         16.0698         1.28563 
        3.73853         15.9792          1.2721 
        3.75422         15.7485         1.25877 
        3.76993         15.6624         1.24561 
        3.78564         15.5116         1.23265 
        3.80137         15.3722         1.21985 
        3.81707         15.2337         1.20726 
        3.83279         15.1555         1.19483 
        3.84853         14.9828         1.18257 
        3.86424         14.8336         1.17049 
        3.87992         14.7699         1.15861 
        3.89561         14.6247         1.14688 
        3.91134          14.526          1.1353 
        3.92704         14.3989         1.12389 
        3.94273         14.2628         1.11265 
        3.95845         14.1359         1.10154 
        3.97418         13.9959         1.09058 
        3.98988         13.9051         1.07978 
        4.00554         13.7806         1.06916 
        4.02125         13.6624         1.05865 
        4.03698         13.5791         1.04827 
        4.05268         13.4586         1.03805 
        4.06839         13.3083         1.02796 
         4.0841         13.2351           1.018 
        4.09983         13.0669         1.00816 
        4.11555         13.0008        0.998462 
        4.13124         12.8925        0.988913 
        4.14693         12.7868        0.979481 
        4.16266         12.6795         0.97015 
        4.17839         12.5536        0.960946 
        4.19408          12.484        0.951882 
        4.20977         12.3769        0.942932 
        4.22551         12.2644        0.934075 
        4.24123         12.1816         0.92534 
        4.25691         12.0617        0.916742 
        4.27259          11.959        0.908249 
        4.28831         11.9086        0.899847 
        4.30404         11.7868        0.891544 
        4.31974         11.7021        0.883363 
        4.33543         11.5575        0.875289 
        4.35116         11.5101        0.867297 
        4.36688         11.3782        0.859408 
        4.38255         11.2874        0.851646 
        4.39825         11.2134        0.843963 
        4.41398         11.1335         0.83636 
         4.4297         11.0298        0.828858 
        4.44541         10.9556         0.82145 
        4.46111         10.8593        0.814137 
        4.47683         10.7589        0.806909 
        4.49251         10.6767        0.799783 
        4.50819         10.5936        0.792744 
         4.5239         10.5325        0.785781 
        4.53962         10.4308        0.778892 
        4.55535          10.344        0.772082 
        4.57106         10.3072        0.765364 
        4.58678         10.2028        0.758724 
         4.6025         10.1342        0.752161 
        4.61821         10.0658        0.745677 
        4.63391         9.96035        0.739277 
         4.6496         9.87531        0.732956 
        4.66532         9.81883        0.726698 
        4.68103         9.71438        0.720516 
        4.69673         9.64657        0.714412 
        4.71241         9.57799        0.708385 
        4.72811         9.50732        0.702417 
        4.74384         9.45102        0.696511 
        4.75955         9.35834        0.690681 
        4.77525         9.28502        0.684921 
        4.79096         9.23684         0.67922 
        4.80669         9.13975         0.67358 
         4.8224         9.08983        0.668012 
        4.83809         9.01012        0.662512 
        4.85379         8.95802         0.65707 
         4.8695         8.88012        0.651686 
        4.88521         8.79475        0.646363 
        4.90093         8.76362          0.6411 
        4.91663         8.67137          0.6359 
        4.93234         8.62019        0.630751 
        4.94807         8.55255        0.625657 
        4.96377         8.49965        0.620628 
        4.97943         8.43108        0.615665 
        4.99514          8.3626        0.610743 
        5.01086         8.31951        0.605872 
        5.02654          8.2338        0.601066 
        5.04227         8.17794        0.596298 
          5.058         8.12906        0.591579 
        5.07371         8.08033        0.586921 
        5.08942         7.99403        0.582312 
        5.10513         7.92785        0.577752 
        5.12084         7.88046        0.573239 
        5.13656          7.8375        0.568774 
        5.15225         7.76799        0.564365 
        5.16796          7.7071        0.559996 
        5.18369          7.6599        0.555668 
         5.1994         7.61467        0.551395 
        5.21509          7.5562         0.54717 
        5.23079         7.47632        0.542984 
        5.24649         7.44837        0.538845 
        5.26217         7.39215        0.534752 
        5.27788         7.33623        0.530696 
        5.29359         7.28461        0.526682 
        5.30933          7.2067        0.522703 
        5.32504         7.18161        0.518771 
        5.34073          7.1244        0.514885 
        5.35646         7.08269         0.51103 
        5.37218         7.03285        0.507214 
        5.38789         6.97573        0.503444 
        5.40357         6.92388        0.499716 
        5.41929          6.8942        0.496017 
        5.43502          6.8312        0.492355 
         5.4507         6.78423        0.488739 
        5.46639         6.73869        0.485159 
        5.48212         6.68462        0.481606 
        5.49786         6.64326        0.478085 
        5.51353         6.61057        0.474616 
        5.52921         6.54332        0.471178 
        5.54495         6.50276        0.467764 
        5.56066         6.46743        0.464388 
        5.57637         6.41708        0.461045 
        5.59207          6.3596        0.457738 
        5.60778         6.33471        0.454462 
        5.62346         6.28479        0.451223 
        5.63916         6.24807        0.448013 
        5.65487          6.1969        0.444832 
         5.6706         6.16107        0.441678 
        5.68633         6.11994        0.438553 
        5.70203         6.08492        0.435465 
        5.71773         6.03475        0.432408 
        5.73344         6.00355        0.429378 
        5.74916         5.95385        0.426374 
        5.76486         5.92165        0.423403 
        5.78054         5.86946        0.420465 
        5.79626         5.84037        0.417547 
          5.812         5.79754        0.414653 
         5.8277         5.75259        0.411795 
        5.84339         5.71879        0.408964 
        5.85911           5.677        0.406155 
        5.87484         5.64298        0.403372 
        5.89053         5.60145         0.40062 
        5.90623         5.57325        0.397894 
        5.92195         5.53673        0.395187 
        5.93767         5.50007        0.392508 
        5.95336         5.46074        0.389857 
        5.96905         5.42037        0.387232 
        5.98476         5.39463        0.384628 
        6.00048         5.35028        0.382046 
        6.01617         5.32162        0.379492 
        6.03185          5.2933        0.376964 
        6.04756         5.26615        0.374453 
        6.06331         5.21347         0.37196 
        6.07903         5.17417        0.369495 
        6.09473         5.14487        0.367054 
        6.11044         5.10875        0.364633 
        6.12616         5.08318        0.362234 
        6.14186         5.04881        0.359859 
        6.15755         5.01859        0.357506 
        6.17326            4.99        0.355172 
        6.18898         4.96041        0.352857 
        6.20467         4.92575        0.350567 
        6.22036         4.89413        0.348298 
         6.2361         4.86609        0.346043 
         6.2518         4.82925        0.343811 
        6.26748         4.80948        0.341604 
        6.28319         4.77612         0.33941 
        6.29893         4.74364        0.337234 
        6.31463         4.71541         0.33508 
        6.33033         4.68275        0.332946 
        6.34604         4.65589        0.330828 
        6.36177         4.62376        0.328728 
        6.37747         4.59986        0.326649 
