# k  (h/Mpc)    Pcb(k)  (Mpc/h)^3    Pcb_linear(k) (Mpc/h)^3   ShotnoiseSubtracted = true
      0.0200456         24544.5         25156.8 
      0.0350414         17377.4         18288.2 
      0.0492313           12962         13287.8 
      0.0637834         11255.9         11046.1 
      0.0800726         8874.51         8766.98 
       0.096163         6144.41         6361.21 
       0.111083         4958.67         5073.86 
       0.126058         4559.33         4496.48 
       0.142273         3950.72          3809.5 
       0.158546         3495.47         3008.71 
        0.17375            2803         2534.84 
       0.188953         2746.08         2295.24 
       0.204907         2579.71         2030.82 
       0.220756         2244.16         1718.19 
        0.23588         2015.93         1494.68 
         0.2514         1760.06          1357.9 
       0.267535         1765.07         1228.67 
       0.283568         1601.45         1083.52 
       0.299022          1520.2          965.36 
       0.314451         1448.88         882.273 
       0.330372         1326.85         809.387 
       0.346141         1288.52         734.642 
       0.361624         1238.76         667.689 
       0.377134         1157.04         614.379 
       0.392932         1107.74         568.473 
       0.408854         1092.44         524.022 
       0.424564         1006.92         482.999 
       0.440253         988.161         447.796 
       0.455999         963.708         417.185 
       0.471626         929.522         389.055 
        0.48727         892.158          362.74 
       0.502856         864.338         339.101 
       0.518488          860.08         318.008 
       0.534347         807.733         298.399 
       0.550082         792.657         280.319 
       0.565732         785.002         263.778 
       0.581496         745.628         248.628 
       0.597222         729.007         234.734 
       0.612804         719.112         221.959 
       0.628434         699.896         210.051 
       0.644267         682.259         198.918 
       0.660051         665.803         188.657 
       0.675724         657.791         179.182 
       0.691403         637.644          170.35 
       0.707174         617.155         162.064 
       0.722871         607.888         154.362 
        0.73838         596.768         147.243 
       0.754018         586.432         140.519 
       0.769845         576.908         134.141 
        0.78569         566.463         128.155 
       0.801365         551.822         122.593 
       0.817031         540.131         117.366 
       0.832809         534.243         112.413 
       0.848511         522.972         107.768 
       0.864097          506.48          103.42 
       0.879701         499.796         99.3083 
       0.895507         498.464         95.3727 
       0.911279         486.066         91.6596 
        0.92691         479.234         88.1759 
       0.942635         466.399         84.8548 
       0.958396           455.5         81.6985 
       0.974128         450.319         78.7091 
       0.989692         447.905         75.8995 
        1.00528         433.758         73.2235 
        1.02113         431.652         70.6351 
        1.03692         420.983         68.1819 
        1.05264         416.549          65.857 
        1.06832         405.896         63.6445 
        1.08405         401.105         61.5282 
        1.09979         395.269         59.5073 
        1.11537         388.262         57.5975 
        1.13105         382.478         55.7605 
        1.14679         371.858         53.9968 
        1.16256         364.696         52.3062 
        1.17828         364.503         50.6939 
        1.19395         356.335         49.1552 
         1.2097         348.162         47.6728 
        1.22537         342.465         46.2589 
          1.241         337.611         44.9068 
        1.25666         333.932         43.6055 
        1.27241         328.188         42.3499 
        1.28819         322.197         41.1418 
        1.30392         316.275         39.9845 
        1.31957         313.311          38.877 
        1.33529         309.583         37.8075 
        1.35108         302.733         36.7742 
        1.36674         297.457         35.7869 
         1.3824         294.967         34.8369 
        1.39811         289.791         33.9184 
        1.41389         286.618         33.0296 
        1.42964         282.759         32.1742 
        1.44531         279.315         31.3533 
        1.46101         273.009         30.5594 
        1.47667         269.847         29.7955 
        1.49229         266.783         29.0598 
        1.50793         260.264         28.3481 
        1.52367         259.029         27.6558 
        1.53953         254.221          26.982 
        1.55526         250.803         26.3361 
        1.57092         248.159         25.7141 
        1.58662         245.351         25.1107 
        1.60235         241.027         24.5255 
        1.61809          237.79         23.9588 
        1.63369         235.331          23.415 
        1.64941         230.816         22.8843 
        1.66519         228.818         22.3681 
        1.68085         225.943         21.8716 
        1.69652         222.585           21.39 
        1.71228         216.934         20.9202 
        1.72806         214.663         20.4642 
        1.74368         211.658         20.0263 
        1.75933         209.062         19.6005 
        1.77505         207.097          19.185 
        1.79081         204.465         18.7809 
         1.8065         200.039         18.3902 
        1.82218         198.003         18.0109 
        1.83797         197.094         17.6398 
        1.85367         193.581         17.2812 
        1.86928         190.156         16.9347 
        1.88497         188.143         16.5959 
        1.90073         185.517         16.2651 
        1.91647         184.426         15.9436 
        1.93218         181.171         15.6315 
        1.94787         177.413         15.3282 
        1.96363         175.496         15.0318 
        1.97935         173.601         14.7439 
        1.99499         171.713         14.4651 
        2.01064          169.29         14.1932 
         2.0264         168.043         13.9265 
        2.04216         165.602         13.6668 
        2.05781         163.156         13.4154 
        2.07353         161.603         13.1695 
        2.08928          158.53         12.9291 
        2.10499         157.451         12.6954 
        2.12065         155.111         12.4683 
        2.13633         152.674         12.2464 
        2.15211         150.785         12.0286 
        2.16785         149.535         11.8166 
        2.18349         147.835         11.6111 
        2.19916         145.757         11.4101 
        2.21489         144.372         11.2132 
        2.23063         142.151         11.0207 
         2.2463         140.249         10.8337 
        2.26194         138.107         10.6515 
        2.27765         136.937         10.4725 
        2.29341         135.409         10.2972 
        2.30914         133.982         10.1263 
        2.32486         131.982         9.95932 
        2.34061         130.453         9.79586 
        2.35635         128.779         9.63621 
        2.37203         127.593         9.48068 
        2.38768         125.582          9.3289 
        2.40339         124.344          9.1799 
        2.41914         122.839         9.03381 
        2.43483         121.359         8.89142 
         2.4505         120.134         8.75234 
        2.46622         118.622         8.61575 
        2.48195         116.718         8.48208 
        2.49759         115.626         8.35195 
        2.51328         114.702         8.22422 
        2.52906         113.074         8.09835 
        2.54479          111.82         7.97559 
        2.56049          110.06         7.85562 
        2.57618         109.357         7.73821 
        2.59189         108.393         7.62303 
        2.60758         107.068         7.51038 
        2.62325         105.399         7.40014 
        2.63898         104.202         7.29173 
        2.65468         103.018         7.18572 
        2.67044          102.12         7.08137 
        2.68618         101.207         6.97933 
        2.70184         100.211         6.87971 
        2.71755         98.5824         6.78178 
        2.73329         97.7294         6.68561 
        2.74897         96.7339         6.59162 
        2.76462          95.684         6.49965 
        2.78034         94.4415         6.40905 
        2.79607         93.2408         6.32009 
        2.81179         92.5739         6.23291 
        2.82749         91.5334         6.14748 
        2.84321         90.3404         6.06356 
        2.85893         89.4458         5.98122 
        2.87462         88.5234         5.90056 
        2.89033         87.4599         5.82131 
        2.90605         86.5725         5.74345 
        2.92176         85.5274         5.66705 
        2.93747         84.7188         5.59208 
        2.95318           83.88         5.51846 
        2.96891         83.1671         5.44612 
        2.98456         82.0793          5.3754 
        3.00023         81.2462         5.30583 
        3.01596         80.1272         5.23728 
        3.03164          79.474         5.17014 
        3.04738         78.4019         5.10398 
         3.0631         77.6643         5.03899 
        3.07883         76.9402         4.97514 
        3.09456         76.4267          4.9124 
        3.11026         75.4466         4.85084 
        3.12596         74.5298         4.79034 
        3.14163         74.0598         4.73102 
        3.15734         73.0606         4.67256 
        3.17308         72.2807         4.61495 
        3.18879         71.7085         4.55846 
        3.20447         70.7715         4.50301 
         3.2202         70.2295          4.4483 
         3.2359         69.3184          4.3946 
        3.25157         68.8989         4.34192 
        3.26729         68.1109         4.28993 
        3.28304         67.5861          4.2387 
        3.29877         66.7415         4.18837 
        3.31446          65.882         4.13897 
        3.33014         65.2442         4.09041 
        3.34585         64.5197         4.04255 
        3.36158         64.0879         3.99539 
        3.37727         63.5479         3.94913 
        3.39294         62.5895         3.90364 
        3.40867         62.1981         3.85871 
        3.42439         61.6524          3.8145 
        3.44008         60.8889         3.77108 
        3.45578         60.3019          3.7283 
        3.47153         59.6956         3.68608 
        3.48724         59.3146          3.6446 
        3.50292         58.7911         3.60385 
        3.51859         58.0532         3.56374 
        3.53431         57.6302         3.52412 
        3.55007          57.139         3.48501 
        3.56577         56.6796         3.44664 
        3.58146         56.0626         3.40886 
        3.59719         55.4399         3.37157 
        3.61292         54.9271         3.33484 
        3.62859         54.2965          3.2988 
        3.64429         53.9285         3.26323 
        3.66003         53.4889         3.22807 
        3.67578          52.868         3.19344 
        3.69146         52.3682         3.15944 
        3.70712         51.8646         3.12601 
        3.72284         51.4541         3.09293 
        3.73853         50.9138          3.0604 
        3.75422         50.3341         3.02831 
        3.76993         49.8806         2.99666 
        3.78564         49.4962         2.96547 
        3.80137         49.0554         2.93468 
        3.81707         48.4775         2.90439 
        3.83279         48.1096          2.8745 
        3.84853         47.7704         2.84498 
        3.86424         47.3398         2.81594 
        3.87992         46.8101         2.78734 
        3.89561         46.5007         2.75914 
        3.91134         46.0948         2.73127 
        3.92704         45.5166         2.70382 
        3.94273         45.1191         2.67678 
        3.95845         44.7945         2.65005 
        3.97418         44.4083         2.62368 
        3.98988         43.9095         2.59771 
        4.00554         43.6438         2.57216 
        4.02125         43.1469         2.54688 
        4.03698         42.7616          2.5219 
        4.05268          42.388         2.49731 
        4.06839          41.936         2.47303 
         4.0841         41.6715         2.44908 
        4.09983          41.425         2.42542 
        4.11555          40.888         2.40207 
        4.13124         40.5424          2.3791 
        4.14693         40.3046         2.35641 
        4.16266         39.9394         2.33396 
        4.17839         39.5872         2.31182 
        4.19408         39.0733         2.29001 
        4.20977         38.8619         2.26848 
        4.22551         38.5347         2.24717 
        4.24123         38.2275         2.22616 
        4.25691         37.8548         2.20547 
        4.27259         37.4696         2.18504 
        4.28831         37.2821         2.16483 
        4.30404          36.937         2.14485 
        4.31974         36.5938         2.12517 
        4.33543         36.2384         2.10575 
        4.35116         36.0792         2.08652 
        4.36688         35.6677         2.06754 
        4.38255         35.3259         2.04887 
        4.39825         35.0488         2.03038 
        4.41398         34.7791         2.01209 
         4.4297         34.4799         1.99404 
        4.44541         34.2354         1.97622 
        4.46111         33.9132         1.95863 
        4.47683          33.609         1.94124 
        4.49251         33.3554          1.9241 
        4.50819         33.0841         1.90716 
         4.5239         32.8823         1.89041 
        4.53962         32.5656         1.87384 
        4.55535         32.2736         1.85745 
        4.57106         31.9841         1.84129 
        4.58678         31.7293         1.82532 
         4.6025         31.4289         1.80953 
        4.61821         31.2153         1.79393 
        4.63391         30.9613         1.77853 
         4.6496         30.7218         1.76333 
        4.66532         30.4992         1.74827 
        4.68103         30.2532          1.7334 
        4.69673         29.9703         1.71871 
        4.71241         29.7863         1.70421 
        4.72811         29.5727         1.68986 
        4.74384         29.3188         1.67565 
        4.75955         28.9844         1.66162 
        4.77525         28.8625         1.64776 
        4.79096         28.5974         1.63405 
        4.80669         28.3699         1.62048 
         4.8224         28.1118         1.60708 
        4.83809         27.9452         1.59385 
        4.85379         27.7677         1.58076 
         4.8695         27.4707         1.56781 
        4.88521         27.2663           1.555 
        4.90093         27.0516         1.54234 
        4.91663         26.8005         1.52983 
        4.93234         26.5616         1.51744 
        4.94807          26.451         1.50519 
        4.96377         26.2544         1.49309 
        4.97943         26.0342         1.48115 
        4.99514          25.788         1.46931 
        5.01086         25.6395         1.45759 
        5.02654         25.3896         1.44603 
        5.04227         25.1964         1.43456 
          5.058         25.1063         1.42321 
        5.07371         24.8121           1.412 
        5.08942         24.5873         1.40091 
        5.10513         24.4395         1.38994 
        5.12084         24.3044         1.37908 
        5.13656         24.1147         1.36834 
        5.15225         23.9033         1.35773 
        5.16796         23.6961         1.34722 
        5.18369         23.5484         1.33681 
         5.1994         23.3372         1.32653 
        5.21509         23.1939         1.31637 
        5.23079          22.963          1.3063 
        5.24649         22.8607         1.29634 
        5.26217         22.6643         1.28649 
        5.27788         22.5031         1.27674 
        5.29359         22.3502         1.26708 
        5.30933         22.1269          1.2575 
        5.32504         21.9647         1.24805 
        5.34073         21.8681          1.2387 
        5.35646         21.7044         1.22942 
        5.37218         21.5229         1.22024 
        5.38789         21.3707         1.21117 
        5.40357         21.2245          1.2022 
        5.41929         21.0027          1.1933 
        5.43502         20.9409         1.18449 
         5.4507         20.7613          1.1758 
        5.46639         20.6087         1.16718 
        5.48212         20.4758         1.15864 
        5.49786         20.2987         1.15016 
        5.51353         20.1361         1.14182 
        5.52921          19.984         1.13355 
        5.54495         19.8579         1.12533 
        5.56066         19.7155         1.11721 
        5.57637         19.5625         1.10917 
        5.59207         19.4259         1.10121 
        5.60778         19.2719         1.09333 
        5.62346         19.1492         1.08554 
        5.63916         19.0057         1.07782 
        5.65487         18.9053         1.07016 
         5.6706         18.7404         1.06258 
        5.68633         18.6087         1.05506 
        5.70203         18.4584         1.04763 
        5.71773         18.3566         1.04027 
        5.73344         18.2605         1.03299 
        5.74916         18.0613         1.02576 
        5.76486         17.9632         1.01861 
        5.78054         17.8867         1.01154 
        5.79626         17.7243         1.00452 
          5.812          17.599        0.997561 
         5.8277         17.4668        0.990686 
        5.84339         17.3853        0.983876 
        5.85911         17.2609        0.977116 
        5.87484         17.0917        0.970421 
        5.89053         16.9789        0.963802 
        5.90623         16.8611        0.957242 
        5.92195         16.7459        0.950731 
        5.93767         16.6445        0.944285 
        5.95336         16.5351        0.937908 
        5.96905         16.4055        0.931593 
        5.98476         16.2981        0.925327 
        6.00048         16.1844        0.919117 
        6.01617         16.0559        0.912972 
        6.03185         15.9826        0.906891 
        6.04756         15.8166         0.90085 
        6.06331         15.7338        0.894852 
        6.07903         15.6493         0.88892 
        6.09473          15.515        0.883048 
        6.11044         15.3968        0.877224 
        6.12616         15.2932        0.871453 
        6.14186         15.1981         0.86574 
        6.15755         15.1093        0.860078 
        6.17326         15.0101        0.854462 
        6.18898         14.8997        0.848894 
        6.20467         14.8073        0.843385 
        6.22036         14.6966        0.837926 
         6.2361         14.5867          0.8325 
         6.2518         14.5242        0.827131 
        6.26748         14.4163        0.821822 
        6.28319         14.2903        0.816544 
        6.29893         14.2149        0.811308 
        6.31463          14.107        0.806126 
        6.33033         14.0431        0.800992 
        6.34604         13.9394        0.795898 
        6.36177         13.8409        0.790844 
        6.37747         13.7432        0.785843 
