# k  (h/Mpc)    Pcb(k)  (Mpc/h)^3    Pcb_linear(k) (Mpc/h)^3   ShotnoiseSubtracted = true
      0.0200456         1426.69         1445.02 
      0.0350414          1064.4         1050.48 
      0.0492313         765.453         763.259 
      0.0637834         627.229          634.49 
      0.0800726         496.448         503.579 
       0.096163         371.668          365.39 
       0.111083         298.462         291.445 
       0.126058         256.904         258.279 
       0.142273         217.267         218.819 
       0.158546         174.669         172.822 
        0.17375         149.141         145.602 
       0.188953         134.057         131.839 
       0.204907         115.264         116.651 
       0.220756         100.546         98.6937 
        0.23588         87.7313          85.855 
         0.2514         79.5266         77.9984 
       0.267535         72.9643         70.5751 
       0.283568          64.173         62.2378 
       0.299022         58.0304         55.4507 
       0.314451         54.3012         50.6781 
       0.330372         48.8484         46.4915 
       0.346141         44.5272         42.1981 
       0.361624         40.6391         38.3523 
       0.377134         37.2024         35.2902 
       0.392932         35.7529         32.6533 
       0.408854         32.4008         30.1001 
       0.424564         30.8114         27.7436 
       0.440253         28.1188         25.7216 
       0.455999         25.7231         23.9633 
       0.471626          24.205         22.3475 
        0.48727         23.3553          20.836 
       0.502856         21.8531         19.4781 
       0.518488         20.2185         18.2665 
       0.534347         18.9499         17.1402 
       0.550082         18.1769         16.1016 
       0.565732         17.3987         15.1515 
       0.581496         16.3665         14.2813 
       0.597222         15.4093         13.4832 
       0.612804         14.5653         12.7494 
       0.628434         14.1565         12.0654 
       0.644267         13.4177         11.4259 
       0.660051         12.7009         10.8365 
       0.675724         12.0292         10.2923 
       0.691403         11.6687         9.78499 
       0.707174         11.1184         9.30902 
       0.722871         10.8056         8.86661 
        0.73838         10.1373         8.45767 
       0.754018         9.65975         8.07144 
       0.769845         9.26092         7.70513 
        0.78569         9.01351         7.36125 
       0.801365         8.61456         7.04178 
       0.817031         8.32267         6.74156 
       0.832809         7.93903         6.45702 
       0.848511         7.71421         6.19026 
       0.864097         7.42997         5.94048 
       0.879701         7.25327         5.70431 
       0.895507         6.96092         5.47825 
       0.911279         6.68619         5.26497 
        0.92691          6.5005         5.06486 
       0.942635         6.26261         4.87409 
       0.958396         6.05265         4.69279 
       0.974128         5.90164         4.52108 
       0.989692         5.62382          4.3597 
        1.00528         5.53826         4.20599 
        1.02113         5.35821         4.05731 
        1.03692         5.22008          3.9164 
        1.05264         5.02965         3.78285 
        1.06832         4.90322         3.65577 
        1.08405         4.76974         3.53421 
        1.09979         4.64826         3.41812 
        1.11537         4.51651         3.30842 
        1.13105         4.38094          3.2029 
        1.14679         4.27316          3.1016 
        1.16256         4.14071         3.00449 
        1.17828         4.08137         2.91188 
        1.19395         3.93616         2.82349 
         1.2097         3.82415         2.73834 
        1.22537         3.71244         2.65713 
          1.241         3.63413         2.57946 
        1.25666         3.59276         2.50472 
        1.27241         3.50929          2.4326 
        1.28819         3.36822          2.3632 
        1.30392         3.29428         2.29673 
        1.31957         3.24513         2.23311 
        1.33529         3.13571         2.17168 
        1.35108         3.07545         2.11232 
        1.36674         2.99676         2.05562 
         1.3824         2.96137         2.00105 
        1.39811         2.88097         1.94829 
        1.41389         2.80956         1.89723 
        1.42964         2.75815          1.8481 
        1.44531         2.70853         1.80095 
        1.46101          2.6532         1.75535 
        1.47667         2.59805         1.71147 
        1.49229         2.51344         1.66921 
        1.50793         2.45585         1.62833 
        1.52367         2.41502         1.58856 
        1.53953         2.35829         1.54986 
        1.55526         2.35895         1.51276 
        1.57092         2.29303         1.47703 
        1.58662         2.26781         1.44237 
        1.60235         2.19642         1.40876 
        1.61809         2.16144          1.3762 
        1.63369         2.11791         1.34497 
        1.64941          2.0819         1.31448 
        1.66519         2.05296         1.28483 
        1.68085          2.0038         1.25631 
        1.69652         1.97024         1.22865 
        1.71228         1.93233         1.20166 
        1.72806         1.90573         1.17547 
        1.74368         1.87085         1.15032 
        1.75933         1.84316         1.12586 
        1.77505         1.80857           1.102 
        1.79081         1.77105         1.07878 
         1.8065         1.74891         1.05634 
        1.82218         1.70987         1.03456 
        1.83797         1.68203         1.01324 
        1.85367         1.65639        0.992639 
        1.86928         1.63139        0.972738 
        1.88497         1.59883        0.953275 
        1.90073         1.58636        0.934273 
        1.91647          1.5495        0.915807 
        1.93218         1.52988         0.89788 
        1.94787         1.50669        0.880461 
        1.96363         1.48588        0.863435 
        1.97935         1.45896        0.846895 
        1.99499         1.43735        0.830882 
        2.01064         1.41779        0.815261 
         2.0264          1.3915        0.799944 
        2.04216         1.37654        0.785028 
        2.05781          1.3496        0.770587 
        2.07353         1.34031        0.756459 
        2.08928          1.3155        0.742654 
        2.10499         1.29435        0.729232 
        2.12065         1.27793        0.716182 
        2.13633         1.26051         0.70344 
        2.15211         1.23686        0.690926 
        2.16785         1.22519        0.678752 
        2.18349          1.2041        0.666948 
        2.19916         1.19414        0.655401 
        2.21489         1.17804        0.644088 
        2.23063          1.1538        0.633036 
         2.2463         1.13779        0.622292 
        2.26194         1.12818        0.611826 
        2.27765         1.10733        0.601546 
        2.29341         1.09621        0.591476 
        2.30914         1.07693        0.581657 
        2.32486          1.0699        0.572067 
        2.34061         1.05493        0.562678 
        2.35635         1.04049        0.553508 
        2.37203         1.02603        0.544574 
        2.38768          1.0141        0.535856 
        2.40339         1.00494        0.527297 
        2.41914        0.992308        0.518906 
        2.43483         0.97961        0.510727 
         2.4505        0.965035        0.502738 
        2.46622        0.952726        0.494892 
        2.48195        0.943185        0.487214 
        2.49759        0.929683         0.47974 
        2.51328         0.91819        0.472403 
        2.52906         0.91105        0.465173 
        2.54479        0.896757        0.458121 
        2.56049          0.8884         0.45123 
        2.57618        0.877236        0.444486 
        2.59189        0.868596         0.43787 
        2.60758        0.857225        0.431399 
        2.62325        0.846713        0.425067 
        2.63898        0.839157         0.41884 
        2.65468        0.824916        0.412751 
        2.67044        0.821075        0.406757 
        2.68618        0.813893        0.400895 
        2.70184        0.801237        0.395173 
        2.71755        0.795466        0.389548 
        2.73329        0.784523        0.384024 
        2.74897        0.775545        0.378626 
        2.76462        0.766698        0.373343 
        2.78034        0.761998        0.368139 
        2.79607        0.752856        0.363029 
        2.81179        0.742967        0.358021 
        2.82749        0.735669        0.353114 
        2.84321        0.728058        0.348293 
        2.85893        0.719098        0.343564 
        2.87462        0.712537        0.338931 
        2.89033        0.708274        0.334379 
        2.90605        0.701698        0.329906 
        2.92176         0.69321        0.325518 
        2.93747        0.687138        0.321212 
        2.95318        0.678783        0.316982 
        2.96891        0.676153        0.312827 
        2.98456         0.66344        0.308765 
        3.00023         0.65955        0.304769 
        3.01596        0.653553        0.300832 
        3.03164        0.648173        0.296975 
        3.04738        0.641426        0.293174 
         3.0631           0.633        0.289442 
        3.07883        0.629245        0.285774 
        3.09456        0.624172         0.28217 
        3.11026        0.618036        0.278634 
        3.12596        0.611759        0.275159 
        3.14163        0.609655        0.271752 
        3.15734        0.602295        0.268394 
        3.17308        0.596146        0.265084 
        3.18879        0.593416         0.26184 
        3.20447        0.587248        0.258654 
         3.2202         0.57845        0.255512 
         3.2359        0.575334        0.252428 
        3.25157        0.569037        0.249401 
        3.26729        0.566514        0.246416 
        3.28304        0.562225        0.243473 
        3.29877        0.556494        0.240582 
        3.31446        0.554311        0.237744 
        3.33014        0.545781        0.234955 
        3.34585        0.542633        0.232206 
        3.36158         0.53841        0.229497 
        3.37727        0.535613        0.226839 
        3.39294        0.531536        0.224227 
        3.40867        0.526057        0.221646 
        3.42439        0.522481        0.219107 
        3.44008        0.517558        0.216612 
        3.45578        0.513718        0.214155 
        3.47153        0.511242         0.21173 
        3.48724        0.506173        0.209347 
        3.50292        0.501838        0.207007 
        3.51859        0.500225        0.204703 
        3.53431        0.494591        0.202427 
        3.55007        0.491741         0.20018 
        3.56577        0.488283        0.197976 
        3.58146        0.484749        0.195806 
        3.59719        0.480783        0.193664 
        3.61292        0.476469        0.191555 
        3.62859        0.473834        0.189485 
        3.64429        0.469659        0.187441 
        3.66003        0.466248        0.185421 
        3.67578        0.463654        0.183432 
        3.69146        0.460368         0.18148 
        3.70712        0.458209        0.179559 
        3.72284        0.454636        0.177659 
        3.73853        0.450976         0.17579 
        3.75422        0.447998        0.173947 
        3.76993        0.444151        0.172129 
        3.78564        0.440897        0.170338 
        3.80137        0.438688        0.168569 
        3.81707        0.434941        0.166829 
        3.83279        0.432467        0.165113 
        3.84853        0.428568        0.163417 
        3.86424          0.4265        0.161749 
        3.87992        0.424435        0.160106 
        3.89561        0.421057        0.158486 
        3.91134        0.416992        0.156886 
        3.92704          0.4143        0.155309 
        3.94273        0.412079        0.153755 
        3.95845        0.410071         0.15222 
        3.97418        0.407902        0.150705 
        3.98988         0.40431        0.149213 
        4.00554         0.39995        0.147746 
        4.02125        0.398208        0.146294 
        4.03698        0.394063        0.144859 
        4.05268        0.389379        0.143446 
        4.06839        0.387413        0.142052 
         4.0841        0.382702        0.140676 
        4.09983        0.380801        0.139317 
        4.11555        0.376906        0.137976 
        4.13124        0.374196        0.136656 
        4.14693        0.371627        0.135353 
        4.16266        0.366382        0.134064 
        4.17839        0.363851        0.132792 
        4.19408        0.362375        0.131539 
        4.20977         0.35897        0.130302 
        4.22551        0.356635        0.129078 
        4.24123        0.353609        0.127872 
        4.25691        0.351379        0.126683 
        4.27259        0.348283         0.12551 
        4.28831        0.346333        0.124349 
        4.30404        0.343959        0.123201 
        4.31974        0.341725        0.122071 
        4.33543         0.33868        0.120955 
        4.35116        0.337268        0.119851 
        4.36688        0.334875         0.11876 
        4.38255        0.332437        0.117688 
        4.39825        0.330552        0.116626 
        4.41398         0.32862        0.115575 
         4.4297        0.326932        0.114539 
        4.44541        0.324788        0.113515 
        4.46111        0.323214        0.112505 
        4.47683        0.322063        0.111506 
        4.49251        0.319992        0.110521 
        4.50819        0.319283        0.109548 
         4.5239        0.317238        0.108586 
        4.53962        0.315152        0.107634 
        4.55535        0.314445        0.106693 
        4.57106        0.313285        0.105765 
        4.58678        0.311125        0.104847 
         4.6025        0.310654         0.10394 
        4.61821        0.309198        0.103044 
        4.63391        0.309059         0.10216 
         4.6496        0.307082        0.101286 
        4.66532        0.306261        0.100421 
        4.68103        0.304625       0.0995672 
        4.69673        0.303685       0.0987236 
        4.71241        0.303291       0.0978907 
        4.72811        0.303244       0.0970661 
        4.74384        0.301685       0.0962498 
        4.75955        0.301024       0.0954442 
        4.77525        0.300141       0.0946483 
        4.79096        0.299909       0.0938604 
        4.80669        0.299275       0.0930812 
         4.8224         0.29839       0.0923116 
        4.83809        0.297744       0.0915516 
        4.85379        0.297696       0.0907996 
         4.8695        0.298033       0.0900555 
        4.88521        0.297528       0.0893201 
        4.90093        0.297106       0.0885927 
        4.91663        0.296733       0.0878741 
        4.93234        0.295759       0.0871627 
        4.94807         0.29619       0.0864586 
        4.96377        0.296396       0.0857637 
        4.97943        0.296103       0.0850779 
        4.99514        0.295647       0.0843978 
        5.01086        0.296745       0.0837246 
        5.02654         0.29649       0.0830604 
        5.04227         0.29616       0.0824015 
          5.058        0.297085       0.0817495 
        5.07371        0.296651       0.0811058 
        5.08942          0.2982       0.0804689 
        5.10513        0.298027       0.0798387 
        5.12084        0.298022        0.079215 
        5.13656        0.298389       0.0785981 
        5.15225        0.299073       0.0779888 
        5.16796        0.299567        0.077385 
        5.18369        0.299185        0.076787 
         5.1994        0.301246       0.0761964 
        5.21509         0.30127       0.0756126 
        5.23079        0.301363       0.0750342 
        5.24649        0.302866       0.0744623 
        5.26217        0.302697       0.0738967 
        5.27788          0.3045       0.0733362 
        5.29359        0.305132       0.0727814 
        5.30933        0.305702       0.0722316 
        5.32504         0.30705       0.0716883 
        5.34073        0.308661       0.0711512 
        5.35646           0.309       0.0706186 
        5.37218        0.309968       0.0700913 
        5.38789         0.30965       0.0695702 
        5.40357        0.312432        0.069055 
        5.41929        0.313409       0.0685439 
        5.43502        0.314532       0.0680379 
         5.4507        0.316064       0.0675382 
        5.46639        0.316597       0.0670434 
        5.48212        0.317802       0.0665525 
        5.49786        0.318926       0.0660659 
        5.51353        0.321141       0.0655865 
        5.52921        0.321441       0.0651114 
        5.54495        0.323991       0.0646397 
        5.56066        0.324769       0.0641731 
        5.57637        0.325913       0.0637112 
        5.59207        0.328108       0.0632542 
        5.60778        0.329241       0.0628015 
        5.62346        0.331081       0.0623539 
        5.63916        0.332181       0.0619102 
        5.65487        0.333532       0.0614707 
         5.6706        0.335093       0.0610348 
        5.68633         0.33726       0.0606031 
        5.70203        0.340039       0.0601763 
        5.71773        0.339898       0.0597538 
        5.73344        0.342674       0.0593351 
        5.74916        0.345264         0.05892 
        5.76486        0.346054       0.0585095 
        5.78054        0.347555       0.0581035 
        5.79626        0.349173       0.0577002 
          5.812        0.352062       0.0573003 
         5.8277        0.353521       0.0569054 
        5.84339        0.354505       0.0565142 
        5.85911        0.358203       0.0561259 
        5.87484        0.358721       0.0557414 
        5.89053         0.36179       0.0553612 
        5.90623        0.363353       0.0549844 
        5.92195        0.364302       0.0546104 
        5.93767        0.366641       0.0542401 
        5.95336        0.368265       0.0538738 
        5.96905        0.370072       0.0535111 
        5.98476        0.371622       0.0531512 
        6.00048        0.373291       0.0527945 
        6.01617        0.376768       0.0524415 
        6.03185        0.377719       0.0520922 
        6.04756        0.379325       0.0517452 
        6.06331        0.382362       0.0514007 
        6.07903        0.383785         0.05106 
        6.09473         0.38527       0.0507227 
        6.11044        0.386647       0.0503881 
        6.12616        0.389709       0.0500566 
        6.14186        0.390038       0.0497284 
        6.15755        0.394933       0.0494032 
        6.17326        0.395451       0.0490807 
        6.18898          0.3969       0.0487608 
        6.20467        0.399552       0.0484444 
        6.22036        0.400247       0.0481308 
         6.2361        0.402489       0.0478192 
         6.2518         0.40515       0.0475108 
        6.26748        0.406401       0.0472058 
        6.28319         0.40979       0.0469026 
        6.29893        0.411503       0.0466018 
        6.31463        0.412686       0.0463042 
        6.33033        0.415301       0.0460093 
        6.34604        0.416972       0.0457167 
        6.36177        0.418503       0.0454264 
        6.37747        0.419652       0.0451392 
