# k  (h/Mpc)    Pcb(k)  (Mpc/h)^3    Pcb_linear(k) (Mpc/h)^3   ShotnoiseSubtracted = true
      0.0200456         1031.97         1046.57 
      0.0350414         756.913         760.822 
      0.0492313         554.662         552.799 
      0.0637834         463.282         459.537 
      0.0800726         367.271         364.723 
       0.096163         263.916         264.638 
       0.111083          209.62         211.082 
       0.126058         187.871         187.062 
       0.142273         159.976         158.483 
       0.158546         127.134         125.168 
        0.17375         105.437         105.454 
       0.188953         96.6056         95.4862 
       0.204907         87.7827         84.4858 
       0.220756         73.3337         71.4801 
        0.23588         63.8271         62.1815 
         0.2514          57.349         56.4912 
       0.267535          52.307         51.1149 
       0.283568         46.4899         45.0765 
       0.299022         41.8512         40.1608 
       0.314451          37.496         36.7042 
       0.330372         34.7649          33.672 
       0.346141         31.5801         30.5625 
       0.361624         28.9969         27.7771 
       0.377134         27.0273         25.5593 
       0.392932         24.1049         23.6495 
       0.408854         23.0247         21.8003 
       0.424564         21.2851         20.0937 
       0.440253         19.6498         18.6292 
       0.455999         18.4942         17.3557 
       0.471626         17.3693         16.1854 
        0.48727         16.2245         15.0907 
       0.502856         15.1137         14.1072 
       0.518488         14.4214         13.2297 
       0.534347         13.7401          12.414 
       0.550082         12.5624         11.6618 
       0.565732           11.61         10.9736 
       0.581496         11.3397         10.3434 
       0.597222         10.8493         9.76539 
       0.612804         10.1071          9.2339 
       0.628434          9.7289          8.7385 
       0.644267         9.28217         8.27535 
       0.660051         8.75007         7.84848 
       0.675724         8.31382         7.45432 
       0.691403         8.01782          7.0869 
       0.707174         7.60502         6.74217 
       0.722871          7.2769         6.42174 
        0.73838         6.98843         6.12557 
       0.754018         6.75428         5.84584 
       0.769845         6.40066         5.58053 
        0.78569         6.18086         5.33147 
       0.801365         5.90783         5.10009 
       0.817031         5.70639         4.88266 
       0.832809         5.50583         4.67658 
       0.848511         5.19861         4.48337 
       0.864097         5.01035         4.30246 
       0.879701         4.84083         4.13141 
       0.895507         4.63343         3.96769 
       0.911279         4.55881         3.81321 
        0.92691         4.38128         3.66828 
       0.942635         4.18964         3.53012 
       0.958396         4.03861         3.39881 
       0.974128         3.92464         3.27445 
       0.989692           3.844         3.15756 
        1.00528         3.67151         3.04624 
        1.02113         3.53561         2.93855 
        1.03692         3.47041          2.8365 
        1.05264         3.34434         2.73977 
        1.06832         3.26244         2.64773 
        1.08405         3.10718         2.55969 
        1.09979         3.04292         2.47562 
        1.11537         2.96365         2.39617 
        1.13105         2.88509         2.31974 
        1.14679         2.80618         2.24637 
        1.16256         2.71142         2.17604 
        1.17828         2.64918         2.10896 
        1.19395         2.57712         2.04495 
         1.2097         2.46672         1.98328 
        1.22537         2.41433         1.92446 
          1.241         2.36287         1.86821 
        1.25666         2.34134         1.81407 
        1.27241         2.23181         1.76184 
        1.28819         2.18235         1.71158 
        1.30392         2.14256         1.66343 
        1.31957         2.09097         1.61736 
        1.33529         2.02726         1.57286 
        1.35108         1.98217         1.52987 
        1.36674         1.92382          1.4888 
         1.3824         1.87412         1.44928 
        1.39811         1.83236         1.41107 
        1.41389         1.80084         1.37409 
        1.42964         1.75941         1.33851 
        1.44531         1.71877         1.30436 
        1.46101         1.68362         1.27133 
        1.47667         1.62404         1.23955 
        1.49229         1.61153         1.20894 
        1.50793         1.56724         1.17934 
        1.52367         1.54269         1.15053 
        1.53953         1.49215          1.1225 
        1.55526          1.4639         1.09563 
        1.57092         1.43567         1.06975 
        1.58662         1.41019         1.04465 
        1.60235         1.37614         1.02031 
        1.61809         1.34531        0.996731 
        1.63369         1.33254        0.974109 
        1.64941         1.29442        0.952029 
        1.66519         1.27396        0.930556 
        1.68085         1.23561        0.909898 
        1.69652         1.21615        0.889864 
        1.71228         1.19998        0.870319 
        1.72806         1.16568        0.851348 
        1.74368         1.15204        0.833134 
        1.75933         1.12417        0.815417 
        1.77505          1.1066        0.798133 
        1.79081         1.08632        0.781321 
         1.8065          1.0599        0.765066 
        1.82218         1.04851        0.749289 
        1.83797         1.03005        0.733849 
        1.85367         1.01845         0.71893 
        1.86928        0.998023        0.704517 
        1.88497        0.972248         0.69042 
        1.90073        0.951762        0.676658 
        1.91647           0.946        0.663284 
        1.93218         0.92646          0.6503 
        1.94787        0.907062        0.637684 
        1.96363        0.891105        0.625353 
        1.97935        0.875402        0.613373 
        1.99499        0.860235        0.601776 
        2.01064        0.846079        0.590462 
         2.0264        0.836869        0.579368 
        2.04216        0.821137        0.568566 
        2.05781        0.806486        0.558107 
        2.07353        0.794638        0.547874 
        2.08928        0.778471        0.537876 
        2.10499        0.768441        0.528155 
        2.12065        0.761599        0.518703 
        2.13633        0.746652        0.509475 
        2.15211        0.732225        0.500411 
        2.16785        0.719076        0.491594 
        2.18349         0.71079        0.483045 
        2.19916         0.69957        0.474682 
        2.21489        0.686872        0.466489 
        2.23063        0.676556        0.458484 
         2.2463        0.672097        0.450703 
        2.26194        0.653004        0.443122 
        2.27765        0.645588        0.435677 
        2.29341         0.63969        0.428383 
        2.30914        0.633638        0.421272 
        2.32486        0.621676        0.414327 
        2.34061        0.611538        0.407526 
        2.35635        0.599993        0.400885 
        2.37203        0.593565        0.394414 
        2.38768        0.586312          0.3881 
        2.40339        0.578486        0.381901 
        2.41914        0.571131        0.375824 
        2.43483        0.561409          0.3699 
         2.4505        0.552925        0.364114 
        2.46622        0.545759        0.358432 
        2.48195        0.541963         0.35287 
        2.49759        0.532417        0.347457 
        2.51328        0.522701        0.342143 
        2.52906        0.517306        0.336907 
        2.54479         0.51084          0.3318 
        2.56049        0.502236        0.326808 
        2.57618        0.497755        0.321924 
        2.59189        0.491021        0.317133 
        2.60758        0.485448        0.312446 
        2.62325        0.478214         0.30786 
        2.63898        0.473774         0.30335 
        2.65468        0.466532         0.29894 
        2.67044         0.45949        0.294598 
        2.68618        0.454114        0.290353 
        2.70184        0.448547        0.286209 
        2.71755        0.442407        0.282135 
        2.73329        0.437799        0.278134 
        2.74897         0.43318        0.274224 
        2.76462        0.427056        0.270398 
        2.78034        0.422335        0.266629 
        2.79607        0.417173        0.262928 
        2.81179        0.411538        0.259301 
        2.82749        0.407506        0.255747 
        2.84321        0.403449        0.252255 
        2.85893         0.39772         0.24883 
        2.87462        0.393193        0.245474 
        2.89033        0.387751        0.242178 
        2.90605        0.384702        0.238938 
        2.92176        0.379342         0.23576 
        2.93747        0.375448        0.232641 
        2.95318        0.371182        0.229578 
        2.96891        0.367343        0.226569 
        2.98456        0.363501        0.223627 
        3.00023        0.359789        0.220733 
        3.01596        0.354775        0.217881 
        3.03164        0.351894        0.215088 
        3.04738        0.346008        0.212335 
         3.0631        0.344168        0.209632 
        3.07883        0.339099        0.206975 
        3.09456          0.3354        0.204365 
        3.11026        0.332739        0.201804 
        3.12596         0.32813        0.199287 
        3.14163        0.325878        0.196819 
        3.15734        0.323444        0.194387 
        3.17308        0.318967         0.19199 
        3.18879        0.316374        0.189641 
        3.20447        0.311855        0.187334 
         3.2202        0.310122        0.185058 
         3.2359        0.306483        0.182824 
        3.25157        0.303276        0.180632 
        3.26729         0.30098        0.178469 
        3.28304        0.297933        0.176338 
        3.29877        0.294512        0.174244 
        3.31446        0.292342        0.172189 
        3.33014        0.289326        0.170169 
        3.34585        0.288056        0.168178 
        3.36158        0.284391        0.166216 
        3.37727        0.281688        0.164291 
        3.39294        0.279244        0.162399 
        3.40867        0.276112        0.160529 
        3.42439        0.274404         0.15869 
        3.44008        0.271956        0.156884 
        3.45578        0.270355        0.155104 
        3.47153        0.267046        0.153348 
        3.48724        0.265875        0.151622 
        3.50292        0.263522        0.149927 
        3.51859        0.260068        0.148258 
        3.53431        0.258187         0.14661 
        3.55007        0.256809        0.144983 
        3.56577        0.253664        0.143387 
        3.58146        0.251346        0.141815 
        3.59719        0.249775        0.140264 
        3.61292         0.24822        0.138736 
        3.62859        0.244782        0.137236 
        3.64429         0.24378        0.135756 
        3.66003        0.241672        0.134294 
        3.67578        0.239558        0.132853 
        3.69146        0.237631        0.131439 
        3.70712        0.236139        0.130048 
        3.72284         0.23419        0.128672 
        3.73853        0.232941        0.127318 
        3.75422         0.23033        0.125984 
        3.76993        0.229064        0.124667 
        3.78564        0.226964        0.123369 
        3.80137        0.224988        0.122088 
        3.81707        0.223946        0.120828 
        3.83279        0.221705        0.119585 
        3.84853         0.21995        0.118357 
        3.86424        0.218198        0.117148 
        3.87992        0.217012        0.115959 
        3.89561        0.214791        0.114786 
        3.91134         0.21403        0.113626 
        3.92704        0.211486        0.112484 
        3.94273        0.209687        0.111359 
        3.95845        0.208166        0.110247 
        3.97418         0.20663         0.10915 
        3.98988        0.204651         0.10807 
        4.00554        0.203012        0.107007 
        4.02125         0.20117        0.105955 
        4.03698        0.199319        0.104916 
        4.05268         0.19766        0.103893 
        4.06839        0.195034        0.102883 
         4.0841        0.192575        0.101886 
        4.09983        0.190574        0.100902 
        4.11555         0.18865       0.0999308 
        4.13124        0.186116       0.0989751 
        4.14693        0.185088        0.098031 
        4.16266        0.182828       0.0970972 
        4.17839        0.181465        0.096176 
        4.19408        0.179567       0.0952689 
        4.20977        0.178263       0.0943731 
        4.22551        0.176471       0.0934866 
        4.24123        0.174871       0.0926124 
        4.25691        0.173388       0.0917519 
        4.27259        0.171848       0.0909019 
        4.28831        0.170667        0.090061 
        4.30404        0.168627       0.0892299 
        4.31974        0.168265       0.0884111 
        4.33543        0.166431       0.0876031 
        4.35116        0.164955       0.0868032 
        4.36688        0.164063       0.0860136 
        4.38255        0.162591       0.0852368 
        4.39825        0.162029       0.0844678 
        4.41398        0.160577       0.0837068 
         4.4297         0.15957        0.082956 
        4.44541         0.15893       0.0822146 
        4.46111        0.158035       0.0814827 
        4.47683        0.157312       0.0807592 
        4.49251        0.155948        0.080046 
        4.50819        0.155184       0.0793416 
         4.5239        0.154825       0.0786446 
        4.53962        0.153929       0.0779552 
        4.55535        0.153061       0.0772736 
        4.57106        0.152535       0.0766012 
        4.58678        0.152004       0.0759367 
         4.6025        0.151336       0.0752798 
        4.61821        0.150901       0.0746309 
        4.63391        0.150251       0.0739904 
         4.6496        0.150048       0.0733577 
        4.66532        0.149663       0.0727314 
        4.68103        0.149465       0.0721127 
        4.69673         0.14882       0.0715018 
        4.71241        0.148692       0.0708985 
        4.72811        0.148042       0.0703012 
        4.74384        0.148315       0.0697101 
        4.75955        0.148044       0.0691266 
        4.77525        0.148128       0.0685501 
        4.79096        0.147513       0.0679795 
        4.80669        0.147667       0.0674151 
         4.8224        0.147484       0.0668578 
        4.83809        0.147499       0.0663073 
        4.85379        0.147848       0.0657627 
         4.8695        0.147536       0.0652238 
        4.88521        0.147535       0.0646911 
        4.90093        0.148096       0.0641643 
        4.91663        0.148236       0.0636438 
        4.93234        0.148192       0.0631286 
        4.94807         0.14872       0.0626187 
        4.96377        0.149217       0.0621154 
        4.97943        0.149723       0.0616187 
        4.99514        0.149647       0.0611261 
        5.01086        0.150704       0.0606385 
        5.02654         0.15058       0.0601575 
        5.04227        0.150909       0.0596803 
          5.058        0.151843        0.059208 
        5.07371        0.152692       0.0587418 
        5.08942        0.153382       0.0582805 
        5.10513         0.15386       0.0578241 
        5.12084        0.154484       0.0573724 
        5.13656        0.155223       0.0569256 
        5.15225        0.156141       0.0564843 
        5.16796        0.157251        0.056047 
        5.18369        0.157117       0.0556139 
         5.1994         0.15854       0.0551862 
        5.21509        0.159548       0.0547633 
        5.23079        0.161069       0.0543444 
        5.24649        0.162084       0.0539302 
        5.26217        0.162749       0.0535205 
        5.27788        0.164008       0.0531146 
        5.29359        0.165111       0.0527128 
        5.30933         0.16679       0.0523146 
        5.32504        0.167288       0.0519211 
        5.34073         0.16915       0.0515321 
        5.35646         0.16974       0.0511463 
        5.37218        0.170999       0.0507644 
        5.38789        0.172442        0.050387 
        5.40357        0.174593       0.0500139 
        5.41929        0.175776       0.0496437 
        5.43502        0.176342       0.0492772 
         5.4507          0.1788       0.0489153 
        5.46639        0.179961        0.048557 
        5.48212         0.18198       0.0482014 
        5.49786        0.183688        0.047849 
        5.51353        0.185865       0.0475018 
        5.52921        0.186991       0.0471577 
        5.54495        0.188797        0.046816 
        5.56066        0.191283       0.0464781 
        5.57637        0.193097       0.0461436 
        5.59207        0.194983       0.0458126 
        5.60778        0.197098       0.0454847 
        5.62346        0.199382       0.0451606 
        5.63916         0.20067       0.0448392 
        5.65487        0.202689       0.0445208 
         5.6706        0.204803       0.0442052 
        5.68633        0.207718       0.0438925 
        5.70203        0.209777       0.0435834 
        5.71773        0.212071       0.0432774 
        5.73344        0.213427       0.0429742 
        5.74916        0.216815       0.0426735 
        5.76486        0.218223       0.0423762 
        5.78054        0.221161       0.0420821 
        5.79626        0.223074         0.04179 
          5.812        0.226069       0.0415004 
         5.8277        0.228157       0.0412144 
        5.84339        0.231942       0.0409311 
        5.85911           0.234       0.0406499 
        5.87484        0.235238       0.0403714 
        5.89053        0.239309        0.040096 
        5.90623        0.241251       0.0398231 
        5.92195        0.244094       0.0395522 
        5.93767        0.246495        0.039284 
        5.95336        0.249472       0.0390188 
        5.96905        0.253815        0.038756 
        5.98476        0.254419       0.0384954 
        6.00048        0.258909        0.038237 
        6.01617        0.260999       0.0379814 
        6.03185        0.262826       0.0377284 
        6.04756        0.266424       0.0374771 
        6.06331        0.268677       0.0372275 
        6.07903        0.271155       0.0369808 
        6.09473        0.275549       0.0367365 
        6.11044        0.278578       0.0364942 
        6.12616        0.280834       0.0362541 
        6.14186        0.284781       0.0360164 
        6.15755        0.287222       0.0357809 
        6.17326        0.291398       0.0355472 
        6.18898        0.294121       0.0353156 
        6.20467         0.29721       0.0350864 
        6.22036        0.298059       0.0348593 
         6.2361         0.30214       0.0346336 
         6.2518        0.306265       0.0344102 
        6.26748           0.307       0.0341893 
        6.28319        0.310933       0.0339698 
        6.29893        0.314477       0.0337519 
        6.31463        0.318981       0.0335364 
        6.33033        0.320449       0.0333228 
        6.34604         0.32429       0.0331109 
        6.36177         0.32713       0.0329006 
        6.37747        0.330433       0.0326926 
