# k  (h/Mpc)    Pcb(k)  (Mpc/h)^3    Pcb_linear(k) (Mpc/h)^3   ShotnoiseSubtracted = true
      0.0200456         23338.1         23758.7 
      0.0350414         17824.2         17271.7 
      0.0492313         12256.7         12549.3 
      0.0637834         9878.21         10432.1 
      0.0800726         7748.23         8279.73 
       0.096163         6246.92         6007.67 
       0.111083         5088.25         4791.87 
       0.126058         4203.78         4246.57 
       0.142273         3689.86         3597.78 
       0.158546         3027.43         2841.49 
        0.17375         2714.96         2393.95 
       0.188953         2581.92         2167.67 
       0.204907         2222.45         1917.95 
       0.220756         2012.83          1622.7 
        0.23588         1797.73         1411.61 
         0.2514         1631.91         1282.43 
       0.267535         1572.61         1160.38 
       0.283568         1405.81          1023.3 
       0.299022         1339.93         911.707 
       0.314451         1397.72         833.238 
       0.330372         1242.45         764.403 
       0.346141         1141.14         693.812 
       0.361624         1095.18          630.58 
       0.377134         1052.49         580.233 
       0.392932         1001.62         536.878 
       0.408854         962.508         494.898 
       0.424564         942.759         456.155 
       0.440253         877.209         422.908 
       0.455999         838.973         393.999 
       0.471626         852.785         367.432 
        0.48727         805.812          342.58 
       0.502856         777.496         320.254 
       0.518488         751.906         300.334 
       0.534347         724.936         281.815 
       0.550082         691.637         264.739 
       0.565732         680.834         249.117 
       0.581496         666.591          234.81 
       0.597222         654.185         221.688 
       0.612804         638.083         209.623 
       0.628434         612.247         198.376 
       0.644267         596.074         187.862 
       0.660051         589.879         178.172 
       0.675724         578.346         169.224 
       0.691403         560.282         160.883 
       0.707174         544.753         153.057 
       0.722871         540.123         145.783 
        0.73838         527.116         139.059 
       0.754018         515.546         132.709 
       0.769845         508.732         126.686 
        0.78569         497.798         121.032 
       0.801365         481.707         115.779 
       0.817031         477.462         110.843 
       0.832809         469.964         106.165 
       0.848511         462.478         101.779 
       0.864097         452.684          97.672 
       0.879701         452.562         93.7889 
       0.895507         434.705         90.0721 
       0.911279         429.352         86.5654 
        0.92691         423.956         83.2752 
       0.942635         418.734         80.1387 
       0.958396         406.069         77.1578 
       0.974128         400.364         74.3346 
       0.989692         389.773         71.6812 
        1.00528          385.73         69.1539 
        1.02113         379.222         66.7093 
        1.03692         373.735         64.3925 
        1.05264         368.619         62.1968 
        1.06832         360.379         60.1073 
        1.08405         359.171         58.1086 
        1.09979         351.191            56.2 
        1.11537          342.33         54.3964 
        1.13105         338.577         52.6614 
        1.14679          332.76         50.9958 
        1.16256         330.989         49.3992 
        1.17828         325.659         47.8764 
        1.19395         317.539         46.4233 
         1.2097         315.237         45.0232 
        1.22537         310.362         43.6879 
          1.241         303.734         42.4109 
        1.25666         300.844          41.182 
        1.27241         297.035         39.9962 
        1.28819         289.681         38.8552 
        1.30392          289.74         37.7622 
        1.31957         281.915         36.7163 
        1.33529         278.171         35.7062 
        1.35108         276.883         34.7303 
        1.36674           269.5          33.798 
         1.3824         266.559         32.9008 
        1.39811         263.406         32.0333 
        1.41389         257.726         31.1938 
        1.42964         254.373          30.386 
        1.44531         251.493         29.6108 
        1.46101         246.976          28.861 
        1.47667         244.448         28.1395 
        1.49229         241.104         27.4447 
        1.50793         237.405         26.7726 
        1.52367         233.708         26.1188 
        1.53953         230.066         25.4824 
        1.55526          227.45         24.8724 
        1.57092         225.581         24.2849 
        1.58662         220.563         23.7151 
        1.60235         217.951         23.1625 
        1.61809         215.998         22.6272 
        1.63369         211.894         22.1137 
        1.64941         208.909         21.6124 
        1.66519         206.238         21.1249 
        1.68085         202.587          20.656 
        1.69652         200.602         20.2012 
        1.71228         197.591         19.7575 
        1.72806         195.418         19.3268 
        1.74368         193.035         18.9133 
        1.75933          191.65         18.5111 
        1.77505         188.657         18.1188 
        1.79081         185.309         17.7371 
         1.8065         184.295         17.3681 
        1.82218         179.599         17.0099 
        1.83797         178.351         16.6594 
        1.85367         175.794         16.3207 
        1.86928         173.138         15.9935 
        1.88497         171.496         15.6735 
        1.90073         169.931         15.3611 
        1.91647         166.775         15.0575 
        1.93218         164.195         14.7627 
        1.94787         162.217         14.4763 
        1.96363         161.433         14.1964 
        1.97935         159.502         13.9244 
        1.99499         156.972         13.6612 
        2.01064         153.744         13.4043 
         2.0264         153.342         13.1525 
        2.04216         150.541         12.9072 
        2.05781         148.157         12.6698 
        2.07353         147.403         12.4375 
        2.08928          145.52         12.2106 
        2.10499         143.837         11.9899 
        2.12065         142.238         11.7753 
        2.13633         140.148         11.5658 
        2.15211         138.027           11.36 
        2.16785         136.724         11.1599 
        2.18349         135.231         10.9658 
        2.19916         133.253         10.7759 
        2.21489         131.519           10.59 
        2.23063         130.038         10.4082 
         2.2463         128.207         10.2316 
        2.26194         127.216         10.0595 
        2.27765         125.098         9.89048 
        2.29341         124.139         9.72491 
        2.30914         122.666         9.56348 
        2.32486         120.743          9.4058 
        2.34061         119.149         9.25142 
        2.35635          118.34         9.10065 
        2.37203         116.433         8.95376 
        2.38768         115.597         8.81042 
        2.40339         113.399          8.6697 
        2.41914          112.34         8.53173 
        2.43483         111.408         8.39725 
         2.4505         110.147          8.2659 
        2.46622         108.305         8.13691 
        2.48195         107.373         8.01066 
        2.49759         105.697         7.88777 
        2.51328         104.709         7.76714 
        2.52906         103.764         7.64826 
        2.54479         102.345         7.53233 
        2.56049         100.971         7.41902 
        2.57618         99.9364         7.30814 
        2.59189         99.2846         7.19936 
        2.60758         97.6247         7.09297 
        2.62325         96.9927         6.98885 
        2.63898         95.7629         6.88647 
        2.65468         94.8599         6.78635 
        2.67044         93.8632          6.6878 
        2.68618         92.3699         6.59143 
        2.70184         91.4192         6.49735 
        2.71755         90.7688         6.40486 
        2.73329         89.2061         6.31404 
        2.74897         88.3869         6.22528 
        2.76462         88.0508         6.13841 
        2.78034         86.5585         6.05285 
        2.79607         85.3873         5.96883 
        2.81179         84.7019          5.8865 
        2.82749         84.0125         5.80582 
        2.84321         82.6786         5.72656 
        2.85893         81.4495          5.6488 
        2.87462         81.0645         5.57262 
        2.89033         80.0319         5.49778 
        2.90605         79.1776         5.42424 
        2.92176         78.5826         5.35209 
        2.93747         77.6263         5.28129 
        2.95318          76.441         5.21175 
        2.96891         76.0104         5.14344 
        2.98456         74.8666         5.07665 
        3.00023         74.2148         5.01095 
        3.01596         73.5829         4.94621 
        3.03164         72.6882         4.88279 
        3.04738         72.3146         4.82031 
         3.0631         71.0928         4.75894 
        3.07883         70.5507         4.69863 
        3.09456         69.5929         4.63938 
        3.11026         69.2203         4.58124 
        3.12596         68.2761         4.52411 
        3.14163         67.6512         4.46808 
        3.15734         66.6606         4.41287 
        3.17308         66.2712         4.35846 
        3.18879         65.5688         4.30511 
        3.20447         64.9833         4.25274 
         3.2202         63.9648         4.20107 
         3.2359         63.4048         4.15036 
        3.25157         63.0048          4.1006 
        3.26729         62.1962         4.05151 
        3.28304         61.4043         4.00312 
        3.29877           61.02         3.95559 
        3.31446         60.1278         3.90894 
        3.33014          59.719         3.86307 
        3.34585           59.11         3.81788 
        3.36158         58.6804         3.77334 
        3.37727         58.1184         3.72964 
        3.39294         57.4096         3.68668 
        3.40867         56.9541         3.64425 
        3.42439         56.3115          3.6025 
        3.44008         55.7395         3.56149 
        3.45578         55.1826         3.52108 
        3.47153         54.6837         3.48122 
        3.48724         54.2324         3.44204 
        3.50292         53.6701         3.40356 
        3.51859         53.1804         3.36568 
        3.53431         52.5533         3.32826 
        3.55007         51.9436         3.29132 
        3.56577         51.4559         3.25508 
        3.58146         50.9574          3.2194 
        3.59719         50.5801         3.18418 
        3.61292         49.9128          3.1495 
        3.62859         49.5741         3.11546 
        3.64429         49.1464         3.08186 
        3.66003         48.7524         3.04866 
        3.67578         48.1459         3.01595 
        3.69146         47.7733         2.98385 
        3.70712         47.4011         2.95227 
        3.72284          46.893         2.92104 
        3.73853         46.4668         2.89031 
        3.75422         46.0056            2.86 
        3.76993         45.6269         2.83011 
        3.78564         45.1994         2.80066 
        3.80137         44.8143         2.77158 
        3.81707         44.2975         2.74297 
        3.83279         43.9576         2.71474 
        3.84853         43.5244         2.68687 
        3.86424         43.1105         2.65944 
        3.87992         42.6632         2.63243 
        3.89561          42.389          2.6058 
        3.91134         41.9507         2.57948 
        3.92704         41.5774         2.55355 
        3.94273         41.2551         2.52801 
        3.95845         40.7619         2.50277 
        3.97418         40.4728         2.47786 
        3.98988         40.1263         2.45333 
        4.00554         39.6399          2.4292 
        4.02125         39.4287         2.40533 
        4.03698         38.9818         2.38174 
        4.05268         38.7509         2.35851 
        4.06839         38.3949         2.33558 
         4.0841          38.089         2.31297 
        4.09983         37.6709         2.29062 
        4.11555         37.4209         2.26857 
        4.13124         36.9244         2.24687 
        4.14693         36.7204         2.22544 
        4.16266         36.4176         2.20424 
        4.17839         36.0068         2.18333 
        4.19408         35.7438         2.16274 
        4.20977         35.4486          2.1424 
        4.22551         35.1315         2.12228 
        4.24123         34.8663         2.10243 
        4.25691         34.5151          2.0829 
        4.27259         34.2343          2.0636 
        4.28831          34.003         2.04451 
        4.30404         33.7126         2.02565 
        4.31974         33.4041         2.00706 
        4.33543         33.0774         1.98871 
        4.35116         32.8103         1.97056 
        4.36688         32.5006         1.95263 
        4.38255         32.3224           1.935 
        4.39825         32.0505         1.91754 
        4.41398         31.7512         1.90026 
         4.4297          31.446         1.88322 
        4.44541          31.287         1.86639 
        4.46111         30.8743         1.84977 
        4.47683           30.77         1.83335 
        4.49251         30.5063         1.81716 
        4.50819         30.1964         1.80117 
         4.5239         29.8851         1.78534 
        4.53962         29.6827         1.76969 
        4.55535         29.4658         1.75422 
        4.57106         29.1208         1.73896 
        4.58678         28.9694         1.72387 
         4.6025         28.7627         1.70896 
        4.61821         28.5049         1.69423 
        4.63391         28.2928         1.67969 
         4.6496         28.0035         1.66532 
        4.66532         27.8075         1.65111 
        4.68103         27.5711         1.63706 
        4.69673         27.3955         1.62319 
        4.71241         27.1546          1.6095 
        4.72811         26.9572         1.59594 
        4.74384         26.8142         1.58252 
        4.75955         26.6038         1.56927 
        4.77525         26.2891         1.55619 
        4.79096         26.0712         1.54323 
        4.80669         25.8933         1.53042 
         4.8224         25.7382         1.51777 
        4.83809         25.4503         1.50527 
        4.85379         25.3035         1.49291 
         4.8695         25.0881         1.48067 
        4.88521         24.8767         1.46858 
        4.90093         24.7283         1.45662 
        4.91663         24.5389         1.44481 
        4.93234         24.2722         1.43311 
        4.94807         24.0714         1.42153 
        4.96377         23.9245         1.41011 
        4.97943         23.7873         1.39883 
        4.99514         23.6269         1.38765 
        5.01086         23.4017         1.37658 
        5.02654         23.2066         1.36566 
        5.04227         23.0269         1.35483 
          5.058         22.8001         1.34411 
        5.07371         22.6627         1.33352 
        5.08942         22.4447         1.32305 
        5.10513         22.3677         1.31269 
        5.12084         22.1643         1.30244 
        5.13656         22.0176         1.29229 
        5.15225         21.8933         1.28227 
        5.16796         21.6843         1.27235 
        5.18369         21.5015         1.26251 
         5.1994         21.2955          1.2528 
        5.21509         21.1845          1.2432 
        5.23079          21.022         1.23369 
        5.24649         20.8759         1.22429 
        5.26217          20.694         1.21499 
        5.27788          20.575         1.20578 
        5.29359         20.3855         1.19666 
        5.30933         20.2191         1.18761 
        5.32504         20.0859         1.17868 
        5.34073         19.9171         1.16985 
        5.35646         19.7637         1.16109 
        5.37218         19.6541         1.15242 
        5.38789          19.511         1.14386 
        5.40357         19.3444         1.13539 
        5.41929         19.2345         1.12698 
        5.43502         19.0915         1.11866 
         5.4507         18.9127         1.11045 
        5.46639         18.7809         1.10231 
        5.48212         18.6453         1.09424 
        5.49786         18.5086         1.08624 
        5.51353         18.3896         1.07836 
        5.52921         18.2397         1.07055 
        5.54495         18.1148         1.06279 
        5.56066         17.9788         1.05512 
        5.57637         17.8344         1.04752 
        5.59207         17.6997         1.04001 
        5.60778         17.6662         1.03257 
        5.62346         17.4677         1.02521 
        5.63916         17.3513         1.01791 
        5.65487          17.191         1.01069 
         5.6706         17.1166         1.00352 
        5.68633         17.0036        0.996422 
        5.70203         16.8742        0.989406 
        5.71773         16.7651        0.982459 
        5.73344         16.6522        0.975574 
        5.74916         16.5147         0.96875 
        5.76486         16.3948           0.962 
        5.78054         16.2605        0.955324 
        5.79626         16.1942        0.948693 
          5.812         16.0723        0.942119 
         5.8277         15.9143        0.935626 
        5.84339         15.8146        0.929194 
        5.85911         15.7305         0.92281 
        5.87484         15.5889        0.916487 
        5.89053         15.4759        0.910236 
        5.90623         15.3868         0.90404 
        5.92195         15.2572        0.897891 
        5.93767         15.1728        0.891803 
        5.95336         15.0675        0.885781 
        5.96905         14.9575        0.879817 
        5.98476         14.8689          0.8739 
        6.00048         14.7482        0.868035 
        6.01617         14.6806        0.862231 
        6.03185          14.564        0.856488 
        6.04756         14.4683        0.850783 
        6.06331         14.3765        0.845118 
        6.07903         14.2323        0.839516 
        6.09473          14.154         0.83397 
        6.11044         14.0738         0.82847 
        6.12616         13.9923        0.823019 
        6.14186         13.9053        0.817624 
        6.15755         13.7761        0.812276 
        6.17326         13.6849        0.806973 
        6.18898         13.5885        0.801714 
        6.20467         13.4844        0.796512 
        6.22036         13.4075        0.791356 
         6.2361         13.3001        0.786232 
         6.2518         13.2226        0.781161 
        6.26748         13.1633        0.776146 
        6.28319         13.0535        0.771162 
        6.29893         12.9767        0.766217 
        6.31463         12.9018        0.761323 
        6.33033         12.8111        0.756474 
        6.34604         12.7099        0.751664 
        6.36177         12.6388        0.746891 
        6.37747         12.5547        0.742168 
