# k  (h/Mpc)    Pcb(k)  (Mpc/h)^3    Pcb_linear(k) (Mpc/h)^3   ShotnoiseSubtracted = true
      0.0200456         22773.1         23180.2 
      0.0350414         17386.8         16851.2 
      0.0492313         11966.1         12243.8 
      0.0637834         9644.81         10178.1 
      0.0800726         7566.53         8078.13 
       0.096163         6093.48         5861.39 
       0.111083         4963.23         4675.19 
       0.126058            4101         4143.17 
       0.142273         3597.21         3510.18 
       0.158546         2951.77         2772.31 
        0.17375         2643.91         2335.67 
       0.188953         2511.43         2114.89 
       0.204907         2161.32         1871.25 
       0.220756         1956.35         1583.19 
        0.23588         1747.05         1377.24 
         0.2514         1584.54         1251.21 
       0.267535         1527.87         1132.13 
       0.283568         1364.19         998.384 
       0.299022         1300.56         889.508 
       0.314451         1355.95          812.95 
       0.330372         1202.49         745.791 
       0.346141         1104.45         676.919 
       0.361624         1060.06         615.226 
       0.377134         1017.92         566.105 
       0.392932         969.656         523.806 
       0.408854         930.963         482.848 
       0.424564         911.599         445.048 
       0.440253         846.986         412.611 
       0.455999         810.074         384.406 
       0.471626         824.032         358.486 
        0.48727         778.254         334.239 
       0.502856          749.15         312.456 
       0.518488         725.738         293.021 
       0.534347         698.473         274.953 
       0.550082         666.256         258.293 
       0.565732         656.382         243.052 
       0.581496         642.698         229.093 
       0.597222         629.978         216.291 
       0.612804         614.743         204.519 
       0.628434         589.663         193.546 
       0.644267         573.795         183.288 
       0.660051         567.712         173.834 
       0.675724         556.332         165.103 
       0.691403         539.766         156.965 
       0.707174          524.14          149.33 
       0.722871         519.107         142.233 
        0.73838         507.294         135.673 
       0.754018         495.413         129.478 
       0.769845         489.216         123.601 
        0.78569          478.82         118.085 
       0.801365         462.968          112.96 
       0.817031         459.166         108.144 
       0.832809         452.054          103.58 
       0.848511         444.713         99.3007 
       0.864097         434.838         95.2939 
       0.879701         434.264         91.5053 
       0.895507          417.22          87.879 
       0.911279         411.779         84.4576 
        0.92691         407.007         81.2476 
       0.942635          402.17         78.1875 
       0.958396         389.434         75.2791 
       0.974128         384.329         72.5247 
       0.989692         373.604         69.9359 
        1.00528         370.212         67.4701 
        1.02113         363.958         65.0851 
        1.03692         358.548         62.8246 
        1.05264         353.439         60.6824 
        1.06832         345.927         58.6438 
        1.08405         344.389         56.6938 
        1.09979         337.014         54.8316 
        1.11537         328.302         53.0719 
        1.13105         324.721         51.3792 
        1.14679           319.3         49.7541 
        1.16256         317.562         48.1964 
        1.17828          312.35         46.7107 
        1.19395         304.512         45.2929 
         1.2097         302.833          43.927 
        1.22537         297.886         42.6241 
          1.241         291.375         41.3783 
        1.25666         288.678         40.1793 
        1.27241         284.834         39.0224 
        1.28819         278.062         37.9092 
        1.30392         278.155         36.8428 
        1.31957         270.288         35.8223 
        1.33529          266.88         34.8369 
        1.35108         265.544         33.8847 
        1.36674         258.362          32.975 
         1.3824         255.996         32.0997 
        1.39811         253.134         31.2533 
        1.41389         247.141         30.4343 
        1.42964         244.109         29.6461 
        1.44531         241.594         28.8898 
        1.46101         237.296         28.1583 
        1.47667         234.663         27.4544 
        1.49229         231.425         26.7765 
        1.50793         228.081         26.1207 
        1.52367         224.546         25.4828 
        1.53953         220.748          24.862 
        1.55526         218.596         24.2668 
        1.57092         216.774         23.6936 
        1.58662         211.864         23.1377 
        1.60235         209.509         22.5985 
        1.61809         207.421         22.0763 
        1.63369         203.481         21.5752 
        1.64941         200.632         21.0862 
        1.66519         198.153         20.6106 
        1.68085         194.678          20.153 
        1.69652         192.872         19.7093 
        1.71228         189.897         19.2764 
        1.72806         187.838         18.8562 
        1.74368         185.522         18.4528 
        1.75933         184.255         18.0604 
        1.77505         181.372         17.6776 
        1.79081         177.881         17.3052 
         1.8065         176.815         16.9452 
        1.82218         172.483         16.5958 
        1.83797         171.372         16.2538 
        1.85367         168.852         15.9234 
        1.86928         166.376         15.6041 
        1.88497         164.921         15.2919 
        1.90073         163.288         14.9871 
        1.91647         160.133         14.6909 
        1.93218          157.85         14.4033 
        1.94787         155.905         14.1239 
        1.96363         155.247         13.8507 
        1.97935         153.355         13.5854 
        1.99499         150.891         13.3285 
        2.01064         147.746          13.078 
         2.0264         147.386         12.8322 
        2.04216         144.819          12.593 
        2.05781         142.341         12.3613 
        2.07353          141.59         12.1347 
        2.08928         139.772         11.9132 
        2.10499         138.325         11.6979 
        2.12065         136.743         11.4886 
        2.13633         134.707         11.2842 
        2.15211         132.596         11.0834 
        2.16785         131.308         10.8882 
        2.18349         129.887         10.6988 
        2.19916         128.024         10.5136 
        2.21489         126.437         10.3321 
        2.23063         124.891         10.1548 
         2.2463         123.141         9.98247 
        2.26194         122.186         9.81456 
        2.27765         120.181         9.64966 
        2.29341          119.21         9.48812 
        2.30914         117.883         9.33062 
        2.32486         115.871         9.17678 
        2.34061         114.512         9.02616 
        2.35635         113.706         8.87906 
        2.37203         111.756         8.73575 
        2.38768         111.002          8.5959 
        2.40339         108.915         8.45861 
        2.41914         107.954         8.32399 
        2.43483          107.14         8.19279 
         2.4505         105.689         8.06464 
        2.46622          104.08         7.93878 
        2.48195         103.217         7.81561 
        2.49759         101.649         7.69571 
        2.51328         100.714         7.57802 
        2.52906         99.7142         7.46204 
        2.54479         98.3419         7.34893 
        2.56049         97.0416         7.23837 
        2.57618         96.0811          7.1302 
        2.59189         95.3603         7.02407 
        2.60758         93.7591         6.92026 
        2.62325          93.285         6.81869 
        2.63898         92.1111          6.7188 
        2.65468         91.1763         6.62112 
        2.67044          90.072         6.52496 
        2.68618         88.7268         6.43094 
        2.70184          87.765         6.33914 
        2.71755         87.1956         6.24891 
        2.73329         85.6785          6.1603 
        2.74897         84.8779          6.0737 
        2.76462         84.4906         5.98895 
        2.78034         82.9695         5.90547 
        2.79607         81.9482          5.8235 
        2.81179         81.3124         5.74317 
        2.82749         80.5808         5.66446 
        2.84321         79.3079         5.58712 
        2.85893         78.1737         5.51126 
        2.87462         77.7498         5.43693 
        2.89033         76.8026         5.36391 
        2.90605         76.0031         5.29217 
        2.92176         75.3344         5.22177 
        2.93747         74.4942          5.1527 
        2.95318         73.3073         5.08485 
        2.96891         72.8789          5.0182 
        2.98456         71.8426         4.95304 
        3.00023         71.1839         4.88894 
        3.01596         70.5987         4.82577 
        3.03164         69.7275          4.7639 
        3.04738         69.3974         4.70294 
         3.0631          68.184         4.64306 
        3.07883         67.6982         4.58423 
        3.09456         66.7751         4.52642 
        3.11026         66.3488          4.4697 
        3.12596         65.4989         4.41395 
        3.14163         64.8499         4.35929 
        3.15734         63.9316         4.30542 
        3.17308         63.5274         4.25233 
        3.18879         62.9063         4.20029 
        3.20447         62.3728         4.14919 
         3.2202         61.4002         4.09878 
         3.2359         60.8083          4.0493 
        3.25157         60.4826         4.00076 
        3.26729         59.7396         3.95286 
        3.28304          58.896         3.90565 
        3.29877         58.5417         3.85928 
        3.31446         57.7703         3.81376 
        3.33014          57.347         3.76901 
        3.34585         56.7823         3.72492 
        3.36158         56.3784         3.68146 
        3.37727         55.7495         3.63883 
        3.39294         55.1303         3.59692 
        3.40867         54.6803         3.55551 
        3.42439         54.0663         3.51478 
        3.44008         53.4808         3.47477 
        3.45578         52.9851         3.43535 
        3.47153         52.5018         3.39646 
        3.48724         52.0132         3.35823 
        3.50292         51.4771         3.32068 
        3.51859         51.0389         3.28373 
        3.53431         50.4104         3.24722 
        3.55007         49.8724         3.21118 
        3.56577         49.3902         3.17582 
        3.58146         48.8847         3.14102 
        3.59719         48.4983         3.10665 
        3.61292         47.8843         3.07281 
        3.62859         47.5725          3.0396 
        3.64429         47.2013         3.00682 
        3.66003          46.807         2.97443 
        3.67578         46.2418         2.94252 
        3.69146         45.8508          2.9112 
        3.70712         45.5111         2.88039 
        3.72284         45.0237         2.84991 
        3.73853         44.5968         2.81993 
        3.75422         44.1433         2.79037 
        3.76993         43.7791          2.7612 
        3.78564         43.3607         2.73247 
        3.80137         43.0455         2.70409 
        3.81707          42.512         2.67618 
        3.83279         42.2176         2.64864 
        3.84853         41.7544         2.62144 
        3.86424          41.353         2.59468 
        3.87992         40.9539         2.56833 
        3.89561         40.6756         2.54235 
        3.91134         40.2922         2.51667 
        3.92704         39.9142         2.49138 
        3.94273         39.5918         2.46645 
        3.95845         39.1434         2.44183 
        3.97418         38.8599         2.41753 
        3.98988         38.4963          2.3936 
        4.00554         38.0793         2.37006 
        4.02125          37.877         2.34676 
        4.03698         37.4273         2.32374 
        4.05268         37.2374         2.30109 
        4.06839         36.8733         2.27872 
         4.0841         36.6021         2.25665 
        4.09983         36.1699         2.23484 
        4.11555         35.9302         2.21333 
        4.13124         35.4785         2.19217 
        4.14693         35.2468         2.17126 
        4.16266         34.9726         2.15057 
        4.17839         34.6059         2.13017 
        4.19408         34.3477         2.11008 
        4.20977         34.0796         2.09024 
        4.22551          33.732          2.0706 
        4.24123          33.497         2.05124 
        4.25691         33.1735         2.03218 
        4.27259         32.8931         2.01336 
        4.28831         32.6348         1.99473 
        4.30404         32.3722         1.97632 
        4.31974         32.0884         1.95819 
        4.33543         31.8086         1.94029 
        4.35116         31.5192         1.92258 
        4.36688         31.2293         1.90509 
        4.38255         31.0502         1.88788 
        4.39825         30.7481         1.87085 
        4.41398         30.4917           1.854 
         4.4297         30.2154         1.83737 
        4.44541         30.0766         1.82094 
        4.46111         29.6707         1.80473 
        4.47683         29.5235         1.78871 
        4.49251          29.298         1.77291 
        4.50819         29.0371         1.75731 
         4.5239         28.7194         1.74187 
        4.53962         28.5531          1.7266 
        4.55535          28.298         1.71151 
        4.57106         28.0096         1.69662 
        4.58678         27.8431          1.6819 
         4.6025         27.6578         1.66735 
        4.61821         27.4428         1.65297 
        4.63391         27.1516         1.63879 
         4.6496         26.9128         1.62478 
        4.66532         26.7349          1.6109 
        4.68103         26.5254          1.5972 
        4.69673         26.3225         1.58367 
        4.71241         26.1275         1.57031 
        4.72811         25.9005         1.55708 
        4.74384         25.7431         1.54399 
        4.75955         25.5546         1.53106 
        4.77525         25.2611         1.51829 
        4.79096         25.0449         1.50566 
        4.80669         24.9118         1.49316 
         4.8224         24.7216         1.48081 
        4.83809         24.4533         1.46862 
        4.85379         24.2994         1.45656 
         4.8695         24.1216         1.44462 
        4.88521         23.8822         1.43282 
        4.90093         23.7841         1.42115 
        4.91663         23.5545         1.40963 
        4.93234         23.3122         1.39821 
        4.94807         23.1394         1.38692 
        4.96377         22.9946         1.37577 
        4.97943         22.8304         1.36477 
        4.99514         22.6916         1.35386 
        5.01086         22.4791         1.34306 
        5.02654         22.2881         1.33241 
        5.04227         22.1487         1.32184 
          5.058         21.9287         1.31138 
        5.07371         21.7392         1.30105 
        5.08942         21.5551         1.29084 
        5.10513         21.4876         1.28073 
        5.12084         21.3096         1.27072 
        5.13656         21.1314         1.26083 
        5.15225         21.0303         1.25105 
        5.16796         20.8118         1.24137 
        5.18369         20.6414         1.23177 
         5.1994         20.4449          1.2223 
        5.21509         20.3197         1.21293 
        5.23079         20.1744         1.20366 
        5.24649         20.0308         1.19448 
        5.26217         19.8885         1.18541 
        5.27788         19.7571         1.17642 
        5.29359         19.5792         1.16752 
        5.30933         19.4126          1.1587 
        5.32504          19.291         1.14998 
        5.34073         19.1178         1.14137 
        5.35646         19.0025         1.13282 
        5.37218         18.8462         1.12436 
        5.38789         18.7162         1.11601 
        5.40357           18.57         1.10774 
        5.41929          18.465         1.09954 
        5.43502          18.314         1.09143 
         5.4507         18.1371         1.08341 
        5.46639         18.0056         1.07547 
        5.48212         17.8911          1.0676 
        5.49786         17.7743         1.05979 
        5.51353         17.6711          1.0521 
        5.52921         17.5249         1.04448 
        5.54495         17.3867         1.03691 
        5.56066         17.2681         1.02943 
        5.57637         17.1359         1.02202 
        5.59207          16.999         1.01469 
        5.60778         16.9468         1.00743 
        5.62346         16.7859         1.00025 
        5.63916         16.6605        0.993129 
        5.65487         16.5169        0.986078 
         5.6706         16.4271        0.979086 
        5.68633         16.3215         0.97216 
        5.70203           16.19        0.965315 
        5.71773         16.0893        0.958537 
        5.73344         15.9819        0.951821 
        5.74916         15.8543        0.945162 
        5.76486          15.737        0.938576 
        5.78054         15.6124        0.932063 
        5.79626         15.5074        0.925594 
          5.812         15.4334         0.91918 
         5.8277         15.2855        0.912845 
        5.84339         15.1833        0.906569 
        5.85911         15.1052        0.900341 
        5.87484         14.9602        0.894172 
        5.89053         14.8407        0.888073 
        5.90623         14.7809        0.882028 
        5.92195         14.6551        0.876029 
        5.93767          14.577        0.870089 
        5.95336         14.4675        0.864214 
        5.96905         14.3623        0.858395 
        5.98476         14.2808        0.852622 
        6.00048         14.1758        0.846899 
        6.01617         14.1033        0.841237 
        6.03185         13.9813        0.835634 
        6.04756         13.8977        0.830068 
        6.06331         13.8032         0.82454 
        6.07903         13.6834        0.819075 
        6.09473         13.5932        0.813664 
        6.11044          13.508        0.808298 
        6.12616         13.4282         0.80298 
        6.14186         13.3472        0.797716 
        6.15755         13.2304        0.792499 
        6.17326         13.1369        0.787324 
        6.18898         13.0482        0.782194 
        6.20467         12.9413        0.777118 
        6.22036         12.8627        0.772088 
         6.2361         12.7695        0.767088 
         6.2518         12.6946        0.762141 
        6.26748          12.638        0.757248 
        6.28319         12.5368        0.752385 
        6.29893         12.4592        0.747561 
        6.31463         12.3813        0.742786 
        6.33033         12.3045        0.738055 
        6.34604         12.1984        0.733362 
        6.36177          12.122        0.728705 
        6.37747         12.0492        0.724097 
