# k  (h/Mpc)    Pcb(k)  (Mpc/h)^3    Pcb_linear(k) (Mpc/h)^3   ShotnoiseSubtracted = true
      0.0200456         10909.8         11117.9 
      0.0350414         7844.91         8082.34 
      0.0492313         5822.85         5872.48 
      0.0637834         4976.55         4881.74 
      0.0800726         3938.21         3874.51 
       0.096163         2753.47          2811.3 
       0.111083         2190.13         2242.36 
       0.126058         2017.06         1987.19 
       0.142273         1742.09         1683.59 
       0.158546         1455.45         1329.68 
        0.17375         1168.49         1120.25 
       0.188953         1126.34         1014.37 
       0.204907         1057.43         897.507 
       0.220756         898.131         759.345 
        0.23588         790.406         660.564 
         0.2514         690.685         600.116 
       0.267535         671.862         543.002 
       0.283568         609.047         478.855 
       0.299022         567.376         426.635 
       0.314451         532.166         389.915 
       0.330372          490.95         357.703 
       0.346141         445.439          324.67 
       0.361624         428.166         295.081 
       0.377134         398.482         271.521 
       0.392932         377.034         251.233 
       0.408854         361.745         231.588 
       0.424564         344.092         213.458 
       0.440253         331.893         197.901 
       0.455999         312.277         184.373 
       0.471626         291.115          171.94 
        0.48727         282.605         160.311 
       0.502856         273.101         149.863 
       0.518488         269.701         140.542 
       0.534347         253.997         131.876 
       0.550082         238.563         123.885 
       0.565732         234.643         116.575 
       0.581496         222.747          109.88 
       0.597222         217.308         103.739 
       0.612804          209.44         98.0933 
       0.628434         202.347         92.8306 
       0.644267         195.747         87.9104 
       0.660051         193.357         83.3757 
       0.675724         188.978         79.1885 
       0.691403          183.53         75.2853 
       0.707174          175.79         71.6232 
       0.722871         174.269         68.2192 
        0.73838         170.443         65.0729 
       0.754018         165.276         62.1013 
       0.769845         160.582         59.2829 
        0.78569         158.369         56.6371 
       0.801365         153.728         54.1791 
       0.817031          148.65         51.8693 
       0.832809         146.566           49.68 
       0.848511         142.875         47.6276 
       0.864097         140.364         45.7058 
       0.879701         137.361         43.8887 
       0.895507         133.958         42.1494 
       0.911279          131.42         40.5084 
        0.92691          130.06         38.9688 
       0.942635         126.837          37.501 
       0.958396         126.552         36.1061 
       0.974128         122.959          34.785 
       0.989692         119.958         33.5433 
        1.00528         117.676         32.3607 
        1.02113         116.922         31.2167 
        1.03692          112.48         30.1326 
        1.05264         111.924         29.1051 
        1.06832         109.351         28.1273 
        1.08405         107.916          27.192 
        1.09979         107.366         26.2989 
        1.11537          103.78         25.4549 
        1.13105         103.569          24.643 
        1.14679         102.396         23.8635 
        1.16256           100.9         23.1164 
        1.17828          98.327         22.4039 
        1.19395         97.1553         21.7238 
         1.2097         95.0064         21.0687 
        1.22537         95.0491         20.4438 
          1.241         92.8269         19.8463 
        1.25666         90.9911         19.2712 
        1.27241         89.8768         18.7163 
        1.28819         88.4789         18.1824 
        1.30392         87.4132         17.6709 
        1.31957         86.1556         17.1814 
        1.33529         84.6267         16.7088 
        1.35108         83.7882         16.2521 
        1.36674         82.8447         15.8158 
         1.3824         81.3162          15.396 
        1.39811         80.4659           14.99 
        1.41389          79.277         14.5972 
        1.42964         78.3307         14.2192 
        1.44531         76.6783         13.8564 
        1.46101         75.7634         13.5056 
        1.47667          75.592         13.1679 
        1.49229         74.0702         12.8428 
        1.50793         73.5764         12.5283 
        1.52367         72.3804         12.2223 
        1.53953         71.3407         11.9245 
        1.55526         70.6782         11.6391 
        1.57092         70.4159         11.3642 
        1.58662         68.8744         11.0975 
        1.60235         68.3773         10.8389 
        1.61809          67.437         10.5884 
        1.63369         66.4236         10.3481 
        1.64941         65.8117         10.1136 
        1.66519         64.5306         9.88545 
        1.68085         64.1042           9.666 
        1.69652          63.003         9.45317 
        1.71228          62.675         9.24555 
        1.72806         61.9767         9.04401 
        1.74368         61.1674         8.85052 
        1.75933         60.4429         8.66231 
        1.77505         59.8747          8.4787 
        1.79081         59.0477         8.30011 
         1.8065         58.5332         8.12743 
        1.82218         57.6996         7.95982 
        1.83797         57.1021          7.7958 
        1.85367         56.4526         7.63732 
        1.86928          55.923          7.4842 
        1.88497         55.2169         7.33445 
        1.90073         54.4928         7.18825 
        1.91647         54.1677         7.04618 
        1.93218         53.4695         6.90825 
        1.94787         52.8871         6.77422 
        1.96363          52.183         6.64323 
        1.97935         51.7864         6.51597 
        1.99499         51.0292         6.39277 
        2.01064         50.8651         6.27258 
         2.0264         49.6311         6.15473 
        2.04216         49.4062         6.03997 
        2.05781          48.787         5.92886 
        2.07353         48.2819         5.82016 
        2.08928         47.7296         5.71395 
        2.10499         47.3437         5.61067 
        2.12065         46.7483         5.51027 
        2.13633         46.5397         5.41223 
        2.15211         46.1076         5.31595 
        2.16785         45.2163         5.22229 
        2.18349         44.9466         5.13147 
        2.19916         44.5176         5.04262 
        2.21489         44.0522         4.95559 
        2.23063         43.3993         4.87055 
         2.2463         42.9905         4.78789 
        2.26194         42.3428         4.70736 
        2.27765         41.9255         4.62827 
        2.29341         41.4447         4.55079 
        2.30914         40.9918         4.47524 
        2.32486         40.4551         4.40146 
        2.34061         40.1901         4.32922 
        2.35635         39.7545         4.25866 
        2.37203         39.2864         4.18993 
        2.38768         38.9066         4.12285 
        2.40339         38.6635           4.057 
        2.41914         38.2859         3.99244 
        2.43483         37.6461         3.92951 
         2.4505         37.3911         3.86804 
        2.46622         37.0296         3.80768 
        2.48195         36.6807          3.7486 
        2.49759         36.2421         3.69109 
        2.51328          35.754         3.63464 
        2.52906         35.5641         3.57902 
        2.54479         34.9809         3.52476 
        2.56049         34.6939         3.47174 
        2.57618         34.3697         3.41985 
        2.59189         34.0618         3.36895 
        2.60758         33.8159         3.31917 
        2.62325         33.3438         3.27045 
        2.63898         33.0607         3.22254 
        2.65468         32.6934         3.17568 
        2.67044         32.3557         3.12957 
        2.68618         32.0871         3.08447 
        2.70184         31.7063         3.04044 
        2.71755         31.5532         2.99717 
        2.73329         31.1814         2.95467 
        2.74897         30.8298         2.91313 
        2.76462         30.4388         2.87248 
        2.78034         30.3211         2.83244 
        2.79607         29.9744         2.79312 
        2.81179         29.7188          2.7546 
        2.82749         29.4346         2.71684 
        2.84321         28.9721         2.67975 
        2.85893         28.7452         2.64337 
        2.87462         28.4819         2.60772 
        2.89033         28.2191         2.57269 
        2.90605         28.0374         2.53828 
        2.92176         27.8637         2.50452 
        2.93747         27.4657         2.47139 
        2.95318         27.0925         2.43885 
        2.96891         26.9375         2.40688 
        2.98456         26.5779         2.37563 
        3.00023          26.351         2.34488 
        3.01596         26.0808         2.31459 
        3.03164         25.9005         2.28491 
        3.04738         25.6839         2.25567 
         3.0631         25.4232         2.22695 
        3.07883         25.1694         2.19873 
        3.09456         24.8628         2.17101 
        3.11026         24.6544          2.1438 
        3.12596         24.4782         2.11706 
        3.14163         24.2335         2.09084 
        3.15734         24.0032         2.06501 
        3.17308         23.7594         2.03955 
        3.18879         23.5843         2.01458 
        3.20447         23.3195         1.99008 
         3.2202         23.1044          1.9659 
         3.2359          22.836         1.94217 
        3.25157         22.8191         1.91888 
        3.26729         22.5058         1.89591 
        3.28304         22.2975         1.87327 
        3.29877         22.0085         1.85103 
        3.31446         21.8229         1.82919 
        3.33014         21.6275         1.80773 
        3.34585         21.4797         1.78658 
        3.36158         21.2316         1.76574 
        3.37727         21.0266         1.74529 
        3.39294         20.8907         1.72519 
        3.40867         20.6862         1.70533 
        3.42439         20.5073          1.6858 
        3.44008          20.317          1.6666 
        3.45578         20.1266          1.6477 
        3.47153         19.8945         1.62904 
        3.48724         19.7469         1.61071 
        3.50292          19.619          1.5927 
        3.51859         19.3997         1.57497 
        3.53431         19.2228         1.55746 
        3.55007         19.0321         1.54018 
        3.56577         18.8382         1.52322 
        3.58146         18.7251         1.50653 
        3.59719         18.5153         1.49004 
        3.61292         18.3675         1.47381 
        3.62859         18.2148         1.45789 
        3.64429         18.0657         1.44216 
        3.66003         17.9237         1.42662 
        3.67578         17.7116         1.41132 
        3.69146         17.6215          1.3963 
        3.70712         17.4276         1.38152 
        3.72284         17.3584          1.3669 
        3.73853         17.1293         1.35252 
        3.75422         16.9244         1.33834 
        3.76993         16.8315         1.32436 
        3.78564         16.6824         1.31057 
        3.80137         16.5037         1.29696 
        3.81707         16.3579         1.28358 
        3.83279          16.241         1.27037 
        3.84853         16.0698         1.25732 
        3.86424          15.966         1.24449 
        3.87992         15.8177         1.23185 
        3.89561         15.6416         1.21939 
        3.91134         15.5645         1.20707 
        3.92704          15.408         1.19494 
        3.94273         15.2937         1.18298 
        3.95845         15.1166         1.17117 
        3.97418         15.0422         1.15952 
        3.98988         14.8689         1.14804 
        4.00554          14.774         1.13675 
        4.02125         14.6459         1.12558 
        4.03698         14.5705         1.11454 
        4.05268         14.3791         1.10367 
        4.06839         14.2674         1.09294 
         4.0841         14.1645         1.08236 
        4.09983         14.0095          1.0719 
        4.11555         13.8929         1.06158 
        4.13124         13.7962         1.05143 
        4.14693         13.6818          1.0414 
        4.16266          13.566         1.03148 
        4.17839         13.4361         1.02169 
        4.19408         13.3167         1.01206 
        4.20977         13.2562         1.00254 
        4.22551         13.1027        0.993124 
        4.24123         13.0187        0.983837 
        4.25691         12.9075        0.974695 
        4.27259         12.7841        0.965666 
        4.28831         12.6583        0.956733 
        4.30404         12.5791        0.947904 
        4.31974         12.4619        0.939206 
        4.33543         12.3838        0.930622 
        4.35116         12.2894        0.922125 
        4.36688         12.1494        0.913737 
        4.38255         12.0587        0.905484 
        4.39825         11.9626        0.897316 
        4.41398         11.9208        0.889232 
         4.4297         11.7678        0.881256 
        4.44541         11.6693        0.873379 
        4.46111         11.5869        0.865604 
        4.47683         11.5115        0.857919 
        4.49251         11.4111        0.850342 
        4.50819         11.3391        0.842859 
         4.5239         11.2355        0.835455 
        4.53962         11.1527        0.828131 
        4.55535         11.0502        0.820891 
        4.57106         10.9497        0.813747 
        4.58678         10.8534        0.806688 
         4.6025         10.7876         0.79971 
        4.61821         10.7054        0.792816 
        4.63391         10.6091        0.786012 
         4.6496         10.5283        0.779291 
        4.66532         10.4365        0.772638 
        4.68103          10.374        0.766065 
        4.69673         10.2823        0.759575 
        4.71241         10.1815        0.753167 
        4.72811         10.1049        0.746822 
        4.74384         10.0581        0.740542 
        4.75955         9.96016        0.734343 
        4.77525         9.87482        0.728219 
        4.79096          9.8309        0.722158 
        4.80669         9.74209        0.716162 
         4.8224         9.67866        0.710241 
        4.83809         9.59205        0.704394 
        4.85379         9.51925        0.698608 
         4.8695         9.47207        0.692883 
        4.88521         9.37359        0.687224 
        4.90093         9.29667        0.681628 
        4.91663         9.24201        0.676099 
        4.93234         9.18417        0.670625 
        4.94807         9.08886        0.665209 
        4.96377         9.01601        0.659862 
        4.97943         8.96319        0.654585 
        4.99514         8.90466        0.649353 
        5.01086         8.83598        0.644173 
        5.02654         8.76382        0.639063 
        5.04227         8.70995        0.633994 
          5.058         8.61436        0.628977 
        5.07371         8.57279        0.624024 
        5.08942         8.51799        0.619124 
        5.10513         8.44086        0.614276 
        5.12084         8.37483        0.609477 
        5.13656         8.32705         0.60473 
        5.15225         8.26348        0.600042 
        5.16796         8.20696        0.595397 
        5.18369         8.15286        0.590796 
         5.1994         8.05203        0.586252 
        5.21509         8.02604         0.58176 
        5.23079         7.96224        0.577309 
        5.24649         7.90801        0.572909 
        5.26217         7.84325        0.568558 
        5.27788         7.79156        0.564245 
        5.29359         7.72783        0.559977 
        5.30933         7.66959        0.555746 
        5.32504         7.61748        0.551566 
        5.34073         7.58362        0.547434 
        5.35646         7.50155        0.543336 
        5.37218         7.46847        0.539279 
        5.38789         7.40468         0.53527 
        5.40357         7.36117        0.531306 
        5.41929         7.30407        0.527373 
        5.43502         7.25129         0.52348 
         5.4507          7.2101        0.519636 
        5.46639         7.17566        0.515829 
        5.48212         7.11463        0.512052 
        5.49786         7.07353        0.508308 
        5.51353         7.00235         0.50462 
        5.52921         6.95767        0.500964 
        5.54495         6.91706        0.497335 
        5.56066         6.86687        0.493745 
        5.57637         6.79896        0.490191 
        5.59207          6.7729        0.486675 
        5.60778         6.70291        0.483192 
        5.62346         6.66984        0.479748 
        5.63916         6.62425        0.476335 
        5.65487         6.58799        0.472952 
         5.6706         6.52733        0.469599 
        5.68633         6.48476        0.466277 
        5.70203         6.45054        0.462994 
        5.71773          6.4084        0.459743 
        5.73344         6.35885        0.456522 
        5.74916         6.32184        0.453328 
        5.76486         6.28385        0.450169 
        5.78054         6.23917        0.447045 
        5.79626         6.19149        0.443943 
          5.812         6.15369        0.440866 
         5.8277         6.11261        0.437828 
        5.84339         6.05956        0.434818 
        5.85911         6.03512         0.43183 
        5.87484         5.98754        0.428872 
        5.89053         5.94628        0.425946 
        5.90623         5.90807        0.423047 
        5.92195         5.85163         0.42017 
        5.93767          5.8328        0.417321 
        5.95336         5.78585        0.414503 
        5.96905         5.76321        0.411712 
        5.98476         5.71532        0.408943 
        6.00048         5.68774        0.406198 
        6.01617         5.64646        0.403482 
        6.03185         5.61855        0.400795 
        6.04756         5.57036        0.398125 
        6.06331          5.5333        0.395474 
        6.07903         5.50568        0.392853 
        6.09473         5.45786        0.390258 
        6.11044         5.42392        0.387684 
        6.12616         5.40003        0.385133 
        6.14186         5.36009        0.382608 
        6.15755          5.3217        0.380106 
        6.17326         5.28715        0.377624 
        6.18898         5.24999        0.375163 
        6.20467         5.22592        0.372729 
        6.22036         5.19347        0.370316 
         6.2361         5.15868        0.367918 
         6.2518         5.12538        0.365546 
        6.26748         5.09864        0.363199 
        6.28319         5.05609        0.360866 
        6.29893         5.03035        0.358552 
        6.31463         5.00543        0.356262 
        6.33033         4.96216        0.353993 
        6.34604         4.94563        0.351742 
        6.36177         4.90918        0.349509 
        6.37747          4.8742        0.347299 
