# k  (h/Mpc)    Pcb(k)  (Mpc/h)^3    Pcb_linear(k) (Mpc/h)^3   ShotnoiseSubtracted = true
      0.0200456          805.79         816.132 
      0.0350414         599.856         593.301 
      0.0492313         432.614         431.081 
      0.0637834         355.271         358.354 
      0.0800726         281.291         284.416 
       0.096163           209.3         206.369 
       0.111083         167.761         164.605 
       0.126058         145.167         145.874 
       0.142273         122.682         123.587 
       0.158546         98.2581         97.6079 
        0.17375         83.6412         82.2346 
       0.188953         75.1007         74.4615 
       0.204907         64.9248         65.8833 
       0.220756         56.2582         55.7412 
        0.23588         49.0206           48.49 
         0.2514         44.4822         44.0527 
       0.267535         40.5439         39.8601 
       0.283568          35.711         35.1513 
       0.299022         32.0697          31.318 
       0.314451         29.8308         28.6225 
       0.330372         26.9812         26.2579 
       0.346141         24.5424         23.8331 
       0.361624         22.3118          21.661 
       0.377134         20.4458         19.9315 
       0.392932         19.5091         18.4423 
       0.408854           17.63         17.0002 
       0.424564         16.6728         15.6693 
       0.440253         15.2477         14.5273 
       0.455999         13.9921         13.5342 
       0.471626         13.1069         12.6216 
        0.48727         12.5516         11.7679 
       0.502856         11.7556          11.001 
       0.518488         10.8317         10.3167 
       0.534347         10.1257         9.68059 
       0.550082         9.69378         9.09403 
       0.565732         9.25239         8.55741 
       0.581496         8.68225         8.06594 
       0.597222         8.17483          7.6152 
       0.612804         7.70483         7.20073 
       0.628434         7.40523         6.81441 
       0.644267         7.03592         6.45324 
       0.660051         6.66237         6.12036 
       0.675724         6.28599         5.81299 
       0.691403         6.04368         5.52647 
       0.707174         5.74678         5.25764 
       0.722871         5.60121         5.00777 
        0.73838         5.22608         4.77681 
       0.754018         4.99118         4.55867 
       0.769845         4.73649         4.35178 
        0.78569         4.61106         4.15756 
       0.801365         4.40731         3.97713 
       0.817031         4.25106         3.80757 
       0.832809         4.03011         3.64686 
       0.848511         3.90801          3.4962 
       0.864097         3.76554         3.35513 
       0.879701         3.65599         3.22174 
       0.895507         3.48505         3.09406 
       0.911279         3.36685          2.9736 
        0.92691         3.26802         2.86058 
       0.942635         3.11253         2.75284 
       0.958396         3.01348         2.65044 
       0.974128         2.92549         2.55346 
       0.989692         2.80088         2.46232 
        1.00528         2.72324          2.3755 
        1.02113         2.64661         2.29153 
        1.03692         2.57427         2.21194 
        1.05264         2.45958         2.13652 
        1.06832         2.39513         2.06474 
        1.08405         2.31289         1.99608 
        1.09979         2.25757         1.93052 
        1.11537         2.18265         1.86857 
        1.13105         2.10208         1.80897 
        1.14679         2.05076         1.75175 
        1.16256         1.98413         1.69691 
        1.17828         1.95093          1.6446 
        1.19395         1.87826         1.59468 
         1.2097         1.82359         1.54659 
        1.22537          1.7624         1.50072 
          1.241         1.72525         1.45686 
        1.25666         1.69363         1.41464 
        1.27241         1.64595         1.37391 
        1.28819         1.58385         1.33471 
        1.30392         1.54593         1.29717 
        1.31957         1.51689         1.26124 
        1.33529         1.45628         1.22654 
        1.35108          1.4286         1.19302 
        1.36674         1.38849         1.16099 
         1.3824         1.37012         1.13017 
        1.39811         1.32884         1.10037 
        1.41389         1.29524         1.07154 
        1.42964         1.26322         1.04379 
        1.44531         1.23881         1.01716 
        1.46101         1.20191        0.991403 
        1.47667         1.18094        0.966619 
        1.49229         1.14012        0.942751 
        1.50793         1.11527        0.919664 
        1.52367         1.08939        0.897204 
        1.53953         1.06302        0.875345 
        1.55526         1.05148         0.85439 
        1.57092         1.03185         0.83421 
        1.58662          1.0149        0.814635 
        1.60235        0.980016        0.795652 
        1.61809        0.961457        0.777266 
        1.63369        0.933847        0.759625 
        1.64941        0.920151        0.742407 
        1.66519        0.904877        0.725661 
        1.68085        0.880014        0.709552 
        1.69652        0.862935        0.693929 
        1.71228        0.843237        0.678688 
        1.72806        0.827866        0.663894 
        1.74368        0.812407         0.64969 
        1.75933        0.798218        0.635874 
        1.77505         0.78435        0.622396 
        1.79081        0.759318        0.609286 
         1.8065        0.753372         0.59661 
        1.82218        0.732879        0.584307 
        1.83797        0.715982        0.572266 
        1.85367        0.708168        0.560633 
        1.86928        0.694066        0.549393 
        1.88497        0.676963          0.5384 
        1.90073        0.670866        0.527668 
        1.91647        0.652586        0.517239 
        1.93218        0.642809        0.507114 
        1.94787        0.631261        0.497275 
        1.96363        0.621439        0.487659 
        1.97935         0.60803        0.478318 
        1.99499        0.598635        0.469274 
        2.01064        0.588264        0.460451 
         2.0264        0.573459          0.4518 
        2.04216        0.566441        0.443376 
        2.05781        0.557432         0.43522 
        2.07353        0.547087        0.427241 
        2.08928        0.538429        0.419444 
        2.10499        0.528215        0.411863 
        2.12065        0.519218        0.404492 
        2.13633        0.511735        0.397296 
        2.15211        0.500326        0.390228 
        2.16785        0.494765        0.383353 
        2.18349         0.48654        0.376686 
        2.19916        0.478546        0.370164 
        2.21489        0.469481        0.363775 
        2.23063        0.461059        0.357532 
         2.2463        0.455044        0.351465 
        2.26194        0.448921        0.345553 
        2.27765        0.440783        0.339747 
        2.29341        0.433988         0.33406 
        2.30914         0.42498        0.328514 
        2.32486        0.419605        0.323098 
        2.34061         0.41169        0.317795 
        2.35635        0.406329        0.312616 
        2.37203        0.402395         0.30757 
        2.38768        0.395267        0.302646 
        2.40339        0.389207        0.297812 
        2.41914        0.383962        0.293073 
        2.43483        0.377315        0.288453 
         2.4505        0.371971        0.283941 
        2.46622         0.36687         0.27951 
        2.48195        0.359817        0.275174 
        2.49759        0.358358        0.270952 
        2.51328        0.350084        0.266808 
        2.52906        0.344771        0.262725 
        2.54479        0.340075        0.258742 
        2.56049        0.334951         0.25485 
        2.57618        0.331771        0.251041 
        2.59189        0.325286        0.247305 
        2.60758        0.323056         0.24365 
        2.62325        0.317817        0.240074 
        2.63898        0.314533        0.236557 
        2.65468        0.307519        0.233118 
        2.67044         0.30438        0.229732 
        2.68618        0.300635        0.226422 
        2.70184         0.29617         0.22319 
        2.71755        0.291584        0.220013 
        2.73329        0.290179        0.216893 
        2.74897        0.283837        0.213844 
        2.76462        0.281246         0.21086 
        2.78034        0.276665        0.207921 
        2.79607        0.274383        0.205035 
        2.81179        0.268818        0.202207 
        2.82749        0.266759        0.199435 
        2.84321        0.263301        0.196713 
        2.85893        0.259705        0.194042 
        2.87462        0.255686        0.191425 
        2.89033        0.253595        0.188854 
        2.90605        0.250249        0.186328 
        2.92176        0.248405        0.183849 
        2.93747         0.24381        0.181417 
        2.95318        0.241256        0.179029 
        2.96891        0.238665        0.176682 
        2.98456        0.236103        0.174388 
        3.00023        0.232686        0.172131 
        3.01596        0.229734        0.169907 
        3.03164        0.226908        0.167729 
        3.04738          0.2249        0.165582 
         3.0631        0.222354        0.163474 
        3.07883        0.219591        0.161402 
        3.09456        0.217209        0.159367 
        3.11026        0.214117         0.15737 
        3.12596        0.211191        0.155407 
        3.14163        0.209801        0.153483 
        3.15734        0.207577        0.151586 
        3.17308        0.205186        0.149717 
        3.18879        0.202648        0.147885 
        3.20447        0.199922        0.146086 
         3.2202        0.198735        0.144311 
         3.2359         0.19588        0.142569 
        3.25157         0.19301        0.140859 
        3.26729        0.192186        0.139173 
        3.28304        0.189939        0.137511 
        3.29877        0.187583        0.135878 
        3.31446        0.186447        0.134276 
        3.33014        0.183983          0.1327 
        3.34585        0.181567        0.131148 
        3.36158        0.180229        0.129618 
        3.37727        0.178717        0.128117 
        3.39294        0.177011        0.126641 
        3.40867        0.174462        0.125183 
        3.42439        0.173431        0.123749 
        3.44008        0.171754         0.12234 
        3.45578         0.16972        0.120953 
        3.47153        0.168413        0.119583 
        3.48724        0.166791        0.118237 
        3.50292        0.165514        0.116915 
        3.51859         0.16364        0.115614 
        3.53431        0.161842        0.114329 
        3.55007        0.160619         0.11306 
        3.56577        0.159604        0.111815 
        3.58146        0.157698         0.11059 
        3.59719        0.156335         0.10938 
        3.61292        0.155151        0.108188 
        3.62859         0.15381        0.107019 
        3.64429        0.151851        0.105865 
        3.66003        0.150955        0.104724 
        3.67578        0.149533        0.103601 
        3.69146         0.14815        0.102498 
        3.70712          0.1471        0.101413 
        3.72284        0.146374         0.10034 
        3.73853        0.145152       0.0992847 
        3.75422        0.143431       0.0982438 
        3.76993        0.142329        0.097217 
        3.78564         0.14105       0.0962053 
        3.80137        0.140206       0.0952063 
        3.81707        0.138554       0.0942236 
        3.83279        0.137726       0.0932539 
        3.84853        0.136545       0.0922963 
        3.86424        0.135382       0.0913541 
        3.87992        0.134269       0.0904264 
        3.89561        0.133343       0.0895115 
        3.91134        0.132036       0.0886074 
        3.92704        0.130869       0.0877168 
        3.94273        0.129946       0.0868394 
        3.95845        0.128514       0.0859723 
        3.97418         0.12766       0.0851169 
        3.98988        0.126173       0.0842743 
        4.00554        0.125292       0.0834454 
        4.02125        0.123815       0.0826252 
        4.03698        0.122144       0.0818148 
        4.05268        0.121256       0.0810171 
        4.06839        0.119422       0.0802295 
         4.0841        0.118022       0.0794525 
        4.09983        0.116764       0.0786848 
        4.11555        0.115285       0.0779275 
        4.13124        0.113935       0.0771822 
        4.14693        0.112597       0.0764461 
        4.16266        0.111288       0.0757178 
        4.17839        0.110066       0.0749995 
        4.19408         0.10859       0.0742921 
        4.20977        0.107885       0.0735935 
        4.22551        0.106827       0.0729023 
        4.24123        0.105389       0.0722206 
        4.25691        0.104581       0.0715495 
        4.27259        0.103517       0.0708866 
        4.28831        0.102928       0.0702309 
        4.30404        0.101292       0.0695828 
        4.31974        0.100735       0.0689443 
        4.33543        0.099928       0.0683142 
        4.35116        0.099185       0.0676904 
        4.36688       0.0982651       0.0670747 
        4.38255       0.0974435       0.0664689 
        4.39825       0.0970382       0.0658693 
        4.41398        0.096166       0.0652758 
         4.4297        0.095689       0.0646904 
        4.44541       0.0948163       0.0641121 
        4.46111       0.0942585       0.0635414 
        4.47683       0.0936346       0.0629773 
        4.49251       0.0930682       0.0624211 
        4.50819       0.0928767       0.0618718 
         4.5239       0.0921937       0.0613283 
        4.53962        0.091736       0.0607906 
        4.55535       0.0915512       0.0602591 
        4.57106       0.0910425       0.0597348 
        4.58678       0.0907257       0.0592165 
         4.6025       0.0906217       0.0587043 
        4.61821       0.0903331       0.0581983 
        4.63391        0.089987       0.0576988 
         4.6496       0.0897454       0.0572054 
        4.66532       0.0895656        0.056717 
        4.68103       0.0894607       0.0562346 
        4.69673       0.0893802       0.0557581 
        4.71241       0.0895343       0.0552877 
        4.72811       0.0892553        0.054822 
        4.74384       0.0890332        0.054361 
        4.75955         0.08914        0.053906 
        4.77525       0.0892925       0.0534564 
        4.79096       0.0892943       0.0530114 
        4.80669       0.0888838       0.0525713 
         4.8224       0.0894753       0.0521367 
        4.83809       0.0894556       0.0517074 
        4.85379       0.0896599       0.0512827 
         4.8695       0.0896528       0.0508625 
        4.88521       0.0900733       0.0504471 
        4.90093       0.0905999       0.0500363 
        4.91663       0.0904891       0.0496304 
        4.93234       0.0909431       0.0492286 
        4.94807       0.0911724        0.048831 
        4.96377       0.0917749       0.0484385 
        4.97943       0.0925516       0.0480511 
        4.99514        0.092372        0.047667 
        5.01086       0.0926199       0.0472868 
        5.02654       0.0936751       0.0469117 
        5.04227       0.0940834       0.0465396 
          5.058       0.0945615       0.0461713 
        5.07371       0.0950919       0.0458077 
        5.08942       0.0960157        0.045448 
        5.10513       0.0966404       0.0450921 
        5.12084       0.0973043       0.0447399 
        5.13656        0.097787       0.0443915 
        5.15225        0.098714       0.0440473 
        5.16796       0.0996837       0.0437063 
        5.18369        0.100384       0.0433686 
         5.1994        0.101308        0.043035 
        5.21509        0.102176       0.0427052 
        5.23079           0.103       0.0423786 
        5.24649        0.104079       0.0420556 
        5.26217        0.105213       0.0417361 
        5.27788        0.106075       0.0414196 
        5.29359         0.10718       0.0411062 
        5.30933        0.108538       0.0407957 
        5.32504        0.109611       0.0404888 
        5.34073        0.110474       0.0401855 
        5.35646        0.111983       0.0398847 
        5.37218        0.113549       0.0395869 
        5.38789        0.114429       0.0392925 
        5.40357        0.115434       0.0390016 
        5.41929        0.116798       0.0387129 
        5.43502        0.118675       0.0384271 
         5.4507        0.120393       0.0381449 
        5.46639        0.121631       0.0378655 
        5.48212        0.123035       0.0375882 
        5.49786        0.124814       0.0373133 
        5.51353        0.127387       0.0370426 
        5.52921        0.127766       0.0367743 
        5.54495        0.130466       0.0365078 
        5.56066        0.132263       0.0362443 
        5.57637        0.133731       0.0359834 
        5.59207        0.134906       0.0357253 
        5.60778        0.137544       0.0354697 
        5.62346        0.139397       0.0352169 
        5.63916        0.140993       0.0349663 
        5.65487        0.143505        0.034718 
         5.6706        0.144977       0.0344719 
        5.68633        0.147611        0.034228 
        5.70203            0.15        0.033987 
        5.71773         0.15241       0.0337484 
        5.73344        0.155045       0.0335119 
        5.74916         0.15695       0.0332775 
        5.76486        0.159573       0.0330456 
        5.78054        0.161145       0.0328163 
        5.79626        0.164522       0.0325885 
          5.812        0.166718       0.0323627 
         5.8277        0.168602       0.0321396 
        5.84339        0.172075       0.0319187 
        5.85911         0.17426       0.0316994 
        5.87484        0.177248       0.0314822 
        5.89053          0.1793       0.0312675 
        5.90623        0.183654       0.0310546 
        5.92195        0.185617       0.0308434 
        5.93767        0.188431       0.0306343 
        5.95336        0.191446       0.0304274 
        5.96905        0.194087       0.0302225 
        5.98476        0.195914       0.0300193 
        6.00048        0.200589       0.0298178 
        6.01617        0.203605       0.0296184 
        6.03185         0.20662       0.0294212 
        6.04756        0.209463       0.0292252 
        6.06331        0.213767       0.0290306 
        6.07903        0.217942       0.0288382 
        6.09473        0.219138       0.0286477 
        6.11044        0.224609       0.0284587 
        6.12616        0.225392       0.0282715 
        6.14186        0.230044       0.0280861 
        6.15755        0.233617       0.0279025 
        6.17326        0.237709       0.0277203 
        6.18898        0.240827       0.0275396 
        6.20467        0.243785       0.0273609 
        6.22036        0.247216       0.0271838 
         6.2361        0.248711       0.0270078 
         6.2518        0.253819       0.0268336 
        6.26748           0.258       0.0266614 
        6.28319        0.262666       0.0264901 
        6.29893        0.266963       0.0263203 
        6.31463        0.270564       0.0261522 
        6.33033        0.273686       0.0259856 
        6.34604        0.278086       0.0258204 
        6.36177        0.281636       0.0256564 
        6.37747        0.284322       0.0254942 
