# k  (h/Mpc)    Pcb(k)  (Mpc/h)^3    Pcb_linear(k) (Mpc/h)^3   ShotnoiseSubtracted = true
      0.0200456         12549.2         12797.9 
      0.0350414         9003.76         9303.63 
      0.0492313         6689.01         6759.84 
      0.0637834         5730.22         5619.39 
      0.0800726         4532.47         4459.97 
       0.096163         3162.81          3236.1 
       0.111083         2518.97          2581.2 
       0.126058         2321.87         2287.46 
       0.142273         2006.69         1937.99 
       0.158546         1689.98          1530.6 
        0.17375         1354.22         1289.53 
       0.188953          1310.1         1167.64 
       0.204907         1230.87         1033.12 
       0.220756         1049.67         874.086 
        0.23588         925.954         760.379 
         0.2514         807.424         690.797 
       0.267535         790.617         625.052 
       0.283568         716.887         551.212 
       0.299022         670.046         491.102 
       0.314451         631.953         448.834 
       0.330372         582.526         411.754 
       0.346141         531.891          373.73 
       0.361624         511.514         339.669 
       0.377134         475.218         312.549 
       0.392932         453.148         289.196 
       0.408854         435.571         266.583 
       0.424564         412.419         245.713 
       0.440253         400.638         227.804 
       0.455999         377.288         212.232 
       0.471626         353.732         197.922 
        0.48727         342.873         184.535 
       0.502856         332.014         172.509 
       0.518488         328.613         161.778 
       0.534347         308.306         151.803 
       0.550082           291.5         142.605 
       0.565732         288.337          134.19 
       0.581496         272.779         126.483 
       0.597222         267.229         119.415 
       0.612804         258.403         112.916 
       0.628434         248.728         106.858 
       0.644267         241.085         101.194 
       0.660051          237.55         95.9743 
       0.675724         232.949         91.1543 
       0.691403         226.301         86.6613 
       0.707174         217.287         82.4458 
       0.722871         215.153         78.5276 
        0.73838         210.816         74.9058 
       0.754018         205.236         71.4851 
       0.769845         198.508         68.2409 
        0.78569         197.313         65.1953 
       0.801365         190.902         62.3659 
       0.817031         185.008          59.707 
       0.832809         182.766          57.187 
       0.848511         178.088         54.8244 
       0.864097         175.693         52.6122 
       0.879701         171.818         50.5205 
       0.895507         167.428         48.5184 
       0.911279         163.248         46.6295 
        0.92691         162.741         44.8572 
       0.942635         158.692         43.1677 
       0.958396         158.232          41.562 
       0.974128         154.018         40.0412 
       0.989692         150.364         38.6119 
        1.00528         147.975         37.2506 
        1.02113         147.138         35.9338 
        1.03692         141.951         34.6858 
        1.05264         140.017          33.503 
        1.06832         137.355         32.3775 
        1.08405         135.498         31.3009 
        1.09979         134.894         30.2728 
        1.11537         130.527         29.3012 
        1.13105         129.754         28.3667 
        1.14679         128.895         27.4695 
        1.16256         126.877         26.6094 
        1.17828         124.054         25.7892 
        1.19395         122.358         25.0064 
         1.2097         120.545         24.2523 
        1.22537         119.608          23.533 
          1.241         117.121         22.8451 
        1.25666         115.167         22.1832 
        1.27241          113.46         21.5444 
        1.28819         112.026         20.9298 
        1.30392         110.559         20.3411 
        1.31957         109.245         19.7777 
        1.33529         106.826         19.2336 
        1.35108         105.698         18.7079 
        1.36674         104.775         18.2057 
         1.3824         102.635         17.7224 
        1.39811         101.776         17.2551 
        1.41389          100.27         16.8029 
        1.42964         98.5596         16.3678 
        1.44531         96.4944         15.9502 
        1.46101         95.7101         15.5463 
        1.47667         94.9863         15.1577 
        1.49229         93.2995         14.7834 
        1.50793          92.538         14.4214 
        1.52367          91.243         14.0692 
        1.53953         89.7347         13.7264 
        1.55526         88.9615         13.3978 
        1.57092         88.2081         13.0814 
        1.58662         86.3466         12.7744 
        1.60235         85.9864         12.4767 
        1.61809         84.4893         12.1884 
        1.63369         83.7029         11.9118 
        1.64941         82.9395         11.6418 
        1.66519         80.9678         11.3792 
        1.68085         80.4895         11.1266 
        1.69652         78.7656         10.8816 
        1.71228         78.7324         10.6426 
        1.72806         77.4888         10.4106 
        1.74368         76.6035         10.1879 
        1.75933         75.4161         9.97123 
        1.77505         74.8605         9.75988 
        1.79081         73.6112          9.5543 
         1.8065         72.8732         9.35552 
        1.82218         71.7526         9.16259 
        1.83797         71.0869         8.97379 
        1.85367         70.3362         8.79136 
        1.86928         70.0902          8.6151 
        1.88497         68.6198         8.44272 
        1.90073         67.7075         8.27444 
        1.91647         67.3413         8.11089 
        1.93218         66.3195         7.95212 
        1.94787         65.5454         7.79784 
        1.96363         64.6458         7.64705 
        1.97935         64.3566         7.50057 
        1.99499         63.2075         7.35875 
        2.01064          62.862          7.2204 
         2.0264         61.5127         7.08474 
        2.04216         61.0405         6.95264 
        2.05781         60.3462         6.82475 
        2.07353         59.4948         6.69962 
        2.08928         58.7763         6.57736 
        2.10499          58.408         6.45848 
        2.12065          57.764          6.3429 
        2.13633         57.2143         6.23005 
        2.15211         56.8076         6.11922 
        2.16785         56.0574          6.0114 
        2.18349         55.6084         5.90686 
        2.19916         54.8118         5.80459 
        2.21489         54.3778          5.7044 
        2.23063         53.7952         5.60651 
         2.2463         53.2215         5.51137 
        2.26194         52.3101         5.41866 
        2.27765         51.9667         5.32762 
        2.29341         51.3733         5.23844 
        2.30914          50.615         5.15148 
        2.32486         49.8536         5.06655 
        2.34061         49.5656         4.98339 
        2.35635         48.9795         4.90217 
        2.37203         48.3571         4.82305 
        2.38768         47.9674         4.74584 
        2.40339         47.4023         4.67004 
        2.41914         47.1113         4.59572 
        2.43483         46.6145         4.52328 
         2.4505         46.1808         4.45252 
        2.46622         45.6682         4.38304 
        2.48195         45.1218         4.31504 
        2.49759         44.4906         4.24884 
        2.51328         44.0202         4.18386 
        2.52906         43.6389         4.11983 
        2.54479         43.1608         4.05738 
        2.56049         42.5401         3.99634 
        2.57618         42.2904         3.93661 
        2.59189         41.7166         3.87802 
        2.60758         41.4275         3.82071 
        2.62325         40.8948         3.76463 
        2.63898         40.4954         3.70948 
        2.65468         39.9591         3.65555 
        2.67044         39.4172         3.60246 
        2.68618         39.2118         3.55055 
        2.70184         38.7985         3.49987 
        2.71755          38.547         3.45005 
        2.73329         37.9309         3.40113 
        2.74897          37.596         3.35332 
        2.76462         37.0853         3.30653 
        2.78034          36.937         3.26044 
        2.79607         36.4783         3.21518 
        2.81179         36.1447         3.17083 
        2.82749         35.6101         3.12737 
        2.84321         35.3797         3.08468 
        2.85893         34.9869         3.04279 
        2.87462         34.5369         3.00176 
        2.89033         34.2101         2.96144 
        2.90605         34.0047         2.92183 
        2.92176         33.6413         2.88297 
        2.93747         33.3391         2.84483 
        2.95318         32.9124         2.80737 
        2.96891         32.4923         2.77057 
        2.98456         32.3174          2.7346 
        3.00023         31.8857         2.69921 
        3.01596         31.5393         2.66433 
        3.03164         31.3802         2.63017 
        3.04738         31.0532         2.59652 
         3.0631         30.7093         2.56346 
        3.07883         30.3862         2.53097 
        3.09456         30.1246         2.49906 
        3.11026          29.829         2.46774 
        3.12596         29.5642         2.43696 
        3.14163         29.2128         2.40678 
        3.15734         28.9908         2.37704 
        3.17308         28.6144         2.34773 
        3.18879         28.4119           2.319 
        3.20447         28.1171         2.29079 
         3.2202         27.8277         2.26296 
         3.2359         27.5638         2.23564 
        3.25157         27.4237         2.20884 
        3.26729         27.1319         2.18239 
        3.28304         26.8046         2.15633 
        3.29877         26.4621         2.13073 
        3.31446         26.2927         2.10559 
        3.33014         26.0616         2.08089 
        3.34585          25.909         2.05654 
        3.36158         25.5045         2.03255 
        3.37727         25.2602         2.00902 
        3.39294         25.1104         1.98588 
        3.40867         24.8228         1.96302 
        3.42439         24.5642         1.94053 
        3.44008         24.3797         1.91844 
        3.45578         24.1998         1.89667 
        3.47153         23.9002          1.8752 
        3.48724         23.6758         1.85409 
        3.50292         23.5515         1.83336 
        3.51859         23.2385         1.81296 
        3.53431         23.0817          1.7928 
        3.55007         22.8104         1.77291 
        3.56577         22.5873         1.75339 
        3.58146         22.4929         1.73417 
        3.59719         22.1943          1.7152 
        3.61292         22.0327         1.69651 
        3.62859         21.7819         1.67818 
        3.64429          21.593         1.66008 
        3.66003         21.4098         1.64219 
        3.67578         21.1857         1.62458 
        3.69146         21.0381         1.60729 
        3.70712         20.8054         1.59028 
        3.72284         20.6701         1.57345 
        3.73853         20.4376          1.5569 
        3.75422         20.2689         1.54057 
        3.76993         20.0878         1.52447 
        3.78564         19.8831         1.50861 
        3.80137         19.7394         1.49294 
        3.81707         19.5685         1.47753 
        3.83279          19.377         1.46233 
        3.84853         19.1938         1.44731 
        3.86424         19.0512         1.43254 
        3.87992         18.8641         1.41799 
        3.89561         18.6816         1.40364 
        3.91134          18.567         1.38946 
        3.92704         18.3818          1.3755 
        3.94273         18.2247         1.36174 
        3.95845         18.0123         1.34814 
        3.97418         17.9126         1.33473 
        3.98988         17.7135         1.32152 
        4.00554         17.5874         1.30852 
        4.02125         17.4315         1.29566 
        4.03698         17.2502         1.28295 
        4.05268         17.1426         1.27044 
        4.06839         16.9308         1.25809 
         4.0841         16.8805         1.24591 
        4.09983         16.6402         1.23387 
        4.11555         16.5543         1.22199 
        4.13124         16.4183         1.21031 
        4.14693         16.2512         1.19876 
        4.16266         16.0983         1.18734 
        4.17839         15.9792         1.17608 
        4.19408         15.8276         1.16498 
        4.20977         15.7053         1.15403 
        4.22551         15.5819         1.14319 
        4.24123         15.4729          1.1325 
        4.25691          15.363         1.12198 
        4.27259         15.2042         1.11158 
        4.28831         15.0238          1.1013 
        4.30404         14.9553         1.09114 
        4.31974         14.8139         1.08113 
        4.33543         14.6962         1.07124 
        4.35116         14.5559         1.06146 
        4.36688           14.46         1.05181 
        4.38255         14.3252         1.04231 
        4.39825          14.244         1.03291 
        4.41398         14.0957          1.0236 
         4.4297         13.9606         1.01442 
        4.44541         13.8752         1.00535 
        4.46111         13.7838        0.996402 
        4.47683         13.6398        0.987555 
        4.49251         13.5413        0.978834 
        4.50819         13.4365        0.970219 
         4.5239         13.3435        0.961697 
        4.53962          13.203        0.953266 
        4.55535         13.1057        0.944932 
        4.57106         12.9949        0.936709 
        4.58678         12.8684        0.928583 
         4.6025         12.7781        0.920551 
        4.61821           12.67        0.912615 
        4.63391         12.6168        0.904783 
         4.6496         12.4644        0.897046 
        4.66532         12.3546        0.889387 
        4.68103         12.2423        0.881822 
        4.69673         12.2034        0.874351 
        4.71241         12.0721        0.866974 
        4.72811         11.9804         0.85967 
        4.74384         11.8799        0.852442 
        4.75955         11.7931        0.845307 
        4.77525         11.7119        0.838257 
        4.79096         11.6164         0.83128 
        4.80669         11.5235        0.824378 
         4.8224          11.436        0.817563 
        4.83809         11.3691        0.810831 
        4.85379         11.2412        0.804172 
         4.8695         11.2077        0.797581 
        4.88521         11.0811        0.791068 
        4.90093         11.0176        0.784626 
        4.91663         10.9089        0.778261 
        4.93234           10.83        0.771961 
        4.94807          10.744        0.765725 
        4.96377         10.6703        0.759571 
        4.97943         10.5893        0.753497 
        4.99514         10.5195        0.747473 
        5.01086         10.4284        0.741511 
        5.02654         10.3469        0.735629 
        5.04227         10.2879        0.729794 
          5.058         10.1747        0.724019 
        5.07371         10.1327        0.718317 
        5.08942         10.0427        0.712677 
        5.10513         9.96674        0.707096 
        5.12084         9.90337        0.701572 
        5.13656         9.82825        0.696109 
        5.15225          9.7594        0.690712 
        5.16796         9.67506        0.685364 
        5.18369         9.61498        0.680068 
         5.1994         9.52603        0.674838 
        5.21509         9.47563        0.669667 
        5.23079         9.38996        0.664544 
        5.24649          9.3254        0.659479 
        5.26217         9.24929         0.65447 
        5.27788         9.19133        0.649506 
        5.29359         9.11305        0.644592 
        5.30933         9.04192        0.639722 
        5.32504         8.98114        0.634911 
        5.34073         8.93525        0.630154 
        5.35646         8.85067        0.625437 
        5.37218         8.78656        0.620767 
        5.38789         8.73868        0.616152 
        5.40357          8.6859        0.611589 
        5.41929         8.60461        0.607062 
        5.43502         8.53221        0.602581 
         5.4507         8.48017        0.598155 
        5.46639         8.41699        0.593774 
        5.48212          8.3654        0.589426 
        5.49786         8.31109        0.585116 
        5.51353         8.24516         0.58087 
        5.52921         8.19087        0.576663 
        5.54495         8.14176        0.572484 
        5.56066         8.06975        0.568352 
        5.57637         8.01424        0.564261 
        5.59207         7.96543        0.560214 
        5.60778         7.90447        0.556205 
        5.62346         7.85209        0.552241 
        5.63916         7.79994        0.548311 
        5.65487         7.73948        0.544418 
         5.6706         7.68104        0.540558 
        5.68633         7.62723        0.536734 
        5.70203         7.57655        0.532955 
        5.71773         7.51934        0.529213 
        5.73344         7.47217        0.525505 
        5.74916         7.43029        0.521828 
        5.76486         7.39229        0.518192 
        5.78054         7.32077        0.514596 
        5.79626         7.27124        0.511025 
          5.812         7.21377        0.507483 
         5.8277         7.17203        0.503986 
        5.84339         7.12974        0.500521 
        5.85911          7.0766        0.497082 
        5.87484         7.04083        0.493676 
        5.89053         6.99056        0.490309 
        5.90623         6.92766        0.486972 
        5.92195         6.88632         0.48366 
        5.93767         6.84066         0.48038 
        5.95336         6.80158        0.477136 
        5.96905         6.74826        0.473924 
        5.98476         6.71357        0.470736 
        6.00048         6.66916        0.467577 
        6.01617         6.61954        0.464451 
        6.03185         6.56728        0.461357 
        6.04756         6.53083        0.458284 
        6.06331         6.49239        0.455233 
        6.07903         6.45352        0.452215 
        6.09473         6.40311        0.449228 
        6.11044         6.34485        0.446265 
        6.12616         6.31706        0.443329 
        6.14186         6.28594        0.440423 
        6.15755         6.23749        0.437542 
        6.17326         6.17651        0.434685 
        6.18898         6.14307        0.431853 
        6.20467         6.11407         0.42905 
        6.22036         6.06757        0.426273 
         6.2361         6.02524        0.423513 
         6.2518         5.98906        0.420782 
        6.26748         5.95174         0.41808 
        6.28319         5.90823        0.415395 
        6.29893         5.87922        0.412732 
        6.31463          5.8453        0.410096 
        6.33033         5.79758        0.407484 
        6.34604         5.75827        0.404893 
        6.36177         5.72996        0.402321 
        6.37747         5.69951        0.399777 
