# k  (h/Mpc)    Pcb(k)  (Mpc/h)^3    Pcb_linear(k) (Mpc/h)^3   ShotnoiseSubtracted = true
      0.0200456         25598.3           26111 
      0.0350414         16081.7         16779.6 
      0.0492313         11300.2         11453.3 
      0.0637834         9585.02         9273.63 
      0.0800726         7278.22          7023.9 
       0.096163         4829.94         4845.27 
       0.111083         3862.88         3825.11 
       0.126058         3526.33         3381.33 
       0.142273         3006.02         2764.41 
       0.158546         2576.66         2115.48 
        0.17375         2048.43         1787.77 
       0.188953         1995.97         1617.16 
       0.204907         1850.33         1394.13 
       0.220756         1585.39         1154.01 
        0.23588         1418.42         1005.94 
         0.2514         1225.91         914.104 
       0.267535         1210.57         812.759 
       0.283568         1091.62         705.256 
       0.299022         1031.48         627.624 
       0.314451         976.422         573.525 
       0.330372         892.364         520.393 
       0.346141         844.371         466.768 
       0.361624         810.819         422.757 
       0.377134         752.589         388.459 
       0.392932          714.16         357.033 
       0.408854         701.957          326.32 
       0.424564          643.14         299.433 
       0.440253          633.27         276.917 
       0.455999          603.57         256.806 
       0.471626         583.476         238.057 
        0.48727         554.736         220.941 
       0.502856         537.968          205.94 
       0.518488         530.954         192.418 
       0.534347         496.387         179.753 
       0.550082         480.598         168.169 
       0.565732         478.334         157.753 
       0.581496         447.783         148.206 
       0.597222         438.862         139.433 
       0.612804          429.41         131.378 
       0.628434         416.144          123.95 
       0.644267         404.545         117.033 
       0.660051         392.166         110.658 
       0.675724         386.618         104.788 
       0.691403         372.408         99.3356 
       0.707174         359.641         94.2367 
       0.722871         353.986         89.5124 
        0.73838         348.697         85.1591 
       0.754018         339.338         81.0597 
       0.769845         332.948         77.1831 
        0.78569         326.783         73.5543 
       0.801365         317.917         70.1924 
       0.817031         307.951         67.0414 
       0.832809         305.465         64.0625 
       0.848511         297.755         61.2766 
       0.864097         289.861         58.6743 
       0.879701         284.843         56.2195 
       0.895507         281.166         53.8752 
       0.911279         273.277         51.6685 
        0.92691         269.755         49.6027 
       0.942635         262.357         47.6377 
       0.958396         257.368         45.7741 
       0.974128         252.494         44.0129 
       0.989692         249.849          42.361 
        1.00528         243.812         40.7908 
        1.02113         240.271         39.2751 
        1.03692         235.469         37.8415 
        1.05264         232.743         36.4854 
        1.06832         226.537         35.1975 
        1.08405         223.141         33.9678 
        1.09979         218.374         32.7958 
        1.11537         215.904         31.6902 
        1.13105         211.012         30.6286 
        1.14679         205.522         29.6112 
        1.16256          203.84         28.6378 
        1.17828         202.407         27.7109 
        1.19395         197.103         26.8279 
         1.2097         194.629         25.9786 
        1.22537         191.478         25.1699 
          1.241         189.588         24.3978 
        1.25666         187.216         23.6559 
        1.27241         183.186         22.9412 
        1.28819         180.925         22.2545 
        1.30392         176.871         21.5977 
        1.31957         176.617         20.9702 
        1.33529         173.096         20.3651 
        1.35108         168.899         19.7812 
        1.36674         167.054         19.2243 
         1.3824         166.324         18.6891 
        1.39811         163.141         18.1724 
        1.41389         160.619         17.6731 
        1.42964         158.996         17.1932 
        1.44531         156.868         16.7333 
        1.46101         153.464         16.2891 
        1.47667         151.331         15.8623 
        1.49229         150.925         15.4517 
        1.50793         146.806         15.0551 
        1.52367         145.734         14.6698 
        1.53953         143.798         14.2952 
        1.55526         141.049         13.9366 
        1.57092         139.281         13.5917 
        1.58662         138.023         13.2575 
        1.60235         135.657         12.9338 
        1.61809         134.536         12.6207 
        1.63369         132.194         12.3206 
        1.64941         129.187         12.0281 
        1.66519          128.14         11.7439 
        1.68085         126.464         11.4708 
        1.69652         125.576         11.2063 
        1.71228         122.911         10.9485 
        1.72806         120.928         10.6986 
        1.74368         120.329         10.4589 
        1.75933         118.139          10.226 
        1.77505         117.121         9.99904 
        1.79081         115.667         9.77851 
         1.8065         113.736         9.56551 
        1.82218         112.787         9.35899 
        1.83797         111.034          9.1571 
        1.85367         109.552         8.96222 
        1.86928         107.971         8.77414 
        1.88497          106.96         8.59037 
        1.90073         105.281         8.41115 
        1.91647         103.763         8.23715 
        1.93218         102.734          8.0684 
        1.94787         100.831         7.90458 
        1.96363         99.6622         7.74462 
        1.97935         98.6208         7.58937 
        1.99499         97.3095         7.43921 
        2.01064         95.8184         7.29287 
         2.0264         94.9509          7.1495 
        2.04216         93.7576         7.01002 
        2.05781         92.5719         6.87511 
        2.07353         91.9572         6.74324 
        2.08928         89.8051          6.6145 
        2.10499         88.6656         6.48944 
        2.12065         87.7757         6.36796 
        2.13633         86.7031         6.24945 
        2.15211          85.685         6.13317 
        2.16785         84.2758         6.02014 
        2.18349         83.2314         5.91064 
        2.19916         82.5039          5.8036 
        2.21489         81.5409         5.69884 
        2.23063         80.2742         5.59657 
         2.2463         79.5975         5.49725 
        2.26194         78.2584         5.40055 
        2.27765         77.0862         5.30567 
        2.29341         76.7166          5.2128 
        2.30914         75.3641         5.12232 
        2.32486         74.7943         5.03402 
        2.34061         73.8926         4.94763 
        2.35635         72.7374         4.86333 
        2.37203         71.8118         4.78126 
        2.38768         70.9139         4.70124 
        2.40339         70.1817         4.62274 
        2.41914         69.3598         4.54584 
        2.43483         68.5306         4.47094 
         2.4505         67.4934         4.39783 
        2.46622          66.899          4.3261 
        2.48195         65.9439         4.25594 
        2.49759         65.0933          4.1877 
        2.51328         64.6493         4.12076 
        2.52906         63.7606         4.05484 
        2.54479          62.821          3.9906 
        2.56049         62.1378         3.92787 
        2.57618         61.6253         3.86652 
        2.59189         60.6787         3.80638 
        2.60758         59.9265         3.74759 
        2.62325         59.3447         3.69011 
        2.63898         58.4627         3.63362 
        2.65468         57.9235         3.57842 
        2.67044         57.3478         3.52412 
        2.68618         56.7939         3.47106 
        2.70184         56.2767          3.4193 
        2.71755         55.5026         3.36845 
        2.73329         54.7481         3.31854 
        2.74897         54.3467          3.2698 
        2.76462         53.4682         3.22214 
        2.78034          53.004         3.17522 
        2.79607         52.3376         3.12917 
        2.81179         51.8609         3.08408 
        2.82749         51.3331         3.03993 
        2.84321          50.767         2.99657 
        2.85893         50.1341         2.95407 
        2.87462         49.6179         2.91246 
        2.89033         49.1115          2.8716 
        2.90605         48.3851         2.83148 
        2.92176         47.8951         2.79215 
        2.93747         47.4655         2.75357 
        2.95318         46.9671          2.7157 
        2.96891         46.3942         2.67852 
        2.98456         45.8557          2.6422 
        3.00023         45.2342         2.60649 
        3.01596         44.7648         2.57132 
        3.03164         44.3315         2.53689 
        3.04738         43.9231         2.50299 
         3.0631         43.3717         2.46971 
        3.07883         43.0704         2.43703 
        3.09456         42.5423         2.40494 
        3.11026         42.0155         2.37347 
        3.12596         41.4295         2.34256 
        3.14163         41.2579         2.31227 
        3.15734         40.7386         2.28244 
        3.17308         40.2733         2.25306 
        3.18879         39.8935         2.22426 
        3.20447         39.3798         2.19601 
         3.2202          39.104         2.16816 
         3.2359         38.7076         2.14083 
        3.25157         38.1374         2.11404 
        3.26729         37.7686         2.08761 
        3.28304         37.5167         2.06159 
        3.29877         37.0924         2.03603 
        3.31446         36.4517         2.01096 
        3.33014         36.2979         1.98633 
        3.34585         35.8505         1.96207 
        3.36158         35.6036         1.93818 
        3.37727         35.2376         1.91475 
        3.39294         34.9671         1.89173 
        3.40867         34.4642           1.869 
        3.42439         34.1392         1.84665 
        3.44008         33.8226         1.82471 
        3.45578         33.4618         1.80311 
        3.47153         33.0951          1.7818 
        3.48724         32.7971         1.76087 
        3.50292         32.5029         1.74032 
        3.51859         32.1867         1.72011 
        3.53431         31.8085         1.70015 
        3.55007         31.4186         1.68045 
        3.56577         31.2285         1.66115 
        3.58146         30.9372         1.64215 
        3.59719         30.6084          1.6234 
        3.61292         30.3321         1.60494 
        3.62859         30.0489         1.58684 
        3.64429         29.7464         1.56898 
        3.66003         29.4438         1.55134 
        3.67578         29.2326         1.53398 
        3.69146         28.9309         1.51694 
        3.70712         28.6306         1.50019 
        3.72284         28.3397         1.48363 
        3.73853         28.0422         1.46734 
        3.75422         27.8105         1.45129 
        3.76993         27.5883         1.43546 
        3.78564          27.274         1.41988 
        3.80137         27.0047         1.40449 
        3.81707         26.7767         1.38937 
        3.83279         26.4821         1.37445 
        3.84853         26.2404         1.35972 
        3.86424         26.1179         1.34524 
        3.87992         25.7691         1.33099 
        3.89561         25.6203         1.31694 
        3.91134         25.3248         1.30306 
        3.92704         25.0987          1.2894 
        3.94273         24.7939         1.27595 
        3.95845         24.6578         1.26265 
        3.97418         24.3837         1.24955 
        3.98988         24.1588         1.23665 
        4.00554          23.969         1.22396 
        4.02125         23.6938         1.21141 
        4.03698         23.5785         1.19901 
        4.05268         23.3516         1.18682 
        4.06839         23.1572         1.17478 
         4.0841         22.9517         1.16292 
        4.09983         22.6829          1.1512 
        4.11555         22.4333         1.13964 
        4.13124         22.2342         1.12827 
        4.14693          22.109         1.11705 
        4.16266         21.8259         1.10595 
        4.17839         21.6613           1.095 
        4.19408         21.4902         1.08423 
        4.20977         21.2603          1.0736 
        4.22551          21.071         1.06308 
        4.24123         20.8662         1.05271 
        4.25691         20.7126         1.04251 
        4.27259         20.5332         1.03244 
        4.28831         20.3734         1.02248 
        4.30404         20.2134         1.01264 
        4.31974         20.0163         1.00295 
        4.33543         19.8409        0.993388 
        4.35116         19.6522        0.983929 
        4.36688         19.5199        0.974595 
        4.38255         19.3191        0.965416 
        4.39825         19.2184        0.956334 
        4.41398         18.9809         0.94735 
         4.4297         18.8516        0.938489 
        4.44541         18.6732        0.929742 
        4.46111          18.517        0.921112 
        4.47683         18.3817        0.912584 
        4.49251         18.1758         0.90418 
        4.50819         18.0216        0.895883 
         4.5239         17.9475        0.887677 
        4.53962         17.7648        0.879563 
        4.55535         17.6352        0.871545 
        4.57106          17.476        0.863637 
        4.58678         17.3457        0.855825 
         4.6025         17.1861        0.848106 
        4.61821         17.0158        0.840483 
        4.63391         16.8693        0.832963 
         4.6496         16.7777        0.825537 
        4.66532         16.6027        0.818188 
        4.68103         16.4569        0.810932 
        4.69673         16.3317        0.803769 
        4.71241         16.1712        0.796699 
        4.72811         16.0535        0.789702 
        4.74384         15.9059        0.782779 
        4.75955          15.842        0.775948 
        4.77525         15.6547        0.769202 
        4.79096         15.5872        0.762527 
        4.80669         15.3883        0.755927 
         4.8224         15.2933        0.749412 
        4.83809         15.1597         0.74298 
        4.85379         15.0632        0.736619 
         4.8695         14.9409        0.730326 
        4.88521         14.8024        0.724108 
        4.90093          14.667        0.717961 
        4.91663          14.592        0.711891 
        4.93234         14.4652        0.705883 
        4.94807         14.3664         0.69994 
        4.96377         14.2302        0.694075 
        4.97943         14.0895         0.68829 
        4.99514         14.0256        0.682554 
        5.01086         13.8995        0.676879 
        5.02654         13.7713        0.671283 
        5.04227         13.6973        0.665732 
          5.058         13.5798        0.660241 
        5.07371         13.4685        0.654822 
        5.08942         13.3503        0.649462 
        5.10513         13.2491        0.644162 
        5.12084         13.1583        0.638917 
        5.13656         13.0214        0.633731 
        5.15225         12.9618         0.62861 
        5.16796         12.8515        0.623538 
        5.18369         12.7548        0.618516 
         5.1994         12.6503        0.613558 
        5.21509         12.6077        0.608658 
        5.23079         12.4717        0.603805 
        5.24649         12.3702        0.599009 
        5.26217         12.2688        0.594267 
        5.27788         12.1913        0.589569 
        5.29359         12.0956        0.584921 
        5.30933         11.9795        0.580316 
        5.32504         11.9099        0.575767 
        5.34073         11.8242        0.571272 
        5.35646         11.7214        0.566815 
        5.37218         11.6252        0.562404 
        5.38789         11.5521        0.558047 
        5.40357         11.4485         0.55374 
        5.41929         11.3816        0.549469 
        5.43502         11.2787        0.545242 
         5.4507          11.212        0.541069 
        5.46639         11.1226        0.536939 
        5.48212         11.0462        0.532842 
        5.49786         10.9327        0.528782 
        5.51353         10.8678        0.524784 
        5.52921         10.7673        0.520823 
        5.54495         10.7149         0.51689 
        5.56066         10.6337        0.513003 
        5.57637         10.5611        0.509155 
        5.59207         10.4979        0.505349 
        5.60778         10.3943        0.501581 
        5.62346         10.3171        0.497856 
        5.63916         10.2491        0.494165 
        5.65487         10.1757        0.490509 
         5.6706         10.0916        0.486885 
        5.68633         10.0455        0.483296 
        5.70203         9.95108        0.479751 
        5.71773         9.88661        0.476241 
        5.73344         9.83053        0.472764 
        5.74916         9.75751        0.469318 
        5.76486         9.68133        0.465911 
        5.78054          9.5964        0.462542 
        5.79626         9.53527        0.459197 
          5.812         9.45293        0.455882 
         5.8277          9.4064        0.452608 
        5.84339         9.32942        0.449367 
        5.85911         9.26737         0.44615 
        5.87484         9.19906        0.442965 
        5.89053         9.15026        0.439817 
        5.90623         9.07856        0.436698 
        5.92195         9.02949        0.433604 
        5.93767          8.9465        0.430541 
        5.95336         8.87963        0.427512 
        5.96905          8.8317        0.424513 
        5.98476         8.76896        0.421539 
        6.00048         8.71221        0.418591 
        6.01617         8.63205        0.415676 
        6.03185         8.57778        0.412791 
        6.04756         8.51824        0.409927 
        6.06331         8.48058        0.407083 
        6.07903          8.4015        0.404273 
        6.09473         8.34784         0.40149 
        6.11044         8.27406        0.398732 
        6.12616         8.23728        0.395999 
        6.14186         8.17922        0.393295 
        6.15755         8.12778        0.390615 
        6.17326         8.06812        0.387959 
        6.18898         8.02475        0.385325 
        6.20467         7.97457         0.38272 
        6.22036           7.906         0.38014 
         6.2361         7.85145        0.377576 
         6.2518         7.80098        0.375039 
        6.26748         7.73138        0.372531 
        6.28319         7.69351        0.370039 
        6.29893         7.63907        0.367567 
        6.31463         7.58603        0.365122 
        6.33033          7.5387          0.3627 
        6.34604         7.48278        0.360297 
        6.36177         7.44754        0.357914 
        6.37747         7.39731        0.355557 
