# k  (h/Mpc)    Pcb(k)  (Mpc/h)^3    Pcb_linear(k) (Mpc/h)^3   ShotnoiseSubtracted = true
      0.0200456          2625.8         2654.16 
      0.0350414         1742.35         1705.63 
      0.0492313         1168.41         1164.22 
      0.0637834         928.991         942.656 
      0.0800726          702.53         713.973 
       0.096163         506.036         492.517 
       0.111083         401.489         388.819 
       0.126058         342.195         343.709 
       0.142273         280.571             281 
       0.158546          219.97         215.036 
        0.17375         188.171         181.725 
       0.188953         169.293         164.383 
       0.204907         141.615         141.712 
       0.220756         121.918         117.304 
        0.23588         106.466         102.252 
         0.2514         96.0486         92.9178 
       0.267535         87.4526         82.6162 
       0.283568         75.6818         71.6886 
       0.299022         68.8062         63.7974 
       0.314451         64.5501         58.2983 
       0.330372         57.1834         52.8975 
       0.346141         51.7046         47.4465 
       0.361624         47.1747         42.9728 
       0.377134         43.0321         39.4864 
       0.392932          41.157         36.2921 
       0.408854         37.3198         33.1701 
       0.424564         35.3372         30.4371 
       0.440253         32.1084         28.1483 
       0.455999         29.1358         26.1041 
       0.471626         27.4487         24.1983 
        0.48727         26.4116         22.4584 
       0.502856          24.597         20.9336 
       0.518488          22.799         19.5591 
       0.534347         21.3198         18.2717 
       0.550082         20.3927         17.0942 
       0.565732          19.477         16.0354 
       0.581496          18.192          15.065 
       0.597222         17.1438         14.1732 
       0.612804         16.1593         13.3545 
       0.628434         15.7747         12.5994 
       0.644267         14.8592         11.8963 
       0.660051         14.0275         11.2482 
       0.675724         13.2979         10.6516 
       0.691403         12.9218         10.0974 
       0.707174         12.2769         9.57907 
       0.722871         11.8634         9.09885 
        0.73838         11.1706         8.65634 
       0.754018         10.5303         8.23964 
       0.769845         10.2017         7.84559 
        0.78569         9.87851         7.47672 
       0.801365         9.42953         7.13499 
       0.817031         9.03814         6.81469 
       0.832809         8.68781         6.51189 
       0.848511          8.3904         6.22871 
       0.864097         8.07193         5.96418 
       0.879701         7.89073         5.71465 
       0.895507         7.56605         5.47636 
       0.911279         7.22451         5.25206 
        0.92691         7.03165         5.04207 
       0.942635         6.79257         4.84232 
       0.958396         6.55682          4.6529 
       0.974128         6.37235         4.47387 
       0.989692         6.04088         4.30596 
        1.00528         5.97082         4.14635 
        1.02113         5.74728         3.99228 
        1.03692         5.60242         3.84655 
        1.05264         5.42379         3.70871 
        1.06832         5.28178         3.57779 
        1.08405         5.12215          3.4528 
        1.09979         4.97109         3.33366 
        1.11537          4.8247         3.22128 
        1.13105         4.70416         3.11337 
        1.14679         4.58465         3.00995 
        1.16256         4.45233           2.911 
        1.17828         4.35638         2.81679 
        1.19395         4.22256         2.72703 
         1.2097         4.07946          2.6407 
        1.22537         3.98232          2.5585 
          1.241         3.86455         2.48001 
        1.25666         3.83536          2.4046 
        1.27241          3.7412         2.33195 
        1.28819         3.57734         2.26215 
        1.30392         3.52039         2.19539 
        1.31957         3.43222          2.1316 
        1.33529         3.35016         2.07009 
        1.35108         3.27722         2.01074 
        1.36674         3.17979         1.95413 
         1.3824         3.13862         1.89973 
        1.39811          3.0631         1.84721 
        1.41389          2.9774         1.79645 
        1.42964         2.92149         1.74767 
        1.44531         2.85531         1.70092 
        1.46101         2.82408         1.65578 
        1.47667         2.74964         1.61239 
        1.49229         2.65581         1.57065 
        1.50793         2.60634         1.53034 
        1.52367         2.54889         1.49117 
        1.53953         2.50099          1.4531 
        1.55526         2.48206         1.41664 
        1.57092         2.41325         1.38158 
        1.58662         2.37276         1.34761 
        1.60235         2.32457         1.31471 
        1.61809           2.277         1.28288 
        1.63369         2.22942         1.25238 
        1.64941         2.18354         1.22264 
        1.66519         2.15937         1.19376 
        1.68085         2.10771           1.166 
        1.69652          2.0719         1.13911 
        1.71228         2.04252         1.11291 
        1.72806         2.00287          1.0875 
        1.74368         1.96582         1.06314 
        1.75933         1.93172         1.03946 
        1.77505         1.89067         1.01639 
        1.79081         1.85943        0.993976 
         1.8065         1.83633        0.972325 
        1.82218         1.79494        0.951333 
        1.83797         1.75835        0.930811 
        1.85367         1.73345        0.911002 
        1.86928         1.70896        0.891883 
        1.88497         1.67216        0.873203 
        1.90073         1.65379        0.854985 
        1.91647         1.62202        0.837299 
        1.93218         1.59485        0.820145 
        1.94787         1.57738        0.803493 
        1.96363         1.55109        0.787233 
        1.97935         1.52538        0.771452 
        1.99499         1.50079        0.756189 
        2.01064         1.48068        0.741313 
         2.0264         1.45321         0.72674 
        2.04216         1.43187        0.712562 
        2.05781         1.41202        0.698849 
        2.07353         1.39548        0.685444 
        2.08928         1.37185        0.672358 
        2.10499         1.34197        0.659646 
        2.12065         1.33841        0.647297 
        2.13633         1.31394        0.635251 
        2.15211         1.28592         0.62343 
        2.16785         1.27393        0.611941 
        2.18349         1.25379         0.60081 
        2.19916         1.24213        0.589931 
        2.21489          1.2289        0.579282 
        2.23063         1.20352        0.568886 
         2.2463         1.18352         0.55879 
        2.26194         1.17138        0.548961 
        2.27765          1.1441        0.539316 
        2.29341         1.13433        0.529876 
        2.30914         1.12114        0.520679 
        2.32486         1.11302        0.511703 
        2.34061         1.09371        0.502922 
        2.35635         1.07939        0.494353 
        2.37203          1.0711        0.486011 
        2.38768         1.05463        0.477877 
        2.40339         1.03574        0.469898 
        2.41914         1.02602         0.46208 
        2.43483         1.01253        0.454467 
         2.4505        0.999506        0.447036 
        2.46622         0.98628        0.439744 
        2.48195        0.976743        0.432612 
        2.49759        0.962187        0.425675 
        2.51328        0.953202        0.418871 
        2.52906        0.941395        0.412171 
        2.54479        0.927205        0.405641 
        2.56049        0.918825        0.399264 
        2.57618        0.906874        0.393028 
        2.59189        0.897192        0.386914 
        2.60758        0.887348        0.380939 
        2.62325        0.874142        0.375096 
        2.63898        0.862931        0.369354 
        2.65468        0.850709        0.363743 
        2.67044        0.846564        0.358224 
        2.68618        0.837179         0.35283 
        2.70184        0.829845        0.347568 
        2.71755        0.818744        0.342399 
        2.73329        0.805897        0.337327 
        2.74897        0.799953        0.332372 
        2.76462        0.791837        0.327527 
        2.78034        0.784527        0.322758 
        2.79607        0.773349        0.318077 
        2.81179        0.765422        0.313494 
        2.82749        0.756487        0.309006 
        2.84321        0.748112        0.304599 
        2.85893        0.741181        0.300279 
        2.87462        0.735628        0.296049 
        2.89033        0.727783        0.291896 
        2.90605        0.719397        0.287818 
        2.92176        0.713374        0.283819 
        2.93747        0.704789        0.279897 
        2.95318        0.698178        0.276048 
        2.96891        0.693061        0.272269 
        2.98456        0.684843        0.268577 
        3.00023        0.676962        0.264947 
        3.01596        0.668498        0.261372 
        3.03164        0.664143        0.257873 
        3.04738        0.657959        0.254427 
         3.0631        0.651769        0.251044 
        3.07883        0.643943        0.247722 
        3.09456        0.638693         0.24446 
        3.11026        0.635089        0.241261 
        3.12596        0.626701        0.238119 
        3.14163        0.622779         0.23504 
        3.15734        0.614163        0.232008 
        3.17308         0.61129        0.229021 
        3.18879        0.605935        0.226094 
        3.20447        0.598936        0.223223 
         3.2202        0.595176        0.220391 
         3.2359        0.589265        0.217614 
        3.25157        0.582024         0.21489 
        3.26729        0.580058        0.212204 
        3.28304        0.574272        0.209558 
        3.29877        0.568195        0.206961 
        3.31446        0.565074        0.204413 
        3.33014        0.558185        0.201909 
        3.34585         0.55446        0.199443 
        3.36158        0.550302        0.197014 
        3.37727         0.54745        0.194633 
        3.39294        0.539628        0.192293 
        3.40867        0.537962        0.189982 
        3.42439        0.532193        0.187711 
        3.44008        0.529831         0.18548 
        3.45578        0.524117        0.183284 
        3.47153        0.519405        0.181118 
        3.48724        0.516534        0.178991 
        3.50292        0.510646        0.176902 
        3.51859        0.510189        0.174847 
        3.53431        0.503372        0.172818 
        3.55007        0.500783        0.170817 
        3.56577         0.49683        0.168854 
        3.58146        0.494138        0.166923 
        3.59719        0.489919        0.165017 
        3.61292        0.486264        0.163141 
        3.62859         0.48284        0.161301 
        3.64429        0.478299        0.159486 
        3.66003         0.47428        0.157693 
        3.67578        0.471722        0.155927 
        3.69146        0.469316        0.154195 
        3.70712        0.464885        0.152493 
        3.72284        0.461698        0.150809 
        3.73853        0.458007        0.149154 
        3.75422         0.45667        0.147522 
        3.76993        0.451973        0.145913 
        3.78564        0.448285        0.144329 
        3.80137        0.445422        0.142765 
        3.81707        0.441166        0.141228 
        3.83279        0.439606        0.139711 
        3.84853        0.436078        0.138215 
        3.86424        0.433129        0.136743 
        3.87992        0.431133        0.135294 
        3.89561        0.427874        0.133866 
        3.91134        0.424542        0.132455 
        3.92704        0.421769        0.131066 
        3.94273        0.419689        0.129699 
        3.95845        0.415306        0.128348 
        3.97418        0.412264        0.127015 
        3.98988        0.409877        0.125704 
        4.00554        0.407136        0.124414 
        4.02125        0.403287        0.123138 
        4.03698        0.400505        0.121879 
        4.05268        0.396807        0.120639 
        4.06839         0.39269        0.119416 
         4.0841        0.390473        0.118209 
        4.09983        0.388065        0.117018 
        4.11555        0.384424        0.115843 
        4.13124        0.380793        0.114688 
        4.14693        0.378848        0.113547 
        4.16266        0.375142        0.112418 
        4.17839        0.371372        0.111306 
        4.19408         0.36875        0.110211 
        4.20977        0.366993         0.10913 
        4.22551        0.363512        0.108061 
        4.24123        0.360782        0.107007 
        4.25691        0.358503         0.10597 
        4.27259        0.356004        0.104946 
        4.28831        0.354646        0.103934 
        4.30404        0.351605        0.102934 
        4.31974        0.349427        0.101949 
        4.33543        0.346461        0.100977 
        4.35116        0.344719        0.100015 
        4.36688        0.342023       0.0990667 
        4.38255        0.341015       0.0981337 
        4.39825        0.338926       0.0972105 
        4.41398        0.336619       0.0962972 
         4.4297        0.335582       0.0953965 
        4.44541        0.332748       0.0945074 
        4.46111        0.331497       0.0936301 
        4.47683        0.329679       0.0927633 
        4.49251        0.327748        0.091909 
        4.50819        0.326494       0.0910656 
         4.5239        0.324833       0.0902315 
        4.53962        0.322874       0.0894067 
        4.55535        0.321509       0.0885917 
        4.57106        0.319978       0.0877879 
        4.58678        0.319524       0.0869938 
         4.6025        0.318341       0.0862092 
        4.61821        0.317164       0.0854343 
        4.63391        0.316849       0.0846699 
         4.6496        0.314158        0.083915 
        4.66532         0.31379       0.0831681 
        4.68103        0.311977       0.0824305 
        4.69673        0.311645       0.0817024 
        4.71241        0.311119       0.0809837 
        4.72811        0.309903       0.0802725 
        4.74384        0.310295       0.0795687 
        4.75955        0.308162       0.0788744 
        4.77525        0.307341       0.0781887 
        4.79096        0.308319       0.0775102 
        4.80669        0.306746       0.0768393 
         4.8224        0.305459       0.0761771 
        4.83809         0.30602       0.0755232 
        4.85379         0.30438       0.0748766 
         4.8695        0.304519       0.0742369 
        4.88521        0.304208       0.0736049 
        4.90093        0.304121       0.0729801 
        4.91663        0.304004        0.072363 
        4.93234        0.302652       0.0717523 
        4.94807        0.302759       0.0711482 
        4.96377         0.30399       0.0705521 
        4.97943        0.303457        0.069964 
        4.99514        0.302564        0.069381 
        5.01086        0.303408       0.0688041 
        5.02654        0.303776       0.0682352 
        5.04227        0.303093        0.067671 
          5.058        0.303847       0.0671129 
        5.07371        0.304112        0.066562 
        5.08942        0.303956       0.0660172 
        5.10513        0.304407       0.0654784 
        5.12084        0.304184       0.0649453 
        5.13656        0.304925       0.0644181 
        5.15225        0.305598       0.0638976 
        5.16796        0.306648        0.063382 
        5.18369        0.306827       0.0628715 
         5.1994        0.307583       0.0623676 
        5.21509        0.308099       0.0618695 
        5.23079        0.308194       0.0613762 
        5.24649        0.309495       0.0608887 
        5.26217        0.309782       0.0604067 
        5.27788        0.310793       0.0599292 
        5.29359        0.312198       0.0594567 
        5.30933        0.312954       0.0589885 
        5.32504        0.312695       0.0585262 
        5.34073        0.314218       0.0580692 
        5.35646         0.31515       0.0576162 
        5.37218        0.316013       0.0571679 
        5.38789        0.317406       0.0567249 
        5.40357        0.317802       0.0562872 
        5.41929         0.32003        0.055853 
        5.43502        0.320757       0.0554234 
         5.4507        0.321069       0.0549992 
        5.46639        0.323137       0.0545793 
        5.48212        0.323521       0.0541629 
        5.49786        0.326446       0.0537502 
        5.51353        0.327822       0.0533438 
        5.52921        0.327947       0.0529411 
        5.54495        0.329212       0.0525414 
        5.56066        0.331926       0.0521462 
        5.57637        0.332917       0.0517551 
        5.59207         0.33467       0.0513683 
        5.60778        0.335882       0.0509853 
        5.62346         0.33813       0.0506066 
        5.63916         0.33858       0.0502314 
        5.65487        0.339962       0.0498598 
         5.6706        0.340428       0.0494914 
        5.68633         0.34456       0.0491266 
        5.70203        0.345915       0.0487662 
        5.71773        0.347961       0.0484094 
        5.73344        0.349027        0.048056 
        5.74916         0.35023       0.0477057 
        5.76486        0.351866       0.0473594 
        5.78054        0.354281        0.047017 
        5.79626         0.35581        0.046677 
          5.812        0.356955         0.04634 
         5.8277          0.3594       0.0460072 
        5.84339        0.362283       0.0456777 
        5.85911        0.363343       0.0453507 
        5.87484         0.36565        0.045027 
        5.89053        0.367374        0.044707 
        5.90623        0.369739         0.04439 
        5.92195        0.371405       0.0440754 
        5.93767        0.373483       0.0437641 
        5.95336        0.375951       0.0434562 
        5.96905        0.376716       0.0431514 
        5.98476        0.377669        0.042849 
        6.00048        0.380096       0.0425494 
        6.01617         0.38113       0.0422531 
        6.03185         0.38418       0.0419599 
        6.04756        0.385884       0.0416687 
        6.06331        0.387778       0.0413796 
        6.07903        0.390356       0.0410939 
        6.09473        0.390794       0.0408111 
        6.11044        0.394294       0.0405307 
        6.12616        0.396166       0.0402529 
        6.14186        0.398355        0.039978 
        6.15755        0.400404       0.0397057 
        6.17326        0.401385       0.0394356 
        6.18898        0.403769       0.0391679 
        6.20467        0.406031       0.0389032 
        6.22036        0.408392       0.0386408 
         6.2361        0.409439       0.0383802 
         6.2518        0.411027       0.0381224 
        6.26748        0.412368       0.0378674 
        6.28319        0.417055       0.0376141 
        6.29893        0.417199       0.0373629 
        6.31463        0.419276       0.0371143 
        6.33033        0.419544       0.0368681 
        6.34604        0.422552       0.0366239 
        6.36177        0.424233       0.0363817 
        6.37747         0.42846        0.036142 
