# k  (h/Mpc)    Pcb(k)  (Mpc/h)^3    Pcb_linear(k) (Mpc/h)^3   ShotnoiseSubtracted = true
      0.0200456         27974.2           28417 
      0.0350414         19069.9         18261.5 
      0.0492313         12266.4         12464.8 
      0.0637834         9653.59         10092.7 
      0.0800726         7269.65         7644.24 
       0.096163         5693.82         5273.19 
       0.111083         4565.27         4162.94 
       0.126058          3756.5         3679.96 
       0.142273         3232.16         3008.56 
       0.158546         2592.53         2302.31 
        0.17375            2317         1945.66 
       0.188953         2201.38         1759.99 
       0.204907         1866.09         1517.25 
       0.220756         1681.65         1255.93 
        0.23588         1493.42         1094.78 
         0.2514         1346.27         994.836 
       0.267535         1289.69          884.54 
       0.283568         1145.86         767.543 
       0.299022         1080.53         683.055 
       0.314451         1129.85         624.178 
       0.330372         992.471         566.353 
       0.346141         907.564         507.992 
       0.361624         867.635         460.094 
       0.377134         833.535         422.766 
       0.392932         782.584         388.566 
       0.408854         754.021         355.139 
       0.424564         734.908         325.878 
       0.440253          679.66         301.374 
       0.455999         645.845         279.487 
       0.471626         657.576         259.082 
        0.48727         615.178         240.454 
       0.502856          597.05         224.128 
       0.518488         571.061         209.412 
       0.534347         553.451         195.628 
       0.550082         525.828         183.021 
       0.565732         514.689         171.685 
       0.581496         502.191         161.295 
       0.597222         491.551         151.747 
       0.612804         477.193         142.981 
       0.628434         457.063         134.897 
       0.644267         443.315         127.369 
       0.660051         438.643         120.431 
       0.675724          427.11         114.043 
       0.691403         413.617         108.109 
       0.707174         401.298         102.559 
       0.722871         400.816         97.4179 
        0.73838           386.2         92.6801 
       0.754018         376.552         88.2187 
       0.769845         373.229         83.9998 
        0.78569         363.528         80.0504 
       0.801365         351.117         76.3916 
       0.817031         347.507         72.9623 
       0.832809         342.055         69.7204 
       0.848511         336.726         66.6884 
       0.864097         325.777         63.8562 
       0.879701         327.124         61.1846 
       0.895507         313.963         58.6333 
       0.911279         308.699         56.2318 
        0.92691         305.395         53.9835 
       0.942635         300.028         51.8449 
       0.958396          290.91         49.8168 
       0.974128         286.067         47.9001 
       0.989692          279.96         46.1023 
        1.00528         274.502         44.3934 
        1.02113         272.021         42.7438 
        1.03692         267.438         41.1835 
        1.05264         263.771         39.7077 
        1.06832         257.002          38.306 
        1.08405         255.903         36.9678 
        1.09979         249.765         35.6922 
        1.11537         244.566          34.489 
        1.13105         241.147         33.3337 
        1.14679         237.145         32.2264 
        1.16256         235.264          31.167 
        1.17828         231.716         30.1583 
        1.19395         226.049         29.1973 
         1.2097         224.115          28.273 
        1.22537         221.189         27.3928 
          1.241         214.955         26.5525 
        1.25666         213.605         25.7451 
        1.27241         210.813         24.9673 
        1.28819         206.081           24.22 
        1.30392         205.872         23.5052 
        1.31957         200.394         22.8222 
        1.33529         195.746         22.1637 
        1.35108         196.301         21.5283 
        1.36674          191.19         20.9221 
         1.3824         188.103         20.3397 
        1.39811         185.749         19.7773 
        1.41389         182.881         19.2339 
        1.42964         179.305         18.7116 
        1.44531         178.444         18.2112 
        1.46101         174.645         17.7278 
        1.47667         172.033         17.2632 
        1.49229         170.907         16.8164 
        1.50793         167.558         16.3848 
        1.52367         164.493         15.9654 
        1.53953         162.711         15.5577 
        1.55526          159.78         15.1675 
        1.57092         159.035         14.7921 
        1.58662         156.256         14.4284 
        1.60235         153.791         14.0761 
        1.61809         151.624         13.7353 
        1.63369         148.774         13.4088 
        1.64941         147.743         13.0904 
        1.66519          144.73         12.7811 
        1.68085         142.536         12.4839 
        1.69652         141.537          12.196 
        1.71228          139.54         11.9155 
        1.72806         137.858         11.6435 
        1.74368         135.604         11.3826 
        1.75933          134.29         11.1291 
        1.77505         132.477         10.8821 
        1.79081         130.356         10.6421 
         1.8065          129.09         10.4103 
        1.82218         126.075         10.1856 
        1.83797         125.089         9.96583 
        1.85367         123.469         9.75375 
        1.86928         121.739         9.54905 
        1.88497         121.456         9.34906 
        1.90073         119.488           9.154 
        1.91647         117.604         8.96464 
        1.93218         115.638         8.78098 
        1.94787         113.848         8.60269 
        1.96363         113.233          8.4286 
        1.97935         112.136         8.25964 
        1.99499         110.317         8.09623 
        2.01064         108.826         7.93696 
         2.0264         107.693         7.78093 
        2.04216         105.454         7.62913 
        2.05781         104.559         7.48231 
        2.07353         103.263         7.33879 
        2.08928         101.469         7.19868 
        2.10499         101.219         7.06257 
        2.12065         99.6972         6.93036 
        2.13633         98.3594         6.80139 
        2.15211         96.8563         6.67483 
        2.16785         95.8236         6.55182 
        2.18349         94.5145         6.43265 
        2.19916         94.1458         6.31616 
        2.21489         91.9843         6.20215 
        2.23063          90.746         6.09085 
         2.2463         89.8816         5.98275 
        2.26194         88.8498         5.87752 
        2.27765         87.8927         5.77426 
        2.29341          86.536         5.67318 
        2.30914         85.6553         5.57471 
        2.32486         84.9425         5.47861 
        2.34061         83.5315         5.38459 
        2.35635         82.7813         5.29285 
        2.37203         81.4769         5.20353 
        2.38768         80.2908         5.11644 
        2.40339         79.5762         5.03101 
        2.41914         78.5482         4.94732 
        2.43483         77.7005          4.8658 
         2.4505         76.8106         4.78624 
        2.46622         75.8974         4.70817 
        2.48195         74.8673         4.63181 
        2.49759         73.8503         4.55754 
        2.51328         73.3539         4.48469 
        2.52906         72.4722         4.41296 
        2.54479         71.5378         4.34305 
        2.56049         70.4827         4.27477 
        2.57618         69.7898           4.208 
        2.59189         68.8396         4.14255 
        2.60758         67.7344         4.07857 
        2.62325         67.0707         4.01601 
        2.63898         66.5799         3.95454 
        2.65468         65.7894         3.89446 
        2.67044         64.9775         3.83537 
        2.68618         64.0052         3.77762 
        2.70184         63.4844         3.72128 
        2.71755         62.7795         3.66594 
        2.73329         61.9482         3.61163 
        2.74897         61.4414         3.55858 
        2.76462         60.6601         3.50671 
        2.78034         59.8747         3.45565 
        2.79607         59.3383         3.40553 
        2.81179         58.6002         3.35646 
        2.82749          58.162         3.30841 
        2.84321         57.1339         3.26123 
        2.85893         56.7217         3.21497 
        2.87462         56.2004         3.16968 
        2.89033         55.1954         3.12521 
        2.90605         54.7752         3.08155 
        2.92176         54.1973         3.03874 
        2.93747         53.6294         2.99676 
        2.95318         53.1146         2.95555 
        2.96891         52.5805         2.91508 
        2.98456         51.8211         2.87555 
        3.00023         51.3446         2.83669 
        3.01596         50.9411         2.79841 
        3.03164         50.2837         2.76095 
        3.04738         49.7922         2.72405 
         3.0631         49.1167         2.68783 
        3.07883         48.6256         2.65227 
        3.09456          48.025         2.61734 
        3.11026         47.8905         2.58309 
        3.12596         47.0776         2.54945 
        3.14163         46.7403         2.51649 
        3.15734          45.991         2.48402 
        3.17308          45.586         2.45204 
        3.18879         45.0623         2.42071 
        3.20447         44.7379         2.38996 
         3.2202         44.1502         2.35965 
         3.2359         43.6563         2.32991 
        3.25157         43.4296         2.30074 
        3.26729         42.9865         2.27199 
        3.28304         42.4838         2.24366 
        3.29877         42.0329         2.21585 
        3.31446         41.4879         2.18857 
        3.33014         41.1069         2.16176 
        3.34585         40.5852         2.13536 
        3.36158         40.4198         2.10936 
        3.37727         39.9201         2.08386 
        3.39294         39.4436         2.05881 
        3.40867         39.0167         2.03407 
        3.42439         38.6672         2.00975 
        3.44008         38.3925         1.98587 
        3.45578         37.8229         1.96235 
        3.47153         37.4948         1.93916 
        3.48724         37.0859         1.91638 
        3.50292         36.8573         1.89402 
        3.51859         36.4732         1.87202 
        3.53431         35.9554          1.8503 
        3.55007         35.6988         1.82887 
        3.56577          35.383         1.80785 
        3.58146         34.9639         1.78718 
        3.59719          34.663         1.76677 
        3.61292         34.2977         1.74669 
        3.62859         34.0242         1.72699 
        3.64429         33.7201         1.70755 
        3.66003          33.289         1.68836 
        3.67578         33.0355         1.66946 
        3.69146          32.676         1.65091 
        3.70712         32.4003         1.63268 
        3.72284         32.1975         1.61466 
        3.73853         31.8084         1.59693 
        3.75422         31.4246         1.57946 
        3.76993         31.2481         1.56224 
        3.78564         30.8954         1.54528 
        3.80137         30.6233         1.52853 
        3.81707         30.2759         1.51207 
        3.83279         29.9742         1.49584 
        3.84853         29.7108         1.47981 
        3.86424         29.4583         1.46405 
        3.87992         29.1613         1.44854 
        3.89561         28.8579         1.43325 
        3.91134         28.7067         1.41815 
        3.92704         28.3944         1.40328 
        3.94273         28.2283         1.38863 
        3.95845         27.8957         1.37417 
        3.97418         27.6484         1.35991 
        3.98988         27.3804         1.34586 
        4.00554         27.0895         1.33205 
        4.02125         26.8732          1.3184 
        4.03698         26.6121         1.30491 
        4.05268          26.347         1.29164 
        4.06839         26.1342         1.27854 
         4.0841         25.8367         1.26562 
        4.09983          25.661         1.25287 
        4.11555         25.4353         1.24029 
        4.13124         25.1508         1.22792 
        4.14693         24.9773          1.2157 
        4.16266         24.7668         1.20362 
        4.17839         24.4959         1.19171 
        4.19408         24.3043         1.17999 
        4.20977          24.104         1.16842 
        4.22551          23.856         1.15697 
        4.24123         23.6096         1.14569 
        4.25691         23.4556         1.13458 
        4.27259         23.2474         1.12362 
        4.28831         23.0803         1.11278 
        4.30404         22.7929         1.10207 
        4.31974         22.6331         1.09153 
        4.33543          22.463         1.08112 
        4.35116         22.3214         1.07083 
        4.36688          22.007         1.06067 
        4.38255         21.8479         1.05068 
        4.39825         21.6833          1.0408 
        4.41398         21.5742         1.03102 
         4.4297         21.3631         1.02137 
        4.44541         21.1637         1.01185 
        4.46111         20.9065         1.00246 
        4.47683         20.8241        0.993181 
        4.49251         20.6222        0.984035 
        4.50819         20.4465        0.975005 
         4.5239          20.243        0.966075 
        4.53962         20.1006        0.957243 
        4.55535         19.9815        0.948517 
        4.57106          19.788        0.939911 
        4.58678         19.5673        0.931409 
         4.6025         19.4088        0.923009 
        4.61821         19.2986        0.914713 
        4.63391         19.1367        0.906528 
         4.6496         18.9772        0.898446 
        4.66532         18.8116        0.890449 
        4.68103         18.5978        0.882552 
        4.69673         18.5127        0.874756 
        4.71241         18.3382        0.867062 
        4.72811         18.2126        0.859447 
        4.74384         18.0966        0.851912 
        4.75955         17.8827        0.844478 
        4.77525         17.7628        0.837136 
        4.79096         17.6133        0.829872 
        4.80669         17.4643        0.822689 
         4.8224         17.3356        0.815599 
        4.83809         17.1966        0.808598 
        4.85379         17.0824        0.801675 
         4.8695         16.8979        0.794826 
        4.88521         16.7993         0.78806 
        4.90093         16.6346         0.78137 
        4.91663         16.5231        0.774763 
        4.93234         16.3908        0.768225 
        4.94807         16.2661        0.761757 
        4.96377         16.0866        0.755374 
        4.97943         15.9834        0.749078 
        4.99514         15.9178        0.742836 
        5.01086         15.7737         0.73666 
        5.02654         15.6283        0.730569 
        5.04227         15.4679        0.724528 
          5.058         15.3923        0.718552 
        5.07371          15.227        0.712654 
        5.08942         15.1417        0.706821 
        5.10513         15.0358        0.701053 
        5.12084         14.9041        0.695344 
        5.13656         14.7962          0.6897 
        5.15225         14.6872        0.684128 
        5.16796         14.5883        0.678607 
        5.18369         14.4694        0.673142 
         5.1994         14.3281        0.667746 
        5.21509         14.2412        0.662413 
        5.23079         14.1512        0.657132 
        5.24649         14.0164        0.651912 
        5.26217          13.912        0.646751 
        5.27788         13.7972        0.641639 
        5.29359         13.7195         0.63658 
        5.30933         13.6157        0.631568 
        5.32504         13.4831        0.626618 
        5.34073         13.3842        0.621725 
        5.35646          13.281        0.616875 
        5.37218         13.1801        0.612074 
        5.38789         13.0911        0.607332 
        5.40357         13.0126        0.602646 
        5.41929         12.9194        0.597997 
        5.43502         12.7799        0.593397 
         5.4507         12.7174        0.588855 
        5.46639         12.6318         0.58436 
        5.48212          12.502        0.579901 
        5.49786         12.4288        0.575483 
        5.51353         12.3293        0.571131 
        5.52921         12.2769         0.56682 
        5.54495         12.1801        0.562541 
        5.56066         12.0593         0.55831 
        5.57637         12.0171        0.554122 
        5.59207         11.8889        0.549981 
        5.60778         11.7992         0.54588 
        5.62346         11.7325        0.541826 
        5.63916         11.6584        0.537809 
        5.65487         11.5752         0.53383 
         5.6706         11.4646        0.529886 
        5.68633          11.403         0.52598 
        5.70203         11.3406        0.522121 
        5.71773         11.2418        0.518301 
        5.73344         11.1554        0.514517 
        5.74916         11.0776        0.510767 
        5.76486          10.987        0.507059 
        5.78054         10.9083        0.503393 
        5.79626         10.8443        0.499753 
          5.812         10.7621        0.496144 
         5.8277         10.6973        0.492582 
        5.84339         10.6303        0.489054 
        5.85911         10.5469        0.485553 
        5.87484         10.4522        0.482087 
        5.89053         10.3777        0.478661 
        5.90623         10.2974        0.475267 
        5.92195         10.2462        0.471899 
        5.93767         10.1855        0.468565 
        5.95336         10.1097        0.465269 
        5.96905         10.0256        0.462005 
        5.98476         9.95381        0.458768 
        6.00048         9.87066         0.45556 
        6.01617         9.82952        0.452387 
        6.03185         9.75383        0.449248 
        6.04756         9.67939        0.446131 
        6.06331         9.61459        0.443036 
        6.07903         9.55113        0.439977 
        6.09473         9.49411        0.436949 
        6.11044          9.4232        0.433947 
        6.12616         9.37712        0.430973 
        6.14186         9.30731         0.42803 
        6.15755         9.23822        0.425114 
        6.17326         9.16893        0.422222 
        6.18898         9.10284        0.419356 
        6.20467         9.05793        0.416521 
        6.22036         8.98608        0.413713 
         6.2361           8.941        0.410922 
         6.2518         8.87666        0.408162 
        6.26748         8.81642        0.405432 
        6.28319         8.74699         0.40272 
        6.29893         8.69522         0.40003 
        6.31463         8.63231        0.397369 
        6.33033         8.57854        0.394733 
        6.34604         8.51179        0.392118 
        6.36177         8.44855        0.389524 
        6.37747         8.40682        0.386959 
