# k  (h/Mpc)    Pcb(k)  (Mpc/h)^3    Pcb_linear(k) (Mpc/h)^3   ShotnoiseSubtracted = true
      0.0200456         1827.39         1849.22 
      0.0350414          1184.2         1188.36 
      0.0492313         814.825         811.142 
      0.0637834         663.851         656.774 
      0.0800726         503.466         497.445 
       0.096163         342.704          343.15 
       0.111083         269.214         270.901 
       0.126058             241         239.471 
       0.142273         199.304          195.78 
       0.158546         154.076         149.822 
        0.17375         127.119         126.613 
       0.188953         116.842          114.53 
       0.204907         104.264         98.7345 
       0.220756         85.2327         81.7287 
        0.23588         74.1099         71.2421 
         0.2514         66.3264         64.7384 
       0.267535         59.8661          57.561 
       0.283568         52.5202         49.9474 
       0.299022         47.3043         44.4494 
       0.314451         42.1973          40.618 
       0.330372         38.8302         36.8551 
       0.346141         34.8513         33.0573 
       0.361624         31.9572         29.9404 
       0.377134         29.7866         27.5113 
       0.392932         26.3176         25.2857 
       0.408854         25.0365         23.1105 
       0.424564         23.1372         21.2063 
       0.440253         21.2731         19.6117 
       0.455999         19.8781         18.1874 
       0.471626         18.5851         16.8596 
        0.48727         17.3732         15.6474 
       0.502856         16.1526          14.585 
       0.518488         15.3285         13.6274 
       0.534347         14.6025         12.7304 
       0.550082         13.2451           11.91 
       0.565732         12.2135         11.1723 
       0.581496         11.9062         10.4962 
       0.597222          11.383         9.87485 
       0.612804         10.5581         9.30444 
       0.628434         10.1324         8.77835 
       0.644267         9.69243         8.28846 
       0.660051         9.09761         7.83695 
       0.675724          8.6013         7.42127 
       0.691403         8.28666         7.03511 
       0.707174         7.85931           6.674 
       0.722871         7.51193         6.33942 
        0.73838         7.16566         6.03111 
       0.754018         6.92082         5.74078 
       0.769845         6.56051         5.46624 
        0.78569         6.32051         5.20924 
       0.801365         6.02786         4.97114 
       0.817031         5.80033         4.74798 
       0.832809         5.61697         4.53701 
       0.848511         5.27276         4.33971 
       0.864097         5.09141         4.15541 
       0.879701         4.91447         3.98156 
       0.895507         4.66387         3.81553 
       0.911279         4.59199         3.65925 
        0.92691          4.4121         3.51295 
       0.942635          4.2045         3.37378 
       0.958396         4.05871          3.2418 
       0.974128         3.93415         3.11707 
       0.989692         3.84856         3.00008 
        1.00528         3.67755         2.88888 
        1.02113         3.53419         2.78153 
        1.03692         3.44499            2.68 
        1.05264         3.33215         2.58396 
        1.06832         3.24072         2.49274 
        1.08405          3.0917         2.40566 
        1.09979         3.02201         2.32265 
        1.11537         2.94187         2.24435 
        1.13105         2.84859         2.16917 
        1.14679         2.77176         2.09712 
        1.16256         2.67386         2.02817 
        1.17828         2.61388         1.96253 
        1.19395         2.52968             1.9 
         1.2097         2.43634         1.83985 
        1.22537         2.36804         1.78257 
          1.241         2.31722         1.72789 
        1.25666         2.28986         1.67535 
        1.27241         2.18563         1.62473 
        1.28819         2.13878          1.5761 
        1.30392         2.09357         1.52959 
        1.31957         2.04145         1.48514 
        1.33529         1.97781         1.44229 
        1.35108         1.92944         1.40094 
        1.36674         1.88371          1.3615 
         1.3824         1.81566         1.32359 
        1.39811         1.77822           1.287 
        1.41389         1.74865         1.25164 
        1.42964         1.70577         1.21765 
        1.44531         1.66416         1.18508 
        1.46101         1.62163         1.15362 
        1.47667         1.57284         1.12339 
        1.49229         1.55638         1.09432 
        1.50793          1.5101         1.06623 
        1.52367         1.48483         1.03894 
        1.53953         1.43707         1.01241 
        1.55526         1.40945        0.987015 
        1.57092         1.37979        0.962586 
        1.58662          1.3503         0.93892 
        1.60235         1.31852        0.915996 
        1.61809         1.29113         0.89382 
        1.63369         1.27235        0.872568 
        1.64941         1.23789        0.851849 
        1.66519         1.21547        0.831723 
        1.68085         1.18219        0.812384 
        1.69652         1.15976        0.793649 
        1.71228         1.14215        0.775393 
        1.72806         1.11217        0.757692 
        1.74368         1.09137        0.740716 
        1.75933         1.06888        0.724222 
        1.77505         1.05264        0.708149 
        1.79081         1.03032         0.69253 
         1.8065         1.00618        0.677446 
        1.82218        0.993681        0.662819 
        1.83797        0.977935        0.648521 
        1.85367        0.958752         0.63472 
        1.86928        0.943467        0.621399 
        1.88497        0.919371        0.608385 
        1.90073        0.899432        0.595692 
        1.91647        0.887433        0.583369 
        1.93218        0.876136        0.571417 
        1.94787        0.855959        0.559815 
        1.96363        0.836944        0.548487 
        1.97935        0.823202        0.537492 
        1.99499        0.806504        0.526858 
        2.01064        0.794681        0.516493 
         2.0264         0.78623         0.50634 
        2.04216        0.768976        0.496462 
        2.05781        0.752837        0.486907 
        2.07353        0.744548        0.477567 
        2.08928        0.730405         0.46845 
        2.10499        0.716906        0.459593 
        2.12065        0.710416        0.450989 
        2.13633        0.696779        0.442596 
        2.15211        0.684247        0.434361 
        2.16785        0.670043        0.426356 
        2.18349        0.662758        0.418601 
        2.19916        0.649827        0.411021 
        2.21489        0.638758        0.403602 
        2.23063        0.628009        0.396359 
         2.2463        0.621391        0.389324 
        2.26194        0.607784        0.382476 
        2.27765        0.598438        0.375756 
        2.29341         0.59195        0.369179 
        2.30914        0.582979        0.362771 
        2.32486        0.576812        0.356518 
        2.34061        0.565565        0.350399 
        2.35635        0.555159        0.344429 
        2.37203        0.548542        0.338617 
        2.38768        0.541525         0.33295 
        2.40339        0.533595         0.32739 
        2.41914        0.526815        0.321944 
        2.43483        0.518034        0.316639 
         2.4505        0.509028        0.311462 
        2.46622        0.501415        0.306381 
        2.48195        0.496594        0.301413 
        2.49759        0.489664         0.29658 
        2.51328        0.480418        0.291839 
        2.52906         0.47327        0.287171 
        2.54479        0.468701        0.282621 
        2.56049        0.461524        0.278178 
        2.57618        0.456018        0.273833 
        2.59189         0.44915        0.269574 
        2.60758        0.443215        0.265411 
        2.62325        0.437921         0.26134 
        2.63898        0.431965        0.257339 
        2.65468        0.426295         0.25343 
        2.67044         0.42045        0.249584 
        2.68618        0.413645        0.245827 
        2.70184        0.408165         0.24216 
        2.71755        0.402584        0.238559 
        2.73329         0.39908        0.235025 
        2.74897        0.393347        0.231573 
        2.76462        0.388528        0.228197 
        2.78034        0.384076        0.224874 
        2.79607        0.378036        0.221613 
        2.81179        0.373872         0.21842 
        2.82749        0.369447        0.215293 
        2.84321        0.365473        0.212222 
        2.85893         0.36071        0.209212 
        2.87462        0.357256        0.206265 
        2.89033        0.350801        0.203372 
        2.90605        0.347264         0.20053 
        2.92176        0.343478        0.197744 
        2.93747        0.338954        0.195012 
        2.95318        0.336064        0.192331 
        2.96891        0.331618        0.189698 
        2.98456        0.328708        0.187125 
        3.00023        0.324266        0.184596 
        3.01596        0.320511        0.182105 
        3.03164        0.317943        0.179667 
        3.04738        0.312649        0.177266 
         3.0631        0.309654        0.174909 
        3.07883        0.305963        0.172595 
        3.09456        0.302502        0.170322 
        3.11026        0.298914        0.168093 
        3.12596         0.29534        0.165904 
        3.14163        0.292863        0.163759 
        3.15734        0.289943        0.161646 
        3.17308        0.286196        0.159565 
        3.18879        0.282559        0.157526 
        3.20447        0.280791        0.155525 
         3.2202        0.277463        0.153553 
         3.2359        0.274606        0.151617 
        3.25157        0.271598         0.14972 
        3.26729        0.269214        0.147848 
        3.28304        0.266589        0.146005 
        3.29877        0.263043        0.144195 
        3.31446        0.261169         0.14242 
        3.33014         0.25904        0.140676 
        3.34585         0.25682        0.138957 
        3.36158         0.25342        0.137265 
        3.37727         0.25165        0.135606 
        3.39294        0.248847        0.133976 
        3.40867         0.24625        0.132366 
        3.42439        0.244543        0.130783 
        3.44008        0.241788        0.129229 
        3.45578        0.240588        0.127699 
        3.47153        0.238392         0.12619 
        3.48724        0.236302        0.124708 
        3.50292        0.234291        0.123252 
        3.51859          0.2318        0.121821 
        3.53431        0.229799        0.120407 
        3.55007        0.228796        0.119013 
        3.56577        0.225631        0.117645 
        3.58146        0.224097          0.1163 
        3.59719        0.222398        0.114972 
        3.61292        0.220107        0.113665 
        3.62859        0.217993        0.112383 
        3.64429        0.216266        0.111118 
        3.66003        0.214703        0.109869 
        3.67578        0.212739        0.108639 
        3.69146        0.211202        0.107432 
        3.70712         0.20952        0.106246 
        3.72284        0.207781        0.105073 
        3.73853        0.206325        0.103919 
        3.75422        0.204379        0.102783 
        3.76993        0.203287        0.101662 
        3.78564        0.201245        0.100558 
        3.80137        0.199003       0.0994685 
        3.81707        0.199138       0.0983973 
        3.83279         0.19688       0.0973408 
        3.84853        0.195044        0.096298 
        3.86424        0.193543       0.0952723 
        3.87992        0.191838       0.0942629 
        3.89561        0.190908        0.093268 
        3.91134        0.189453       0.0922852 
        3.92704        0.187368       0.0913175 
        3.94273        0.186277       0.0903646 
        3.95845        0.184629       0.0894233 
        3.97418        0.182898       0.0884952 
        3.98988        0.181649       0.0875813 
        4.00554         0.17989       0.0866826 
        4.02125        0.178424       0.0857939 
        4.03698        0.176388       0.0849161 
        4.05268        0.174923       0.0840525 
        4.06839        0.172989       0.0832001 
         4.0841        0.171408       0.0823597 
        4.09983        0.169361       0.0815296 
        4.11555        0.167405       0.0807111 
        4.13124         0.16584        0.079906 
        4.14693        0.164272       0.0791111 
        4.16266        0.162392        0.078325 
        4.17839         0.16134         0.07755 
        4.19408        0.160099       0.0767871 
        4.20977        0.158179        0.076034 
        4.22551        0.157223       0.0752891 
        4.24123         0.15574       0.0745549 
        4.25691         0.15432       0.0738324 
        4.27259        0.153258        0.073119 
        4.28831        0.151819       0.0724136 
        4.30404        0.150621       0.0717167 
        4.31974        0.150009       0.0710304 
        4.33543        0.148391       0.0703534 
        4.35116        0.148109       0.0696835 
        4.36688        0.146368       0.0690225 
        4.38255        0.145448       0.0683724 
        4.39825        0.144854       0.0677292 
        4.41398        0.143431       0.0670929 
         4.4297        0.142691       0.0664654 
        4.44541        0.141895       0.0658459 
        4.46111        0.141483       0.0652347 
        4.47683         0.14061       0.0646307 
        4.49251        0.139637       0.0640355 
        4.50819        0.138951       0.0634479 
         4.5239        0.138736       0.0628668 
        4.53962        0.137964       0.0622921 
        4.55535        0.137594       0.0617242 
        4.57106        0.136943       0.0611642 
        4.58678        0.136406       0.0606109 
         4.6025        0.135769       0.0600643 
        4.61821        0.135403       0.0595244 
        4.63391        0.135181       0.0589918 
         4.6496        0.134794       0.0584659 
        4.66532        0.134322       0.0579455 
        4.68103        0.134447       0.0574316 
        4.69673        0.133877       0.0569243 
        4.71241        0.133576       0.0564236 
        4.72811        0.133634        0.055928 
        4.74384        0.133052       0.0554377 
        4.75955         0.13338        0.054954 
        4.77525        0.133054       0.0544762 
        4.79096        0.133415       0.0540035 
        4.80669        0.133075        0.053536 
         4.8224         0.13307       0.0530746 
        4.83809        0.133073       0.0526191 
        4.85379        0.133525       0.0521686 
         4.8695        0.133538       0.0517229 
        4.88521         0.13366       0.0512826 
        4.90093        0.133959       0.0508472 
        4.91663        0.134174       0.0504173 
        4.93234        0.134347       0.0499918 
        4.94807        0.134547       0.0495709 
        4.96377        0.135073       0.0491556 
        4.97943        0.136004       0.0487458 
        4.99514        0.136274       0.0483396 
        5.01086        0.136507       0.0479377 
        5.02654        0.137256       0.0475414 
        5.04227        0.137646       0.0471483 
          5.058        0.138397       0.0467594 
        5.07371        0.138708       0.0463756 
        5.08942        0.139659        0.045996 
        5.10513        0.140212       0.0456206 
        5.12084        0.140934       0.0452491 
        5.13656        0.141962       0.0448819 
        5.15225        0.142497       0.0445192 
        5.16796        0.143828         0.04416 
        5.18369        0.144729       0.0438043 
         5.1994         0.14586       0.0434532 
        5.21509         0.14645       0.0431062 
        5.23079        0.147596       0.0427625 
        5.24649        0.148818       0.0424228 
        5.26217         0.14928        0.042087 
        5.27788        0.150175       0.0417543 
        5.29359        0.152137       0.0414251 
        5.30933        0.153487       0.0410989 
        5.32504        0.154407       0.0407768 
        5.34073        0.155885       0.0404584 
        5.35646        0.157143       0.0401428 
        5.37218        0.158744       0.0398304 
        5.38789        0.160039       0.0395218 
        5.40357        0.161414       0.0392168 
        5.41929        0.162946       0.0389143 
        5.43502        0.164162        0.038615 
         5.4507        0.165916       0.0383194 
        5.46639        0.167825       0.0380269 
        5.48212        0.170036       0.0377367 
        5.49786        0.171081       0.0374492 
        5.51353        0.173359       0.0371661 
        5.52921        0.175126       0.0368855 
        5.54495        0.176938        0.036607 
        5.56066        0.179514       0.0363317 
        5.57637        0.180778       0.0360592 
        5.59207        0.183316       0.0357897 
        5.60778        0.184544       0.0355228 
        5.62346        0.188099        0.035259 
        5.63916        0.189302       0.0349976 
        5.65487        0.191441       0.0347387 
         5.6706        0.194041        0.034482 
        5.68633        0.196826       0.0342279 
        5.70203        0.199054       0.0339768 
        5.71773        0.200901       0.0337282 
        5.73344        0.202885       0.0334819 
        5.74916        0.206205       0.0332379 
        5.76486        0.207788       0.0329966 
        5.78054         0.21182        0.032758 
        5.79626        0.212448       0.0325211 
          5.812         0.21484       0.0322863 
         5.8277        0.218137       0.0320545 
        5.84339        0.221714       0.0318249 
        5.85911        0.223708       0.0315971 
        5.87484        0.225679       0.0313715 
        5.89053         0.23028       0.0311486 
        5.90623        0.232118       0.0309277 
        5.92195        0.234753       0.0307086 
        5.93767        0.238759       0.0304916 
        5.95336        0.240117       0.0302771 
        5.96905        0.243195       0.0300647 
        5.98476         0.24628       0.0298541 
        6.00048        0.250809       0.0296453 
        6.01617         0.25253       0.0294389 
        6.03185        0.255364       0.0292346 
        6.04756        0.257941       0.0290317 
        6.06331        0.261884       0.0288303 
        6.07903        0.265098       0.0286313 
        6.09473        0.267264       0.0284342 
        6.11044        0.271829       0.0282389 
        6.12616        0.274232       0.0280453 
        6.14186        0.277034       0.0278538 
        6.15755        0.280658        0.027664 
        6.17326        0.284435       0.0274759 
        6.18898        0.286969       0.0272894 
        6.20467        0.291184       0.0271049 
        6.22036        0.293109       0.0269221 
         6.2361        0.296663       0.0267405 
         6.2518        0.298778       0.0265609 
        6.26748        0.301786       0.0263833 
        6.28319        0.306495       0.0262068 
        6.29893        0.311066       0.0260317 
        6.31463        0.312473       0.0258586 
        6.33033        0.315479        0.025687 
        6.34604        0.319113       0.0255169 
        6.36177        0.322251       0.0253481 
        6.37747        0.325908       0.0251811 
