# k  (h/Mpc)    Pcb(k)  (Mpc/h)^3    Pcb_linear(k) (Mpc/h)^3   ShotnoiseSubtracted = true
      0.0200456         1482.65         1500.15 
      0.0350414         961.841         964.034 
      0.0492313         661.148         658.023 
      0.0637834         537.914         532.795 
      0.0800726         407.894         403.542 
       0.096163          278.18         278.374 
       0.111083         218.547         219.763 
       0.126058         195.253         194.266 
       0.142273         161.263         158.823 
       0.158546         124.489          121.54 
        0.17375         102.948         102.712 
       0.188953         94.3624         92.9104 
       0.204907         83.9438         80.0964 
       0.220756         68.6539         66.3008 
        0.23588         59.6962         57.7938 
         0.2514         53.5115         52.5178 
       0.267535         48.1701         46.6952 
       0.283568          42.191         40.5189 
       0.299022         37.9371         36.0587 
       0.314451         33.8665         32.9506 
       0.330372         31.1323          29.898 
       0.346141         27.9541         26.8171 
       0.361624          25.577         24.2885 
       0.377134         23.8029          22.318 
       0.392932         21.0675         20.5125 
       0.408854         19.9942          18.748 
       0.424564         18.4116         17.2032 
       0.440253         16.9432         15.9096 
       0.455999         15.8309         14.7542 
       0.471626         14.8009          13.677 
        0.48727         13.7879         12.6937 
       0.502856         12.8031         11.8318 
       0.518488         12.1501          11.055 
       0.534347         11.5548         10.3273 
       0.550082         10.4894         9.66175 
       0.565732         9.66086         9.06332 
       0.581496         9.40594         8.51481 
       0.597222         8.97268         8.01078 
       0.612804         8.32769         7.54805 
       0.628434         7.99015         7.12127 
       0.644267          7.6094         6.72385 
       0.660051         7.13924         6.35758 
       0.675724         6.75594         6.02037 
       0.691403         6.50079          5.7071 
       0.707174         6.15032         5.41415 
       0.722871         5.86942         5.14273 
        0.73838           5.601         4.89262 
       0.754018         5.41134          4.6571 
       0.769845         5.11416         4.43438 
        0.78569         4.92273         4.22589 
       0.801365         4.68979         4.03274 
       0.817031         4.50966         3.85171 
       0.832809         4.35095         3.68056 
       0.848511         4.09331         3.52051 
       0.864097          3.9377           3.371 
       0.879701         3.79786         3.22996 
       0.895507         3.60905         3.09528 
       0.911279         3.55054          2.9685 
        0.92691         3.40505         2.84981 
       0.942635         3.24606         2.73691 
       0.958396         3.12598         2.62985 
       0.974128         3.02762         2.52866 
       0.989692         2.95579         2.43376 
        1.00528         2.81781         2.34355 
        1.02113         2.70998         2.25646 
        1.03692         2.64479          2.1741 
        1.05264         2.54912         2.09619 
        1.06832         2.48025         2.02219 
        1.08405         2.35887         1.95154 
        1.09979         2.30712         1.88421 
        1.11537         2.23944         1.82069 
        1.13105         2.17144          1.7597 
        1.14679         2.10895         1.70125 
        1.16256         2.03172         1.64532 
        1.17828         1.98192         1.59207 
        1.19395          1.9224         1.54134 
         1.2097         1.84149         1.49254 
        1.22537         1.79312         1.44608 
          1.241         1.75269         1.40172 
        1.25666         1.73247          1.3591 
        1.27241         1.64683         1.31803 
        1.28819          1.6127         1.27858 
        1.30392         1.57676         1.24085 
        1.31957         1.53674         1.20479 
        1.33529         1.48522         1.17003 
        1.35108         1.44902         1.13649 
        1.36674         1.40607         1.10449 
         1.3824         1.36331         1.07374 
        1.39811         1.33078         1.04405 
        1.41389         1.30758         1.01537 
        1.42964         1.27447        0.987795 
        1.44531         1.24133        0.961374 
        1.46101         1.20988        0.935855 
        1.47667         1.16935        0.911331 
        1.49229         1.15766        0.887744 
        1.50793         1.12311        0.864958 
        1.52367         1.10171        0.842819 
        1.53953          1.0655          0.8213 
        1.55526         1.04385        0.800697 
        1.57092         1.02068         0.78088 
        1.58662         1.00048         0.76168 
        1.60235        0.973267        0.743084 
        1.61809        0.951395        0.725094 
        1.63369        0.940247        0.707854 
        1.64941        0.911398        0.691046 
        1.66519        0.894167        0.674719 
        1.68085        0.868019        0.659031 
        1.69652        0.851789        0.643832 
        1.71228        0.838486        0.629023 
        1.72806        0.814086        0.614663 
        1.74368        0.800802        0.600892 
        1.75933         0.78161        0.587511 
        1.77505        0.768751        0.574472 
        1.79081        0.752892        0.561802 
         1.8065        0.732614        0.549565 
        1.82218        0.723223          0.5377 
        1.83797        0.710157          0.5261 
        1.85367        0.699148        0.514904 
        1.86928        0.685437        0.504098 
        1.88497        0.666389         0.49354 
        1.90073          0.6509        0.483243 
        1.91647        0.644584        0.473247 
        1.93218        0.632895        0.463551 
        1.94787        0.617313         0.45414 
        1.96363        0.604049        0.444949 
        1.97935        0.593978         0.43603 
        1.99499        0.582147        0.427403 
        2.01064        0.571519        0.418995 
         2.0264        0.564656        0.410758 
        2.04216        0.552091        0.402745 
        2.05781        0.540399        0.394994 
        2.07353        0.532968        0.387417 
        2.08928        0.521591        0.380021 
        2.10499         0.51294        0.372836 
        2.12065        0.507259        0.365856 
        2.13633        0.497907        0.359048 
        2.15211        0.487946        0.352367 
        2.16785        0.476677        0.345873 
        2.18349        0.471632        0.339582 
        2.19916        0.462627        0.333433 
        2.21489         0.45363        0.327414 
        2.23063        0.445477        0.321538 
         2.2463        0.441482        0.315832 
        2.26194        0.429789        0.310277 
        2.27765        0.422849        0.304825 
        2.29341        0.418507        0.299489 
        2.30914        0.413072        0.294291 
        2.32486        0.406758        0.289218 
        2.34061        0.398899        0.284255 
        2.35635        0.389997        0.279411 
        2.37203        0.385536        0.274697 
        2.38768        0.380032        0.270099 
        2.40339        0.374566        0.265589 
        2.41914        0.369535        0.261171 
        2.43483        0.362359        0.256868 
         2.4505        0.356022        0.252667 
        2.46622        0.350303        0.248546 
        2.48195        0.347163        0.244515 
        2.49759         0.34136        0.240595 
        2.51328        0.334562        0.236749 
        2.52906        0.329437        0.232962 
        2.54479        0.325771        0.229271 
        2.56049        0.320342        0.225667 
        2.57618        0.316368        0.222142 
        2.59189        0.311259        0.218687 
        2.60758        0.307808        0.215309 
        2.62325        0.303092        0.212007 
        2.63898        0.298723        0.208762 
        2.65468        0.294306         0.20559 
        2.67044        0.289616         0.20247 
        2.68618        0.285349        0.199422 
        2.70184        0.281057        0.196448 
        2.71755        0.276796        0.193526 
        2.73329        0.274331        0.190659 
        2.74897        0.270406        0.187859 
        2.76462        0.266147        0.185121 
        2.78034        0.263263        0.182425 
        2.79607        0.258989         0.17978 
        2.81179        0.255556        0.177189 
        2.82749        0.252419        0.174652 
        2.84321        0.249397        0.172161 
        2.85893        0.246002         0.16972 
        2.87462        0.242632        0.167329 
        2.89033        0.239201        0.164981 
        2.90605        0.236347        0.162676 
        2.92176        0.233375        0.160416 
        2.93747        0.230151          0.1582 
        2.95318        0.227698        0.156024 
        2.96891        0.224853        0.153888 
        2.98456        0.222269        0.151802 
        3.00023        0.219197         0.14975 
        3.01596        0.216121        0.147729 
        3.03164        0.214497        0.145751 
        3.04738        0.210725        0.143804 
         3.0631        0.208662        0.141892 
        3.07883         0.20539        0.140014 
        3.09456        0.203184         0.13817 
        3.11026        0.200945        0.136362 
        3.12596        0.198105        0.134587 
        3.14163        0.196258        0.132846 
        3.15734         0.19438        0.131132 
        3.17308         0.19184        0.129444 
        3.18879        0.189293         0.12779 
        3.20447        0.187467        0.126167 
         3.2202        0.185353        0.124567 
         3.2359        0.183373        0.122997 
        3.25157        0.181116        0.121457 
        3.26729        0.179469        0.119939 
        3.28304        0.177684        0.118444 
        3.29877        0.175248        0.116976 
        3.31446        0.174049        0.115535 
        3.33014        0.172105         0.11412 
        3.34585        0.170793        0.112727 
        3.36158        0.168455        0.111354 
        3.37727        0.166949        0.110008 
        3.39294        0.165029        0.108685 
        3.40867        0.163065        0.107379 
        3.42439        0.161989        0.106095 
        3.44008        0.159876        0.104835 
        3.45578        0.159013        0.103593 
        3.47153        0.157437        0.102369 
        3.48724        0.156196        0.101167 
        3.50292        0.154682       0.0999862 
        3.51859        0.152566       0.0988248 
        3.53431        0.151262       0.0976781 
        3.55007        0.150279       0.0965466 
        3.56577        0.148659       0.0954373 
        3.58146        0.146858       0.0943458 
        3.59719        0.146003       0.0932686 
        3.61292        0.144637       0.0922084 
        3.62859        0.142835       0.0911685 
        3.64429        0.141825       0.0901425 
        3.66003        0.140742       0.0891289 
        3.67578        0.139334       0.0881312 
        3.69146        0.138235       0.0871523 
        3.70712        0.137139       0.0861899 
        3.72284        0.135973       0.0852384 
        3.73853         0.13509       0.0843027 
        3.75422        0.133582       0.0833805 
        3.76993        0.132742       0.0824712 
        3.78564        0.131359       0.0815757 
        3.80137        0.130173       0.0806919 
        3.81707        0.129836       0.0798229 
        3.83279        0.128549       0.0789659 
        3.84853        0.127133       0.0781199 
        3.86424        0.125934       0.0772878 
        3.87992        0.125301        0.076469 
        3.89561        0.124129       0.0756618 
        3.91134        0.123456       0.0748646 
        3.92704        0.121778       0.0740796 
        3.94273        0.121091       0.0733065 
        3.95845        0.119867        0.072543 
        3.97418        0.118907         0.07179 
        3.98988        0.117952       0.0710486 
        4.00554        0.116597       0.0703196 
        4.02125        0.115612       0.0695987 
        4.03698        0.114547       0.0688866 
        4.05268        0.113481        0.068186 
        4.06839        0.111924       0.0674945 
         4.0841        0.110451       0.0668127 
        4.09983        0.109078       0.0661393 
        4.11555        0.107771       0.0654753 
        4.13124        0.106497       0.0648222 
        4.14693        0.105771       0.0641773 
        4.16266        0.104337       0.0635397 
        4.17839        0.103459       0.0629109 
        4.19408        0.102562       0.0622921 
        4.20977        0.101412       0.0616811 
        4.22551        0.100754       0.0610769 
        4.24123       0.0994037       0.0604812 
        4.25691       0.0985721       0.0598951 
        4.27259       0.0976663       0.0593164 
        4.28831       0.0969354       0.0587442 
        4.30404       0.0959549       0.0581788 
        4.31974       0.0956822       0.0576221 
        4.33543       0.0945284       0.0570729 
        4.35116       0.0940737       0.0565294 
        4.36688       0.0930959       0.0559932 
        4.38255       0.0924367       0.0554658 
        4.39825       0.0922119        0.054944 
        4.41398       0.0911338       0.0544278 
         4.4297       0.0906112       0.0539187 
        4.44541       0.0900707       0.0534162 
        4.46111       0.0898819       0.0529204 
        4.47683       0.0893177       0.0524304 
        4.49251       0.0885876       0.0519476 
        4.50819       0.0883443       0.0514709 
         4.5239        0.088158       0.0509995 
        4.53962       0.0874765       0.0505333 
        4.55535       0.0873567       0.0500726 
        4.57106       0.0870798       0.0496183 
        4.58678       0.0867426       0.0491695 
         4.6025       0.0863613        0.048726 
        4.61821         0.08624       0.0482881 
        4.63391       0.0860033        0.047856 
         4.6496       0.0859769       0.0474293 
        4.66532       0.0857015       0.0470071 
        4.68103       0.0859409       0.0465902 
        4.69673       0.0856276       0.0461787 
        4.71241       0.0853891       0.0457725 
        4.72811       0.0852768       0.0453705 
        4.74384        0.085397       0.0449728 
        4.75955       0.0855908       0.0445803 
        4.77525        0.085673       0.0441928 
        4.79096       0.0856219       0.0438093 
        4.80669       0.0855686       0.0434301 
         4.8224         0.08585       0.0430558 
        4.83809       0.0858575       0.0426862 
        4.85379        0.086382       0.0423207 
         4.8695       0.0862553       0.0419592 
        4.88521       0.0865608        0.041602 
        4.90093       0.0868311       0.0412488 
        4.91663       0.0873198          0.0409 
        4.93234       0.0875551       0.0405549 
        4.94807       0.0879696       0.0402134 
        4.96377       0.0882387       0.0398765 
        4.97943       0.0890111       0.0395441 
        4.99514       0.0892897       0.0392146 
        5.01086       0.0897819       0.0388886 
        5.02654       0.0903197        0.038567 
        5.04227       0.0907374       0.0382481 
          5.058       0.0916967       0.0379326 
        5.07371       0.0921635       0.0376213 
        5.08942       0.0931351       0.0373134 
        5.10513       0.0934793       0.0370088 
        5.12084       0.0941691       0.0367075 
        5.13656        0.094967       0.0364096 
        5.15225       0.0959655       0.0361154 
        5.16796       0.0968929       0.0358239 
        5.18369       0.0971383       0.0355354 
         5.1994       0.0982999       0.0352506 
        5.21509       0.0993183        0.034969 
        5.23079        0.100806       0.0346902 
        5.24649        0.101606       0.0344147 
        5.26217        0.102248       0.0341423 
        5.27788        0.103246       0.0338724 
        5.29359         0.10454       0.0336053 
        5.30933        0.106158       0.0333407 
        5.32504        0.106885       0.0330794 
        5.34073         0.10832       0.0328211 
        5.35646        0.109725       0.0325651 
        5.37218        0.110356       0.0323117 
        5.38789        0.112094       0.0320613 
        5.40357        0.113404       0.0318139 
        5.41929        0.114755       0.0315685 
        5.43502        0.115917       0.0313257 
         5.4507        0.117636       0.0310859 
        5.46639        0.119595       0.0308486 
        5.48212           0.121       0.0306132 
        5.49786        0.122797       0.0303799 
        5.51353        0.124723       0.0301503 
        5.52921        0.126022       0.0299227 
        5.54495        0.127959       0.0296968 
        5.56066        0.130833       0.0294734 
        5.57637        0.131604       0.0292523 
        5.59207        0.134407       0.0290337 
        5.60778        0.135858       0.0288172 
        5.62346        0.138659       0.0286032 
        5.63916        0.140023       0.0283911 
        5.65487        0.141764       0.0281811 
         5.6706        0.144273       0.0279729 
        5.68633        0.147669       0.0277667 
        5.70203        0.149215        0.027563 
        5.71773        0.151836       0.0273613 
        5.73344        0.153322       0.0271616 
        5.74916        0.156094       0.0269636 
        5.76486        0.157915       0.0267678 
        5.78054        0.162299       0.0265743 
        5.79626          0.1627       0.0263821 
          5.812         0.16606       0.0261917 
         5.8277        0.169098       0.0260036 
        5.84339        0.172442       0.0258173 
        5.85911         0.17482       0.0256325 
        5.87484        0.176238       0.0254496 
        5.89053         0.18045       0.0252687 
        5.90623        0.182813       0.0250895 
        5.92195        0.186158       0.0249117 
        5.93767        0.188889       0.0247357 
        5.95336        0.191761       0.0245617 
        5.96905        0.195678       0.0243894 
        5.98476         0.19912       0.0242185 
        6.00048        0.202115       0.0240492 
        6.01617        0.204296       0.0238817 
        6.03185        0.207661        0.023716 
        6.04756        0.211141       0.0235514 
        6.06331        0.214663       0.0233881 
        6.07903        0.218013       0.0232266 
        6.09473        0.221411       0.0230667 
        6.11044        0.225218       0.0229082 
        6.12616        0.228506       0.0227512 
        6.14186        0.232358       0.0225959 
        6.15755        0.235932       0.0224419 
        6.17326        0.239536       0.0222893 
        6.18898        0.243671        0.022138 
        6.20467        0.248619       0.0219883 
        6.22036        0.249398       0.0218401 
         6.2361        0.253133       0.0216927 
         6.2518        0.257454        0.021547 
        6.26748        0.260844       0.0214029 
        6.28319        0.265372       0.0212598 
        6.29893        0.268384       0.0211177 
        6.31463        0.273904       0.0209773 
        6.33033         0.27725       0.0208381 
        6.34604        0.280286       0.0207001 
        6.36177         0.28481       0.0205632 
        6.37747        0.288923       0.0204277 
