# k  (h/Mpc)    Pcb(k)  (Mpc/h)^3    Pcb_linear(k) (Mpc/h)^3   ShotnoiseSubtracted = true
      0.0200456         13222.4         13433.9 
      0.0350414          8408.1         8632.97 
      0.0492313         5870.71         5892.63 
      0.0637834         4902.66         4771.21 
      0.0800726         3723.97         3613.74 
       0.096163         2480.53         2492.85 
       0.111083         1959.64         1967.99 
       0.126058         1792.57         1739.67 
       0.142273         1514.46         1422.27 
       0.158546         1237.49          1088.4 
        0.17375         986.763         919.792 
       0.188953          950.11         832.017 
       0.204907         875.643         717.268 
       0.220756         733.967         593.727 
        0.23588         644.468         517.546 
         0.2514         559.525         470.299 
       0.267535         538.039         418.158 
       0.283568         483.267         362.849 
       0.299022         449.315         322.908 
       0.314451         419.054         295.074 
       0.330372         384.204         267.738 
       0.346141         344.296         240.148 
       0.361624         331.717         217.505 
       0.377134          305.68         199.859 
       0.392932         287.059         183.691 
       0.408854         274.267         167.889 
       0.424564         258.984         154.056 
       0.440253         249.752         142.472 
       0.455999          233.29         132.125 
       0.471626         218.156         122.478 
        0.48727         208.878         113.672 
       0.502856         201.555         105.954 
       0.518488         198.347         98.9977 
       0.534347         186.327         92.4815 
       0.550082         174.306         86.5215 
       0.565732          169.94         81.1625 
       0.581496         160.807         76.2506 
       0.597222         156.396          71.737 
       0.612804         150.721         67.5932 
       0.628434         144.786         63.7713 
       0.644267         139.868         60.2125 
       0.660051          137.91         56.9324 
       0.675724         133.869         53.9127 
       0.691403         129.611         51.1074 
       0.707174         124.289          48.484 
       0.722871         122.467         46.0534 
        0.73838         119.566         43.8137 
       0.754018         115.812         41.7046 
       0.769845         112.113         39.7101 
        0.78569         109.964         37.8431 
       0.801365         106.164         36.1134 
       0.817031         102.668         34.4923 
       0.832809         101.381         32.9596 
       0.848511         97.8442         31.5263 
       0.864097         96.2291         30.1874 
       0.879701         93.9679         28.9245 
       0.895507         91.5733         27.7184 
       0.911279         89.4101          26.583 
        0.92691         88.5288         25.5202 
       0.942635         85.6771         24.5092 
       0.958396         85.4016         23.5504 
       0.974128         82.9255         22.6443 
       0.989692         80.9609         21.7944 
        1.00528         79.0343         20.9866 
        1.02113         78.2643         20.2067 
        1.03692         75.5373         19.4691 
        1.05264         74.9682         18.7715 
        1.06832          72.992         18.1088 
        1.08405         71.7192         17.4762 
        1.09979         71.4518         16.8732 
        1.11537         69.0329         16.3043 
        1.13105          68.753         15.7582 
        1.14679         67.6127         15.2347 
        1.16256          66.494         14.7339 
        1.17828         65.1705          14.257 
        1.19395         63.6901         13.8027 
         1.2097         62.4539         13.3658 
        1.22537         62.3752         12.9497 
          1.241         61.0363         12.5525 
        1.25666         59.6031         12.1708 
        1.27241         58.6826          11.803 
        1.28819         57.7488         11.4498 
        1.30392         56.9005         11.1119 
        1.31957         56.3145          10.789 
        1.33529         54.9761         10.4777 
        1.35108         54.5172         10.1773 
        1.36674         54.1063         9.89075 
         1.3824         52.7954          9.6154 
        1.39811         52.0643         9.34955 
        1.41389         51.4275         9.09265 
        1.42964         50.6431         8.84575 
        1.44531         49.6645         8.60915 
        1.46101         48.8665         8.38063 
        1.47667         48.9192         8.16102 
        1.49229         47.9852         7.94979 
        1.50793         47.6665         7.74575 
        1.52367         46.5383         7.54749 
        1.53953         45.9081         7.35478 
        1.55526          45.598         7.17028 
        1.57092         45.2288         6.99282 
        1.58662         44.2081         6.82089 
        1.60235         43.8902         6.65436 
        1.61809         43.2804         6.49325 
        1.63369         42.6076         6.33887 
        1.64941         42.3779         6.18835 
        1.66519         41.2194         6.04214 
        1.68085         41.1742         5.90165 
        1.69652         40.3261         5.76555 
        1.71228         40.0487         5.63293 
        1.72806         39.6611         5.50434 
        1.74368          38.978         5.38102 
        1.75933         38.6223         5.26119 
        1.77505         38.1303         5.14443 
        1.79081          37.735         5.03097 
         1.8065         37.2961         4.92138 
        1.82218         36.8014         4.81513 
        1.83797         36.3113         4.71126 
        1.85367         35.9711         4.61099 
        1.86928         35.2883         4.51422 
        1.88497         35.2305         4.41968 
        1.90073          34.634         4.32747 
        1.91647         34.3639         4.23795 
        1.93218         34.0649         4.15113 
        1.94787         33.5358         4.06684 
        1.96363         33.1433         3.98454 
        1.97935          32.763         3.90467 
        1.99499         32.4514         3.82742 
        2.01064         32.0558         3.75212 
         2.0264         31.4235         3.67836 
        2.04216          31.431          3.6066 
        2.05781         30.9286         3.53719 
        2.07353         30.5658         3.46934 
        2.08928         30.4163         3.40311 
        2.10499          29.864         3.33877 
        2.12065         29.5459         3.27626 
        2.13633          29.307         3.21529 
        2.15211         29.0983         3.15546 
        2.16785         28.5861         3.09731 
        2.18349         28.2793         3.04098 
        2.19916         28.0215         2.98591 
        2.21489         27.7829         2.93201 
        2.23063         27.3764         2.87939 
         2.2463         27.0654         2.82829 
        2.26194         26.7036         2.77854 
        2.27765         26.5043         2.72973 
        2.29341         26.2075         2.68194 
        2.30914         25.9558         2.63539 
        2.32486         25.5412         2.58996 
        2.34061         25.4501         2.54552 
        2.35635         25.1371         2.50214 
        2.37203         24.8517         2.45992 
        2.38768          24.609         2.41875 
        2.40339         24.4099         2.37837 
        2.41914         24.1563          2.3388 
        2.43483         23.8244         2.30026 
         2.4505         23.6416         2.26265 
        2.46622         23.3477         2.22574 
        2.48195         23.1901         2.18965 
        2.49759         22.9383         2.15454 
        2.51328         22.6008          2.1201 
        2.52906         22.4019         2.08619 
        2.54479         22.1546         2.05313 
        2.56049         21.9544         2.02086 
        2.57618         21.7181         1.98929 
        2.59189         21.5267         1.95835 
        2.60758         21.3895         1.92811 
        2.62325         21.0861         1.89853 
        2.63898         20.9277         1.86947 
        2.65468         20.6497         1.84107 
        2.67044          20.531         1.81313 
        2.68618         20.3004         1.78584 
        2.70184         20.0504          1.7592 
        2.71755         19.9274         1.73304 
        2.73329         19.6967         1.70736 
        2.74897         19.4625         1.68229 
        2.76462          19.251         1.65776 
        2.78034         19.1665         1.63362 
        2.79607         19.0515         1.60993 
        2.81179          18.779         1.58674 
        2.82749          18.599         1.56402 
        2.84321           18.38         1.54171 
        2.85893         18.1433         1.51985 
        2.87462          18.029         1.49844 
        2.89033         17.9214         1.47742 
        2.90605         17.7075         1.45678 
        2.92176          17.565         1.43654 
        2.93747         17.4225         1.41669 
        2.95318         17.2063         1.39721 
        2.96891         17.0714         1.37808 
        2.98456         16.8986         1.35939 
        3.00023         16.6819         1.34102 
        3.01596         16.5214         1.32292 
        3.03164         16.4231         1.30521 
        3.04738         16.2367         1.28777 
         3.0631          16.101         1.27065 
        3.07883           16.02         1.25383 
        3.09456         15.7843         1.23732 
        3.11026         15.6622         1.22113 
        3.12596         15.5096         1.20523 
        3.14163         15.3838         1.18965 
        3.15734         15.2799          1.1743 
        3.17308         15.0686         1.15918 
        3.18879         14.9958         1.14437 
        3.20447         14.8317         1.12983 
         3.2202         14.6592          1.1155 
         3.2359         14.5405         1.10144 
        3.25157         14.4387         1.08766 
        3.26729         14.3167         1.07406 
        3.28304         14.1433         1.06067 
        3.29877         14.0556         1.04752 
        3.31446         13.8519         1.03463 
        3.33014         13.7815         1.02195 
        3.34585         13.6453         1.00947 
        3.36158          13.527        0.997178 
        3.37727         13.3791        0.985126 
        3.39294          13.255        0.973281 
        3.40867         13.1207        0.961587 
        3.42439         13.0335        0.950089 
        3.44008         12.9353          0.9388 
        3.45578         12.7853        0.927684 
        3.47153         12.6641        0.916721 
        3.48724          12.564        0.905953 
        3.50292         12.4944        0.895381 
        3.51859         12.3441        0.884981 
        3.53431         12.2305        0.874713 
        3.55007         12.1274         0.86458 
        3.56577         11.9931        0.854646 
        3.58146         11.9025        0.844871 
        3.59719           11.79        0.835225 
        3.61292         11.7046        0.825731 
        3.62859         11.5838        0.816418 
        3.64429         11.5091         0.80723 
        3.66003         11.4106        0.798154 
        3.67578          11.324        0.789219 
        3.69146         11.2339        0.780454 
        3.70712         11.1317        0.771835 
        3.72284         11.0285        0.763314 
        3.73853          10.921        0.754935 
        3.75422         10.8078        0.746677 
        3.76993          10.723        0.738534 
        3.78564           10.62        0.730515 
        3.80137         10.5478          0.7226 
        3.81707         10.4504        0.714818 
        3.83279         10.3868        0.707143 
        3.84853         10.2632        0.699568 
        3.86424         10.1682        0.692116 
        3.87992         10.0819        0.684784 
        3.89561          9.9905        0.677556 
        3.91134         9.93019        0.670416 
        3.92704         9.81007        0.663387 
        3.94273         9.73928        0.656464 
        3.95845         9.68412        0.649626 
        3.97418         9.58114        0.642883 
        3.98988         9.50498        0.636244 
        4.00554         9.42079        0.629716 
        4.02125         9.36747         0.62326 
        4.03698         9.24437        0.616883 
        4.05268         9.16044        0.610609 
        4.06839         9.11637        0.604417 
         4.0841         9.03374        0.598311 
        4.09983         8.93509        0.592281 
        4.11555         8.89649        0.586335 
        4.13124         8.80826        0.580486 
        4.14693         8.72958        0.574711 
        4.16266         8.64902        0.569001 
        4.17839         8.59885        0.563371 
        4.19408         8.50707        0.557829 
        4.20977         8.46082        0.552358 
        4.22551         8.36525        0.546946 
        4.24123          8.3108        0.541612 
        4.25691         8.22445        0.536364 
        4.27259         8.18975        0.531182 
        4.28831         8.09924        0.526057 
        4.30404         8.03295        0.520994 
        4.31974         7.97419        0.516009 
        4.33543         7.90463         0.51109 
        4.35116         7.85506        0.506224 
        4.36688         7.79124        0.501422 
        4.38255         7.74377        0.496699 
        4.39825         7.65652        0.492026 
        4.41398         7.60935        0.487404 
         4.4297         7.53787        0.482845 
        4.44541           7.485        0.478345 
        4.46111          7.4236        0.473905 
        4.47683         7.36537        0.469517 
        4.49251         7.29572        0.465193 
        4.50819         7.25213        0.460925 
         4.5239         7.19298        0.456703 
        4.53962         7.12493        0.452528 
        4.55535         7.06317        0.448403 
        4.57106         6.99482        0.444334 
        4.58678          6.9624        0.440315 
         4.6025         6.89942        0.436344 
        4.61821         6.83993        0.432422 
        4.63391         6.78615        0.428553 
         4.6496         6.75743        0.424732 
        4.66532         6.69078        0.420951 
        4.68103         6.64365        0.417218 
        4.69673         6.59975        0.413533 
        4.71241         6.54125        0.409896 
        4.72811         6.48714        0.406295 
        4.74384         6.43111        0.402734 
        4.75955         6.39393        0.399219 
        4.77525         6.35974        0.395748 
        4.79096         6.28052        0.392314 
        4.80669         6.24085        0.388919 
         4.8224         6.20585        0.385567 
        4.83809         6.13547        0.382257 
        4.85379         6.08722        0.378984 
         4.8695         6.05974        0.375747 
        4.88521         6.00239        0.372548 
        4.90093         5.95846        0.369385 
        4.91663         5.91587        0.366262 
        4.93234          5.8694        0.363171 
        4.94807         5.83459        0.360113 
        4.96377         5.78116        0.357096 
        4.97943         5.74221         0.35412 
        4.99514         5.70022        0.351169 
        5.01086         5.66512        0.348249 
        5.02654         5.61563         0.34537 
        5.04227         5.58594        0.342514 
          5.058         5.53056        0.339689 
        5.07371         5.50027        0.336901 
        5.08942         5.45332        0.334143 
        5.10513         5.41257        0.331416 
        5.12084         5.37794        0.328718 
        5.13656         5.33584        0.326049 
        5.15225         5.30012        0.323415 
        5.16796         5.25964        0.320805 
        5.18369         5.20903        0.318221 
         5.1994         5.18282        0.315671 
        5.21509         5.15312         0.31315 
        5.23079           5.104        0.310653 
        5.24649         5.06493        0.308185 
        5.26217         5.03292        0.305746 
        5.27788         5.00688        0.303329 
        5.29359          4.9616        0.300937 
        5.30933         4.94082        0.298568 
        5.32504         4.89385        0.296228 
        5.34073         4.86916        0.293915 
        5.35646         4.83112        0.291622 
        5.37218         4.81268        0.289353 
        5.38789         4.75586        0.287111 
        5.40357         4.73319        0.284895 
        5.41929         4.69578        0.282698 
        5.43502         4.66781        0.280523 
         5.4507         4.63644        0.278376 
        5.46639         4.60688        0.276251 
        5.48212         4.57275        0.274143 
        5.49786         4.54518        0.272054 
        5.51353         4.49555        0.269997 
        5.52921          4.4748        0.267959 
        5.54495         4.45149        0.265936 
        5.56066         4.42465        0.263936 
        5.57637         4.39125        0.261956 
        5.59207          4.3562        0.259998 
        5.60778         4.33131         0.25806 
        5.62346         4.29018        0.256143 
        5.63916         4.26959        0.254244 
        5.65487         4.24284        0.252363 
         5.6706          4.2111        0.250499 
        5.68633         4.18467        0.248652 
        5.70203         4.15158        0.246828 
        5.71773         4.12514        0.245022 
        5.73344          4.1015        0.243233 
        5.74916         4.07634         0.24146 
        5.76486          4.0454        0.239707 
        5.78054         4.03016        0.237974 
        5.79626         3.99461        0.236253 
          5.812         3.97092        0.234548 
         5.8277         3.94589        0.232863 
        5.84339         3.92393        0.231196 
        5.85911         3.89392        0.229541 
        5.87484         3.86786        0.227902 
        5.89053           3.847        0.226283 
        5.90623         3.81898        0.224678 
        5.92195         3.79913        0.223086 
        5.93767         3.77568         0.22151 
        5.95336         3.74617        0.219952 
        5.96905         3.72594        0.218409 
        5.98476         3.70157        0.216878 
        6.00048         3.68528        0.215362 
        6.01617         3.65495        0.213862 
        6.03185         3.62549        0.212378 
        6.04756         3.60658        0.210904 
        6.06331         3.58379        0.209441 
        6.07903         3.56553        0.207995 
        6.09473         3.54102        0.206564 
        6.11044         3.52132        0.205144 
        6.12616         3.49293        0.203738 
        6.14186         3.46734        0.202347 
        6.15755         3.45408        0.200968 
        6.17326         3.43364        0.199602 
        6.18898         3.41161        0.198247 
        6.20467         3.38845        0.196907 
        6.22036         3.36911        0.195579 
         6.2361         3.34493         0.19426 
         6.2518         3.32805        0.192955 
        6.26748         3.31073        0.191664 
        6.28319           3.281        0.190382 
        6.29893         3.26356        0.189111 
        6.31463         3.24497        0.187852 
        6.33033         3.23026        0.186606 
        6.34604         3.21066         0.18537 
        6.36177         3.18017        0.184144 
        6.37747         3.17221        0.182931 
