# k  (h/Mpc)    Pcb(k)  (Mpc/h)^3    Pcb_linear(k) (Mpc/h)^3   ShotnoiseSubtracted = true
      0.0200456         6443.74         6531.82 
      0.0350414          4135.5         4197.52 
      0.0492313         2869.24         2865.11 
      0.0637834         2367.38         2319.85 
      0.0800726         1797.47         1757.07 
       0.096163         1206.81         1212.07 
       0.111083         949.051         956.874 
       0.126058          862.18         845.858 
       0.142273         721.668         691.533 
       0.158546         570.628         529.199 
        0.17375         461.351          447.22 
       0.188953         435.371         404.543 
       0.204907         397.053         348.749 
       0.220756         326.924         288.681 
        0.23588         284.829         251.641 
         0.2514         250.841         228.669 
       0.267535         233.586         203.317 
       0.283568         208.259         176.424 
       0.299022         190.482         157.004 
       0.314451         172.475         143.471 
       0.330372         158.877         130.179 
       0.346141         141.426         116.765 
       0.361624         133.528         105.755 
       0.377134         124.537         97.1752 
       0.392932         112.076         89.3139 
       0.408854         106.965         81.6308 
       0.424564          101.66         74.9049 
       0.440253         94.8243         69.2724 
       0.455999         88.3548         64.2416 
       0.471626          81.774         59.5513 
        0.48727         78.3367         55.2696 
       0.502856         74.4548          51.517 
       0.518488         71.4874         48.1346 
       0.534347         68.3793         44.9663 
       0.550082         62.5263         42.0684 
       0.565732         59.2915         39.4628 
       0.581496         57.1687         37.0745 
       0.597222         54.9985         34.8799 
       0.612804         51.8682         32.8651 
       0.628434         50.3133         31.0068 
       0.644267         48.5546         29.2764 
       0.660051         46.7576         27.6816 
       0.675724         44.5131         26.2134 
       0.691403         43.0486         24.8494 
       0.707174         41.4612         23.5739 
       0.722871         40.1325          22.392 
        0.73838         38.9194          21.303 
       0.754018         36.9033         20.2776 
       0.769845         35.9522         19.3078 
        0.78569          34.936            18.4 
       0.801365         33.5346          17.559 
       0.817031         32.6153         16.7708 
       0.832809         31.9842         16.0256 
       0.848511         30.2223         15.3287 
       0.864097          29.623         14.6777 
       0.879701         28.8802         14.0636 
       0.895507         28.3839         13.4772 
       0.911279         27.3688         12.9252 
        0.92691         26.7827         12.4084 
       0.942635         25.6458         11.9168 
       0.958396         25.4061         11.4507 
       0.974128         24.5853         11.0101 
       0.989692         24.1745         10.5969 
        1.00528         23.5884         10.2041 
        1.02113         22.7657          9.8249 
        1.03692         22.1658         9.46627 
        1.05264         21.9761         9.12704 
        1.06832         21.1463         8.80485 
        1.08405         20.8034         8.49725 
        1.09979         20.3813         8.20405 
        1.11537         19.7757         7.92748 
        1.13105         19.6769         7.66193 
        1.14679         19.2899         7.40742 
        1.16256           18.63          7.1639 
        1.17828         18.3352         6.93205 
        1.19395         17.9363         6.71116 
         1.2097         17.7396          6.4987 
        1.22537         17.4328          6.2964 
          1.241         16.9557         6.10325 
        1.25666         16.5392         5.91766 
        1.27241         16.2535         5.73886 
        1.28819         15.8541         5.56709 
        1.30392         15.6765          5.4028 
        1.31957          15.518         5.24581 
        1.33529         15.2901         5.09444 
        1.35108         14.9185         4.94839 
        1.36674         14.6663         4.80907 
         1.3824         14.3353         4.67519 
        1.39811         14.2013         4.54593 
        1.41389         14.0178         4.42102 
        1.42964         13.6813         4.30097 
        1.44531         13.6167         4.18593 
        1.46101          13.241         4.07482 
        1.47667         13.0743         3.96804 
        1.49229         12.9122         3.86534 
        1.50793         12.7304         3.76613 
        1.52367         12.5332         3.66973 
        1.53953         12.3973         3.57603 
        1.55526         12.1512         3.48633 
        1.57092         11.9143         3.40004 
        1.58662         11.8307         3.31645 
        1.60235         11.6427         3.23548 
        1.61809         11.4721         3.15714 
        1.63369         11.3274         3.08208 
        1.64941         11.1065          3.0089 
        1.66519         11.0213         2.93781 
        1.68085         10.8437          2.8695 
        1.69652         10.6811         2.80332 
        1.71228         10.5853         2.73884 
        1.72806         10.4199         2.67632 
        1.74368         10.2626         2.61635 
        1.75933         10.1661         2.55809 
        1.77505         10.0597         2.50132 
        1.79081         9.87506         2.44615 
         1.8065         9.82411         2.39287 
        1.82218         9.62173         2.34121 
        1.83797         9.46777          2.2907 
        1.85367         9.37877         2.24195 
        1.86928         9.30833          2.1949 
        1.88497         9.15575         2.14893 
        1.90073         9.13491          2.1041 
        1.91647         8.96191         2.06057 
        1.93218         8.89007         2.01836 
        1.94787         8.78215         1.97738 
        1.96363         8.70807         1.93736 
        1.97935         8.58496         1.89852 
        1.99499         8.43189         1.86096 
        2.01064         8.38159         1.82435 
         2.0264         8.28216         1.78849 
        2.04216         8.18824          1.7536 
        2.05781         8.05283         1.71985 
        2.07353         8.01159         1.68686 
        2.08928         7.91246         1.65466 
        2.10499         7.82476         1.62337 
        2.12065         7.71894         1.59298 
        2.13633         7.69168         1.56334 
        2.15211         7.56213         1.53425 
        2.16785         7.50798         1.50597 
        2.18349          7.4657         1.47858 
        2.19916          7.3746         1.45181 
        2.21489         7.28807          1.4256 
        2.23063         7.20159         1.40001 
         2.2463         7.12004         1.37517 
        2.26194         7.04382         1.35098 
        2.27765         7.01686         1.32724 
        2.29341         6.92607         1.30401 
        2.30914          6.8208         1.28138 
        2.32486         6.78102         1.25929 
        2.34061         6.72391         1.23768 
        2.35635         6.63286         1.21659 
        2.37203         6.61428         1.19606 
        2.38768         6.47079         1.17604 
        2.40339         6.43939         1.15641 
        2.41914         6.36798         1.13717 
        2.43483          6.3531         1.11843 
         2.4505         6.26795         1.10014 
        2.46622          6.2003          1.0822 
        2.48195         6.16992         1.06465 
        2.49759         6.09274         1.04758 
        2.51328         6.02496         1.03083 
        2.52906         5.99286         1.01434 
        2.54479         5.91764        0.998273 
        2.56049         5.90979        0.982579 
        2.57618         5.85362        0.967232 
        2.59189         5.76378        0.952187 
        2.60758         5.74904        0.937482 
        2.62325         5.69203        0.923103 
        2.63898         5.61681        0.908972 
        2.65468          5.5421        0.895164 
        2.67044          5.5152         0.88158 
        2.68618         5.45484        0.868307 
        2.70184         5.43533        0.855357 
        2.71755         5.37748        0.842637 
        2.73329         5.30687        0.830153 
        2.74897         5.28714         0.81796 
        2.76462         5.25402        0.806037 
        2.78034         5.16738        0.794299 
        2.79607         5.15529        0.782781 
        2.81179         5.09746        0.771502 
        2.82749         5.08231        0.760455 
        2.84321         5.03423        0.749611 
        2.85893         4.98756        0.738979 
        2.87462         4.94724        0.728569 
        2.89033         4.90132        0.718348 
        2.90605         4.83938        0.708312 
        2.92176         4.82178        0.698471 
        2.93747         4.79439        0.688821 
        2.95318         4.74941        0.679349 
        2.96891         4.71042        0.670048 
        2.98456         4.64481        0.660962 
        3.00023         4.62366        0.652028 
        3.01596         4.59054        0.643231 
        3.03164         4.56166        0.634619 
        3.04738         4.53262        0.626138 
         3.0631         4.47834        0.617813 
        3.07883         4.45861        0.609638 
        3.09456         4.41549         0.60161 
        3.11026         4.37955        0.593738 
        3.12596         4.35031        0.586006 
        3.14163         4.30878        0.578428 
        3.15734         4.28126        0.570966 
        3.17308         4.24251        0.563615 
        3.18879         4.21513        0.556413 
        3.20447         4.18995        0.549345 
         3.2202         4.13902        0.542377 
         3.2359         4.11544        0.535542 
        3.25157         4.08524        0.528839 
        3.26729         4.07391        0.522229 
        3.28304         4.02295        0.515718 
        3.29877         4.00037        0.509326 
        3.31446         3.96505        0.503054 
        3.33014         3.93841        0.496893 
        3.34585         3.92405        0.490824 
        3.36158         3.88441        0.484847 
        3.37727         3.86099        0.478987 
        3.39294         3.83762        0.473228 
        3.40867          3.8003        0.467542 
        3.42439         3.77052        0.461952 
        3.44008         3.74713        0.456462 
        3.45578         3.71889        0.451057 
        3.47153          3.6871        0.445727 
        3.48724         3.65883        0.440492 
        3.50292         3.64564        0.435351 
        3.51859         3.61804        0.430295 
        3.53431          3.5879        0.425302 
        3.55007         3.55835        0.420375 
        3.56577         3.54193        0.415545 
        3.58146         3.52133        0.410792 
        3.59719         3.48975        0.406102 
        3.61292           3.472        0.401486 
        3.62859         3.45019        0.396958 
        3.64429         3.41581        0.392491 
        3.66003         3.38834        0.388078 
        3.67578         3.37844        0.383733 
        3.69146         3.33781        0.379471 
        3.70712         3.33171        0.375281 
        3.72284         3.29509        0.371138 
        3.73853         3.27632        0.367064 
        3.75422          3.2519        0.363049 
        3.76993         3.24042        0.359089 
        3.78564         3.21099         0.35519 
        3.80137         3.19935        0.351342 
        3.81707         3.17135        0.347558 
        3.83279         3.14258        0.343827 
        3.84853         3.12844        0.340143 
        3.86424         3.10164         0.33652 
        3.87992         3.08241        0.332955 
        3.89561         3.06869         0.32944 
        3.91134          3.0344        0.325969 
        3.92704           3.024        0.322551 
        3.94273         3.00291        0.319185 
        3.95845         2.98539         0.31586 
        3.97418         2.96237        0.312582 
        3.98988         2.94085        0.309354 
        4.00554         2.92614         0.30618 
        4.02125         2.90844        0.303041 
        4.03698          2.8776         0.29994 
        4.05268         2.86534         0.29689 
        4.06839         2.84874        0.293879 
         4.0841         2.82725         0.29091 
        4.09983         2.80653        0.287978 
        4.11555         2.78176        0.285087 
        4.13124         2.76736        0.282243 
        4.14693         2.74259        0.279436 
        4.16266           2.721        0.276659 
        4.17839          2.7059        0.273922 
        4.19408           2.683        0.271227 
        4.20977         2.67307        0.268567 
        4.22551         2.64902        0.265936 
        4.24123         2.63381        0.263342 
        4.25691         2.61927         0.26079 
        4.27259          2.6049        0.258271 
        4.28831          2.5883        0.255779 
        4.30404         2.56867        0.253317 
        4.31974         2.54786        0.250893 
        4.33543         2.53709        0.248502 
        4.35116         2.51763        0.246136 
        4.36688         2.49486        0.243801 
        4.38255         2.48552        0.241505 
        4.39825         2.46629        0.239233 
        4.41398         2.45951        0.236985 
         4.4297         2.43845        0.234768 
        4.44541         2.43266         0.23258 
        4.46111         2.41253        0.230421 
        4.47683          2.3903        0.228288 
        4.49251         2.38075        0.226186 
        4.50819         2.36323         0.22411 
         4.5239          2.3508        0.222058 
        4.53962         2.34303        0.220028 
        4.55535         2.32334        0.218022 
        4.57106         2.31326        0.216044 
        4.58678         2.29897         0.21409 
         4.6025         2.28414        0.212159 
        4.61821         2.27269        0.210252 
        4.63391         2.25796        0.208371 
         4.6496         2.24324        0.206513 
        4.66532         2.22938        0.204675 
        4.68103         2.21498        0.202859 
        4.69673         2.19967        0.201068 
        4.71241         2.18756        0.199299 
        4.72811         2.18024        0.197549 
        4.74384         2.16335        0.195817 
        4.75955         2.15468        0.194108 
        4.77525         2.14137         0.19242 
        4.79096         2.12719        0.190751 
        4.80669          2.1172          0.1891 
         4.8224         2.10023         0.18747 
        4.83809         2.09362        0.185861 
        4.85379          2.0853        0.184269 
         4.8695         2.07017        0.182695 
        4.88521         2.05525         0.18114 
        4.90093         2.04999        0.179602 
        4.91663         2.03234        0.178084 
        4.93234         2.02656        0.176581 
        4.94807         2.01725        0.175094 
        4.96377         2.00214        0.173627 
        4.97943         1.98848         0.17218 
        4.99514         1.97927        0.170745 
        5.01086         1.96973        0.169325 
        5.02654         1.96265        0.167925 
        5.04227         1.94943        0.166537 
          5.058         1.94295        0.165163 
        5.07371         1.93102        0.163808 
        5.08942          1.9205        0.162467 
        5.10513          1.9093        0.161141 
        5.12084         1.89865        0.159829 
        5.13656         1.88987        0.158531 
        5.15225          1.8771        0.157251 
        5.16796         1.86881        0.155982 
        5.18369         1.85716        0.154725 
         5.1994         1.85435        0.153485 
        5.21509          1.8432        0.152259 
        5.23079         1.83032        0.151045 
        5.24649         1.82504        0.149846 
        5.26217         1.81682        0.148659 
        5.27788         1.80626        0.147484 
        5.29359         1.79619        0.146321 
        5.30933         1.78661        0.145169 
        5.32504         1.77333        0.144032 
        5.34073         1.76627        0.142907 
        5.35646         1.75795        0.141792 
        5.37218         1.74849        0.140689 
        5.38789         1.74089        0.139599 
        5.40357         1.73559        0.138521 
        5.41929          1.7278        0.137453 
        5.43502         1.72007        0.136396 
         5.4507         1.71298        0.135352 
        5.46639         1.70351        0.134318 
        5.48212         1.69672        0.133293 
        5.49786         1.68724        0.132278 
        5.51353         1.67941        0.131278 
        5.52921         1.67156        0.130287 
        5.54495         1.66328        0.129303 
        5.56066          1.6562        0.128331 
        5.57637         1.64909        0.127368 
        5.59207         1.63987        0.126416 
        5.60778         1.63773        0.125473 
        5.62346          1.6267        0.124542 
        5.63916         1.61548        0.123618 
        5.65487         1.61051        0.122704 
         5.6706           1.603        0.121797 
        5.68633           1.595        0.120899 
        5.70203         1.58828        0.120012 
        5.71773         1.58186        0.119134 
        5.73344         1.57735        0.118265 
        5.74916         1.56762        0.117403 
        5.76486         1.56156         0.11655 
        5.78054         1.55482        0.115708 
        5.79626         1.54912        0.114871 
          5.812         1.54329        0.114041 
         5.8277         1.53395        0.113223 
        5.84339         1.52881        0.112412 
        5.85911         1.52126        0.111607 
        5.87484         1.51321         0.11081 
        5.89053         1.50984        0.110023 
        5.90623         1.50276        0.109243 
        5.92195         1.49702        0.108469 
        5.93767         1.48908        0.107702 
        5.95336         1.48325        0.106945 
        5.96905         1.47554        0.106194 
        5.98476          1.4691         0.10545 
        6.00048         1.46443        0.104713 
        6.01617         1.45718        0.103984 
        6.03185         1.45035        0.103262 
        6.04756         1.44644        0.102546 
        6.06331         1.43852        0.101834 
        6.07903         1.43733        0.101131 
        6.09473         1.42818        0.100435 
        6.11044         1.42316       0.0997451 
        6.12616         1.41828       0.0990615 
        6.14186         1.41422        0.098385 
        6.15755         1.40585       0.0977147 
        6.17326         1.40303       0.0970501 
        6.18898         1.39461       0.0963913 
        6.20467         1.39008       0.0957397 
        6.22036           1.384       0.0950942 
         6.2361         1.37968       0.0944527 
         6.2518         1.37161       0.0938182 
        6.26748         1.36765       0.0931909 
        6.28319         1.36261       0.0925674 
        6.29893         1.35623       0.0919491 
        6.31463         1.35318       0.0913375 
        6.33033          1.3468       0.0907315 
        6.34604         1.33941       0.0901305 
        6.36177         1.33717       0.0895344 
        6.37747         1.33115       0.0889446 
