# k  (h/Mpc)    Pcb(k)  (Mpc/h)^3    Pcb_linear(k) (Mpc/h)^3   ShotnoiseSubtracted = true
      0.0200456         11626.9         11770.4 
      0.0350414          7820.7         7563.98 
      0.0492313         5146.36         5162.97 
      0.0637834         4060.27         4180.41 
      0.0800726         3064.66         3166.27 
       0.096163          2301.6         2184.17 
       0.111083         1840.38          1724.3 
       0.126058         1531.64         1524.25 
       0.142273         1281.31         1246.15 
       0.158546         1024.68         953.625 
        0.17375         889.231         805.897 
       0.188953         819.419         728.991 
       0.204907         685.437         628.451 
       0.220756         605.236         520.208 
        0.23588           534.9          453.46 
         0.2514         475.406         412.064 
       0.267535         454.814         366.379 
       0.283568         392.363         317.918 
       0.299022         371.028         282.923 
       0.314451         368.508         258.536 
       0.330372          314.19         234.585 
       0.346141         288.971         210.412 
       0.361624         273.041         190.572 
       0.377134         252.382         175.111 
       0.392932         242.969         160.945 
       0.408854         230.175           147.1 
       0.424564         220.085          134.98 
       0.440253          198.05          124.83 
       0.455999         186.533         115.764 
       0.471626          184.45         107.312 
        0.48727         174.706         99.5967 
       0.502856         159.054         92.8344 
       0.518488         158.491         86.7392 
       0.534347         146.904         81.0299 
       0.550082         142.652         75.8079 
       0.565732         140.795         71.1124 
       0.581496         129.999         66.8087 
       0.597222         126.724         62.8541 
       0.612804         121.667         59.2233 
       0.628434         118.329         55.8748 
       0.644267         111.807         52.7566 
       0.660051         109.131         49.8827 
       0.675724          106.89         47.2369 
       0.691403         104.208         44.7789 
       0.707174         99.9652         42.4804 
       0.722871         98.0717         40.3508 
        0.73838         96.3061         38.3884 
       0.754018         90.3008         36.5404 
       0.769845         89.8876          34.793 
        0.78569         87.0435         33.1571 
       0.801365          83.788         31.6416 
       0.817031         81.4746         30.2212 
       0.832809         79.7948         28.8784 
       0.848511         77.7363         27.6225 
       0.864097         76.1089         26.4494 
       0.879701         74.7331         25.3429 
       0.895507         72.1244         24.2861 
       0.911279         70.2451         23.2914 
        0.92691         68.7499         22.3601 
       0.942635          66.818         21.4743 
       0.958396         66.6827         20.6343 
       0.974128         65.0566         19.8403 
       0.989692         63.1595         19.0957 
        1.00528         62.0882         18.3879 
        1.02113         60.4962         17.7046 
        1.03692          60.261         17.0583 
        1.05264         59.2713         16.4471 
        1.06832         57.3111         15.8665 
        1.08405         56.4656         15.3122 
        1.09979         55.8228         14.7838 
        1.11537         54.3344         14.2854 
        1.13105         53.2961         13.8069 
        1.14679         52.6153         13.3483 
        1.16256         51.5004         12.9095 
        1.17828         51.0444         12.4916 
        1.19395         49.8055         12.0936 
         1.2097         49.4098         11.7108 
        1.22537         48.2271         11.3462 
          1.241         48.1708         10.9981 
        1.25666         46.2947         10.6637 
        1.27241         46.1371         10.3415 
        1.28819         45.5956          10.032 
        1.30392         44.5798         9.73592 
        1.31957         44.3154         9.45302 
        1.33529          43.581         9.18025 
        1.35108         43.1152         8.91707 
        1.36674         42.1915         8.66601 
         1.3824         41.6284         8.42476 
        1.39811         40.7882         8.19183 
        1.41389         40.2782         7.96674 
        1.42964         39.8528         7.75041 
        1.44531         39.2882         7.54311 
        1.46101         38.8909         7.34289 
        1.47667         38.2861         7.15047 
        1.49229         37.5697          6.9654 
        1.50793         37.1976         6.78662 
        1.52367         37.0166         6.61291 
        1.53953         36.4099         6.44406 
        1.55526         35.5726         6.28241 
        1.57092          35.492         6.12692 
        1.58662         35.0201         5.97628 
        1.60235         34.5332         5.83037 
        1.61809         33.9491         5.68922 
        1.63369         33.4671         5.55395 
        1.64941          33.105         5.42207 
        1.66519         32.5792         5.29397 
        1.68085         32.1791         5.17087 
        1.69652         31.7592         5.05162 
        1.71228         31.4406         4.93543 
        1.72806         31.1911         4.82276 
        1.74368         30.6166         4.71471 
        1.75933         30.4859         4.60972 
        1.77505         29.9434         4.50741 
        1.79081          29.714           4.408 
         1.8065         29.4483         4.31198 
        1.82218         28.7308         4.21889 
        1.83797         28.4432         4.12788 
        1.85367         28.2034         4.04003 
        1.86928         28.0134         3.95524 
        1.88497         27.5511         3.87241 
        1.90073          27.324         3.79161 
        1.91647         27.1595         3.71318 
        1.93218         26.8382         3.63711 
        1.94787         26.5122         3.56326 
        1.96363         26.1117         3.49115 
        1.97935         25.8335         3.42117 
        1.99499         25.6294         3.35348 
        2.01064          25.155         3.28751 
         2.0264          25.111         3.22288 
        2.04216         24.8355         3.16001 
        2.05781          24.531         3.09919 
        2.07353         24.1498         3.03975 
        2.08928         24.1138         2.98171 
        2.10499         23.7643         2.92534 
        2.12065         23.4615         2.87058 
        2.13633         23.3261         2.81715 
        2.15211         22.9703         2.76473 
        2.16785         22.6669         2.71378 
        2.18349         22.4884         2.66442 
        2.19916         22.2709         2.61617 
        2.21489         22.1157         2.56895 
        2.23063         21.8106         2.52285 
         2.2463         21.6606         2.47807 
        2.26194         21.3974         2.43449 
        2.27765         21.1331         2.39171 
        2.29341          20.883         2.34985 
        2.30914         20.6725         2.30906 
        2.32486         20.5408         2.26926 
        2.34061         20.2993         2.23031 
        2.35635         20.0481         2.19231 
        2.37203         19.9456         2.15532 
        2.38768         19.7469         2.11925 
        2.40339         19.4888         2.08386 
        2.41914         19.4125         2.04919 
        2.43483         19.1761         2.01543 
         2.4505         18.9832         1.98247 
        2.46622         18.7325         1.95014 
        2.48195         18.5731         1.91851 
        2.49759          18.369         1.88775 
        2.51328         18.1576         1.85757 
        2.52906         17.9762         1.82786 
        2.54479         17.9053          1.7989 
        2.56049         17.6835         1.77062 
        2.57618         17.5253         1.74297 
        2.59189         17.3475         1.71585 
        2.60758         17.1538         1.68936 
        2.62325         16.9534         1.66344 
        2.63898         16.9328         1.63798 
        2.65468         16.7227          1.6131 
        2.67044         16.5504         1.58862 
        2.68618         16.3261          1.5647 
        2.70184         16.1921         1.54137 
        2.71755         16.0008         1.51844 
        2.73329         15.8715         1.49595 
        2.74897         15.7436         1.47398 
        2.76462         15.6025         1.45249 
        2.78034         15.4057         1.43134 
        2.79607         15.2961         1.41058 
        2.81179         15.1456         1.39026 
        2.82749         14.9563         1.37035 
        2.84321         14.8642         1.35081 
        2.85893         14.7202         1.33165 
        2.87462         14.5753         1.31289 
        2.89033         14.4135         1.29447 
        2.90605         14.2972         1.27639 
        2.92176          14.138         1.25866 
        2.93747         14.0593         1.24126 
        2.95318         13.9502          1.2242 
        2.96891         13.7494         1.20744 
        2.98456         13.6583         1.19106 
        3.00023         13.5143         1.17496 
        3.01596         13.3227         1.15911 
        3.03164         13.2909         1.14359 
        3.04738         13.1951         1.12831 
         3.0631          13.056         1.11331 
        3.07883         12.9323         1.09858 
        3.09456         12.7889         1.08411 
        3.11026         12.7048         1.06992 
        3.12596         12.5274         1.05599 
        3.14163         12.4484         1.04234 
        3.15734         12.3851         1.02889 
        3.17308         12.2095         1.01564 
        3.18879         12.0864         1.00266 
        3.20447         12.0347        0.989928 
         3.2202         11.8733        0.977372 
         3.2359         11.7885        0.965054 
        3.25157          11.676        0.952975 
        3.26729         11.6109        0.941064 
        3.28304         11.5054        0.929331 
        3.29877         11.4125        0.917812 
        3.31446         11.3107        0.906511 
        3.33014         11.1786        0.895408 
        3.34585          11.134        0.884473 
        3.36158         11.0268        0.873701 
        3.37727         10.9327        0.863141 
        3.39294         10.8473        0.852763 
        3.40867          10.737        0.842517 
        3.42439         10.6227        0.832443 
        3.44008         10.5341        0.822552 
        3.45578         10.4702        0.812812 
        3.47153         10.3703        0.803207 
        3.48724         10.2824        0.793772 
        3.50292         10.2003        0.784509 
        3.51859         10.1067        0.775397 
        3.53431         10.0515          0.7664 
        3.55007         9.95291        0.757522 
        3.56577         9.83725        0.748818 
        3.58146         9.76224        0.740254 
        3.59719         9.70091        0.731802 
        3.61292         9.63012        0.723483 
        3.62859         9.49362        0.715324 
        3.64429         9.47323        0.707274 
        3.66003         9.34776        0.699322 
        3.67578         9.31032        0.691493 
        3.69146          9.2339        0.683813 
        3.70712          9.1033        0.676262 
        3.72284         9.06261        0.668796 
        3.73853         8.99314        0.661454 
        3.75422         8.89016        0.654219 
        3.76993         8.82996        0.647084 
        3.78564         8.76998        0.640058 
        3.80137         8.68848        0.633123 
        3.81707         8.58524        0.626305 
        3.83279         8.55989         0.61958 
        3.84853         8.47392        0.612943 
        3.86424         8.39682        0.606414 
        3.87992          8.3237        0.599989 
        3.89561         8.26096        0.593656 
        3.91134         8.18221        0.587401 
        3.92704         8.12761        0.581242 
        3.94273         8.07446        0.575176 
        3.95845         7.99774        0.569185 
        3.97418          7.9288        0.563277 
        3.98988         7.86603         0.55746 
        4.00554         7.79133         0.55174 
        4.02125         7.74955        0.546084 
        4.03698         7.66148        0.540496 
        4.05268         7.64094        0.534999 
        4.06839         7.54623        0.529574 
         4.0841         7.49716        0.524225 
        4.09983         7.42127        0.518941 
        4.11555         7.38302        0.513731 
        4.13124          7.2949        0.508607 
        4.14693         7.26009        0.503547 
        4.16266         7.17501        0.498544 
        4.17839         7.14034         0.49361 
        4.19408         7.07864        0.488755 
        4.20977         7.00148        0.483961 
        4.22551         6.96288         0.47922 
        4.24123         6.90362        0.474547 
        4.25691         6.84417        0.469948 
        4.27259         6.78925        0.465407 
        4.28831         6.73484        0.460917 
        4.30404         6.68338        0.456481 
        4.31974         6.63045        0.452113 
        4.33543         6.58477        0.447804 
        4.35116         6.52367         0.44354 
        4.36688         6.48228        0.439332 
        4.38255         6.41738        0.435195 
        4.39825         6.37103        0.431101 
        4.41398          6.3297         0.42705 
         4.4297         6.27535        0.423056 
        4.44541         6.22061        0.419113 
        4.46111         6.16767        0.415223 
        4.47683          6.1187        0.411378 
        4.49251         6.08282         0.40759 
        4.50819         6.02025         0.40385 
         4.5239          5.9783        0.400151 
        4.53962         5.93033        0.396493 
        4.55535         5.89763        0.392879 
        4.57106         5.86091        0.389314 
        4.58678         5.79788        0.385792 
         4.6025         5.75549        0.382313 
        4.61821         5.70925        0.378877 
        4.63391         5.66219        0.375487 
         4.6496         5.62696        0.372139 
        4.66532         5.59809        0.368827 
        4.68103         5.54357        0.365555 
        4.69673         5.50678        0.362327 
        4.71241         5.46394         0.35914 
        4.72811         5.41897        0.355985 
        4.74384         5.38092        0.352864 
        4.75955         5.34701        0.349785 
        4.77525         5.30956        0.346744 
        4.79096         5.26785        0.343735 
        4.80669         5.23451         0.34076 
         4.8224         5.18822        0.337823 
        4.83809         5.16236        0.334924 
        4.85379         5.13035        0.332056 
         4.8695         5.08732        0.329219 
        4.88521         5.04889        0.326417 
        4.90093         5.01299        0.323646 
        4.91663         4.97246        0.320909 
        4.93234         4.94035        0.318201 
        4.94807         4.90483        0.315522 
        4.96377           4.868        0.312878 
        4.97943         4.83349         0.31027 
        4.99514          4.7901        0.307685 
        5.01086         4.76001        0.305127 
        5.02654         4.72834        0.302604 
        5.04227         4.69079        0.300102 
          5.058         4.65447        0.297626 
        5.07371          4.6283        0.295184 
        5.08942         4.59401        0.292767 
        5.10513          4.5587        0.290378 
        5.12084         4.51795        0.288014 
        5.13656         4.49628        0.285676 
        5.15225         4.46373        0.283368 
        5.16796         4.43573        0.281081 
        5.18369         4.39935        0.278817 
         5.1994          4.3791        0.276582 
        5.21509         4.34058        0.274373 
        5.23079         4.30734        0.272186 
        5.24649         4.27378        0.270024 
        5.26217         4.25753        0.267886 
        5.27788         4.22112        0.265769 
        5.29359         4.18769        0.263673 
        5.30933         4.15919        0.261597 
        5.32504         4.13457        0.259547 
        5.34073         4.10295         0.25752 
        5.35646         4.07707        0.255511 
        5.37218         4.06063        0.253523 
        5.38789         4.03355        0.251559 
        5.40357         3.99895        0.249618 
        5.41929         3.97696        0.247692 
        5.43502         3.93737        0.245787 
         5.4507         3.91544        0.243906 
        5.46639         3.88509        0.242044 
        5.48212         3.86429        0.240197 
        5.49786         3.83767        0.238367 
        5.51353         3.81805        0.236564 
        5.52921         3.78347        0.234779 
        5.54495         3.77417        0.233006 
        5.56066         3.74165        0.231253 
        5.57637         3.72335        0.229519 
        5.59207         3.69226        0.227804 
        5.60778         3.66899        0.226105 
        5.62346         3.64364        0.224426 
        5.63916         3.62527        0.222762 
        5.65487         3.59716        0.221114 
         5.6706         3.56944         0.21948 
        5.68633         3.54944        0.217862 
        5.70203         3.53456        0.216264 
        5.71773         3.50446        0.214682 
        5.73344         3.48681        0.213115 
        5.74916         3.46138        0.211561 
        5.76486         3.44033        0.210025 
        5.78054         3.41345        0.208507 
        5.79626         3.39988        0.206999 
          5.812         3.37518        0.205504 
         5.8277          3.3468        0.204029 
        5.84339         3.33648        0.202567 
        5.85911         3.30987        0.201117 
        5.87484         3.28836        0.199682 
        5.89053         3.26902        0.198263 
        5.90623         3.25097        0.196857 
        5.92195         3.23495        0.195462 
        5.93767         3.21223        0.194081 
        5.95336         3.19734        0.192716 
        5.96905         3.17392        0.191364 
        5.98476         3.15237        0.190023 
        6.00048         3.13668        0.188694 
        6.01617         3.11816         0.18738 
        6.03185         3.09407         0.18608 
        6.04756         3.07661        0.184789 
        6.06331         3.05489        0.183507 
        6.07903         3.04113         0.18224 
        6.09473         3.02536        0.180986 
        6.11044          2.9993        0.179742 
        6.12616          2.9854         0.17851 
        6.14186         2.97205        0.177291 
        6.15755         2.95081        0.176083 
        6.17326         2.92998        0.174886 
        6.18898         2.91547        0.173698 
        6.20467         2.89925        0.172524 
        6.22036         2.88648        0.171361 
         6.2361         2.86211        0.170205 
         6.2518          2.8471        0.169062 
        6.26748         2.82818        0.167931 
        6.28319         2.81053        0.166808 
        6.29893         2.79613        0.165694 
        6.31463         2.78265        0.164591 
        6.33033         2.76591        0.163499 
        6.34604          2.7464        0.162416 
        6.36177         2.73714        0.161342 
        6.37747         2.71867         0.16028 
