# k  (h/Mpc)    Pcb(k)  (Mpc/h)^3    Pcb_linear(k) (Mpc/h)^3   ShotnoiseSubtracted = true
      0.0200456         296.319          299.49 
      0.0350414         194.964          192.46 
      0.0492313         132.067         131.368 
      0.0637834          105.77         106.368 
      0.0800726          80.068         80.5635 
       0.096163          56.335         55.5748 
       0.111083         44.4736         43.8736 
       0.126058         38.5919         38.7835 
       0.142273         31.5485         31.7075 
       0.158546         24.4026         24.2643 
        0.17375         20.6937         20.5055 
       0.188953          18.559         18.5487 
       0.204907         15.8024         15.9905 
       0.220756         13.2854         13.2363 
        0.23588         11.5673          11.538 
         0.2514         10.4932         10.4847 
       0.267535         9.34861         9.32227 
       0.283568         8.12277         8.08922 
       0.299022         7.23416         7.19879 
       0.314451         6.66872         6.57828 
       0.330372         6.00671         5.96886 
       0.346141         5.39291         5.35378 
       0.361624         4.87484         4.84898 
       0.377134         4.46469         4.45558 
       0.392932         4.17472         4.09513 
       0.408854         3.75953         3.74285 
       0.424564         3.49769         3.43446 
       0.440253         3.20687         3.17621 
       0.455999         2.94895         2.94554 
       0.471626          2.7342         2.73049 
        0.48727         2.57183         2.53417 
       0.502856          2.4025         2.36211 
       0.518488         2.21164         2.20702 
       0.534347         2.05613         2.06175 
       0.550082         1.94943         1.92888 
       0.565732         1.84591         1.80941 
       0.581496         1.71959          1.6999 
       0.597222           1.616         1.59928 
       0.612804         1.51853          1.5069 
       0.628434         1.43551          1.4217 
       0.644267         1.36046         1.34235 
       0.660051         1.28612         1.26923 
       0.675724         1.20993         1.20191 
       0.691403         1.14896         1.13937 
       0.707174          1.0891         1.08089 
       0.722871         1.05101          1.0267 
        0.73838        0.982123        0.976766 
       0.754018        0.934268        0.929747 
       0.769845        0.883341        0.885283 
        0.78569        0.851451         0.84366 
       0.801365        0.813654          0.8051 
       0.817031        0.778015        0.768958 
       0.832809        0.738344         0.73479 
       0.848511        0.708053        0.702837 
       0.864097        0.680608        0.672988 
       0.879701        0.655801        0.644832 
       0.895507        0.619965        0.617943 
       0.911279        0.598733        0.592633 
        0.92691        0.578816        0.568938 
       0.942635        0.548461        0.546399 
       0.958396        0.529525        0.525025 
       0.974128         0.50952        0.504824 
       0.989692          0.4896        0.485877 
        1.00528        0.468551        0.467867 
        1.02113        0.455857        0.450482 
        1.03692        0.440997        0.434038 
        1.05264        0.420917        0.418484 
        1.06832        0.407224        0.403711 
        1.08405        0.390416        0.389607 
        1.09979        0.378858        0.376164 
        1.11537        0.363654        0.363483 
        1.13105        0.349714        0.351307 
        1.14679         0.34086        0.339638 
        1.16256        0.330211        0.328472 
        1.17828        0.319874        0.317842 
        1.19395        0.309457        0.307713 
         1.2097        0.298244        0.297972 
        1.22537        0.287811        0.288696 
          1.241        0.279467         0.27984 
        1.25666        0.272555        0.271331 
        1.27241         0.26293        0.263133 
        1.28819        0.254122        0.255257 
        1.30392        0.247796        0.247724 
        1.31957        0.239669        0.240526 
        1.33529        0.233154        0.233585 
        1.35108        0.225552        0.226889 
        1.36674        0.219616        0.220501 
         1.3824        0.213859        0.214362 
        1.39811        0.206438        0.208435 
        1.41389        0.201707        0.202708 
        1.42964        0.196057        0.197204 
        1.44531        0.190018        0.191929 
        1.46101        0.184414        0.186835 
        1.47667        0.180078        0.181939 
        1.49229        0.175018         0.17723 
        1.50793         0.17087        0.172681 
        1.52367        0.165726        0.168261 
        1.53953         0.16107        0.163965 
        1.55526        0.157251        0.159852 
        1.57092         0.15424        0.155895 
        1.58662        0.150154        0.152062 
        1.60235        0.146267         0.14835 
        1.61809        0.141837        0.144758 
        1.63369        0.138193        0.141316 
        1.64941        0.135272        0.137961 
        1.66519        0.132425        0.134701 
        1.68085        0.128375        0.131569 
        1.69652        0.125663        0.128535 
        1.71228        0.122307        0.125579 
        1.72806        0.120038        0.122712 
        1.74368         0.11692        0.119962 
        1.75933        0.114474        0.117291 
        1.77505        0.112029        0.114688 
        1.79081        0.108843        0.112159 
         1.8065        0.106986        0.109715 
        1.82218        0.103887        0.107347 
        1.83797        0.101275        0.105031 
        1.85367       0.0994975        0.102796 
        1.86928       0.0968379        0.100638 
        1.88497       0.0947686       0.0985307 
        1.90073       0.0927016        0.096475 
        1.91647       0.0910948       0.0944793 
        1.93218        0.089552       0.0925437 
        1.94787       0.0867832       0.0906647 
        1.96363        0.085211         0.08883 
        1.97935       0.0833188       0.0870493 
        1.99499       0.0816404        0.085327 
        2.01064       0.0798803       0.0836485 
         2.0264       0.0785743       0.0820041 
        2.04216       0.0765214       0.0804043 
        2.05781       0.0749656       0.0788569 
        2.07353       0.0736222       0.0773443 
        2.08928       0.0723152       0.0758677 
        2.10499       0.0705395       0.0744332 
        2.12065       0.0693137       0.0730398 
        2.13633       0.0678761       0.0716806 
        2.15211       0.0667954       0.0703468 
        2.16785        0.065114       0.0690504 
        2.18349       0.0639933       0.0677944 
        2.19916        0.062484       0.0665667 
        2.21489       0.0612896       0.0653651 
        2.23063         0.06035       0.0641921 
         2.2463       0.0591796       0.0630529 
        2.26194       0.0580824       0.0619438 
        2.27765       0.0570628       0.0608555 
        2.29341       0.0557642       0.0597903 
        2.30914       0.0548078       0.0587525 
        2.32486       0.0537399       0.0577397 
        2.34061       0.0527827       0.0567488 
        2.35635       0.0518934       0.0557819 
        2.37203       0.0512668       0.0548406 
        2.38768        0.050246       0.0539228 
        2.40339       0.0492321       0.0530224 
        2.41914       0.0483356       0.0521403 
        2.43483       0.0475577       0.0512812 
         2.4505       0.0466013       0.0504427 
        2.46622       0.0457781       0.0496199 
        2.48195        0.045033       0.0488152 
        2.49759       0.0442216       0.0480325 
        2.51328        0.043148       0.0472647 
        2.52906       0.0427182       0.0465087 
        2.54479       0.0419339       0.0457718 
        2.56049        0.041182       0.0450522 
        2.57618       0.0406655       0.0443486 
        2.59189        0.039752       0.0436587 
        2.60758       0.0393213       0.0429845 
        2.62325       0.0384266       0.0423252 
        2.63898       0.0379834       0.0416773 
        2.65468       0.0371915       0.0410442 
        2.67044         0.03664       0.0404213 
        2.68618       0.0359966       0.0398128 
        2.70184       0.0356256        0.039219 
        2.71755       0.0349654       0.0386358 
        2.73329       0.0343881       0.0380634 
        2.74897       0.0338612       0.0375043 
        2.76462       0.0332099       0.0369576 
        2.78034       0.0327655       0.0364194 
        2.79607         0.03234       0.0358913 
        2.81179       0.0316635       0.0353741 
        2.82749       0.0312952       0.0348677 
        2.84321       0.0307868       0.0343704 
        2.85893       0.0302601       0.0338829 
        2.87462       0.0299124       0.0334056 
        2.89033       0.0293989        0.032937 
        2.90605       0.0289675       0.0324768 
        2.92176       0.0286112       0.0320256 
        2.93747       0.0280601       0.0315831 
        2.95318       0.0278152       0.0311488 
        2.96891       0.0273157       0.0307224 
        2.98456       0.0269171       0.0303058 
        3.00023       0.0265899       0.0298962 
        3.01596       0.0260748       0.0294928 
        3.03164        0.025731       0.0290979 
        3.04738       0.0254051       0.0287091 
         3.0631       0.0248816       0.0283274 
        3.07883       0.0246718       0.0279525 
        3.09456        0.024357       0.0275844 
        3.11026       0.0239386       0.0272235 
        3.12596       0.0237627        0.026869 
        3.14163       0.0233457       0.0265215 
        3.15734       0.0230756       0.0261793 
        3.17308       0.0227571       0.0258423 
        3.18879       0.0224253       0.0255121 
        3.20447        0.022083        0.025188 
         3.2202       0.0218443       0.0248686 
         3.2359       0.0215966       0.0245551 
        3.25157       0.0212518       0.0242478 
        3.26729       0.0209998       0.0239447 
        3.28304       0.0207697       0.0236462 
        3.29877       0.0204951       0.0233531 
        3.31446       0.0201658       0.0230656 
        3.33014       0.0200626       0.0227831 
        3.34585       0.0197083       0.0225048 
        3.36158       0.0194393       0.0222307 
        3.37727       0.0191762        0.021962 
        3.39294       0.0189788        0.021698 
        3.40867       0.0187915       0.0214373 
        3.42439       0.0185702       0.0211809 
        3.44008        0.018375       0.0209293 
        3.45578       0.0181753       0.0206814 
        3.47153        0.017946        0.020437 
        3.48724       0.0177137        0.020197 
        3.50292       0.0176062       0.0199613 
        3.51859       0.0173657       0.0197295 
        3.53431       0.0171045       0.0195005 
        3.55007       0.0169599       0.0192746 
        3.56577       0.0168022       0.0190532 
        3.58146       0.0165832       0.0188352 
        3.59719       0.0164303       0.0186202 
        3.61292       0.0162189       0.0184085 
        3.62859       0.0160091       0.0182009 
        3.64429       0.0159165       0.0179961 
        3.66003       0.0157629       0.0177938 
        3.67578       0.0155825       0.0175946 
        3.69146       0.0154632       0.0173991 
        3.70712       0.0153068        0.017207 
        3.72284       0.0151209        0.017017 
        3.73853        0.015024       0.0168302 
        3.75422       0.0147992       0.0166461 
        3.76993       0.0147243       0.0164646 
        3.78564       0.0145587       0.0162858 
        3.80137       0.0144334       0.0161094 
        3.81707        0.014271       0.0159359 
        3.83279       0.0141502       0.0157648 
        3.84853       0.0140206       0.0155959 
        3.86424       0.0139496       0.0154298 
        3.87992       0.0138089       0.0152663 
        3.89561       0.0136201       0.0151052 
        3.91134       0.0135538        0.014946 
        3.92704       0.0134005       0.0147893 
        3.94273       0.0132525        0.014635 
        3.95845       0.0131631       0.0144825 
        3.97418       0.0130291       0.0143322 
        3.98988       0.0128498       0.0141842 
        4.00554        0.012761       0.0140387 
        4.02125       0.0125748       0.0138947 
        4.03698       0.0124045       0.0137526 
        4.05268       0.0122456       0.0136127 
        4.06839       0.0120673       0.0134746 
         4.0841       0.0118921       0.0133385 
        4.09983       0.0117103       0.0132041 
        4.11555       0.0115601       0.0130715 
        4.13124       0.0113855       0.0129411 
        4.14693       0.0112702       0.0128124 
        4.16266       0.0110962       0.0126851 
        4.17839       0.0109501       0.0125596 
        4.19408       0.0107921        0.012436 
        4.20977       0.0106596       0.0123141 
        4.22551       0.0105427       0.0121934 
        4.24123       0.0104156       0.0120745 
        4.25691       0.0102909       0.0119575 
        4.27259       0.0101845        0.011842 
        4.28831        0.010086       0.0117277 
        4.30404      0.00997333       0.0116149 
        4.31974      0.00988372       0.0115037 
        4.33543      0.00979005       0.0113941 
        4.35116      0.00967959       0.0112856 
        4.36688      0.00967653       0.0111785 
        4.38255       0.0095397       0.0110732 
        4.39825      0.00953151       0.0109691 
        4.41398      0.00945122        0.010866 
         4.4297      0.00938143       0.0107644 
        4.44541      0.00932456        0.010664 
        4.46111      0.00925334       0.0105651 
        4.47683      0.00924978       0.0104672 
        4.49251      0.00920527       0.0103709 
        4.50819      0.00918102       0.0102757 
         4.5239      0.00913326       0.0101816 
        4.53962      0.00910394       0.0100885 
        4.55535      0.00908861      0.00999653 
        4.57106      0.00910992      0.00990583 
        4.58678      0.00905057      0.00981622 
         4.6025       0.0090733      0.00972769 
        4.61821      0.00908685      0.00964026 
        4.63391      0.00907589        0.009554 
         4.6496       0.0090693      0.00946882 
        4.66532      0.00906556      0.00938454 
        4.68103      0.00911753      0.00930131 
        4.69673      0.00913225      0.00921915 
        4.71241      0.00916336      0.00913806 
        4.72811      0.00918233       0.0090578 
        4.74384      0.00921436       0.0089784 
        4.75955      0.00924745      0.00890005 
        4.77525      0.00933141      0.00882267 
        4.79096      0.00938161      0.00874611 
        4.80669      0.00944526      0.00867041 
         4.8224      0.00950806      0.00859569 
        4.83809      0.00954369      0.00852191 
        4.85379      0.00970108      0.00844894 
         4.8695      0.00968735      0.00837676 
        4.88521      0.00978212      0.00830545 
        4.90093      0.00986165      0.00823494 
        4.91663      0.00995009      0.00816531 
        4.93234       0.0100572       0.0080964 
        4.94807       0.0101655      0.00802824 
        4.96377       0.0102801      0.00796097 
        4.97943       0.0104519      0.00789461 
        4.99514       0.0105028      0.00782883 
        5.01086       0.0106639      0.00776374 
        5.02654       0.0107711      0.00769955 
        5.04227       0.0108505      0.00763588 
          5.058       0.0110206       0.0075729 
        5.07371       0.0111376      0.00751074 
        5.08942       0.0113263      0.00744927 
        5.10513       0.0114882      0.00738847 
        5.12084       0.0116705      0.00732831 
        5.13656         0.01185      0.00726883 
        5.15225       0.0120331       0.0072101 
        5.16796       0.0121741      0.00715191 
        5.18369       0.0123801      0.00709431 
         5.1994       0.0126013      0.00703744 
        5.21509       0.0128102      0.00698124 
        5.23079       0.0129996      0.00692558 
        5.24649       0.0132598      0.00687057 
        5.26217       0.0134373      0.00681618 
        5.27788       0.0137418       0.0067623 
        5.29359       0.0139148      0.00670899 
        5.30933       0.0141724      0.00665616 
        5.32504       0.0144325      0.00660399 
        5.34073       0.0147228      0.00655243 
        5.35646       0.0150279      0.00650131 
        5.37218       0.0152613      0.00645072 
        5.38789       0.0154817      0.00640074 
        5.40357       0.0159228      0.00635135 
        5.41929       0.0162542      0.00630236 
        5.43502       0.0165061      0.00625388 
         5.4507       0.0168316      0.00620601 
        5.46639       0.0172226      0.00615864 
        5.48212       0.0175443      0.00611164 
        5.49786       0.0179281      0.00606507 
        5.51353       0.0184295      0.00601922 
        5.52921       0.0186067      0.00597378 
        5.54495       0.0191767      0.00592868 
        5.56066       0.0195423      0.00588409 
        5.57637       0.0200608      0.00583995 
        5.59207       0.0204194      0.00579631 
        5.60778       0.0207884      0.00575309 
        5.62346       0.0213707      0.00571036 
        5.63916       0.0218304      0.00566802 
        5.65487       0.0222861      0.00562609 
         5.6706       0.0227784      0.00558453 
        5.68633       0.0233707      0.00554336 
        5.70203       0.0238283      0.00550269 
        5.71773       0.0245664      0.00546244 
        5.73344       0.0249303      0.00542256 
        5.74916       0.0256609      0.00538303 
        5.76486       0.0262968      0.00534395 
        5.78054        0.027048      0.00530531 
        5.79626       0.0274359      0.00526695 
          5.812       0.0282903      0.00522892 
         5.8277        0.028845      0.00519137 
        5.84339       0.0297062      0.00515419 
        5.85911       0.0304596       0.0051173 
        5.87484       0.0311622      0.00508077 
        5.89053       0.0320447      0.00504466 
        5.90623       0.0327861      0.00500889 
        5.92195       0.0336622      0.00497339 
        5.93767       0.0347343      0.00493826 
        5.95336       0.0351089      0.00490352 
        5.96905       0.0362818      0.00486913 
        5.98476       0.0369929      0.00483501 
        6.00048       0.0381551       0.0048012 
        6.01617        0.039252      0.00476776 
        6.03185       0.0401101      0.00473468 
        6.04756       0.0412278      0.00470182 
        6.06331        0.042647      0.00466921 
        6.07903        0.043615      0.00463697 
        6.09473       0.0446746      0.00460506 
        6.11044       0.0461303      0.00457341 
        6.12616       0.0471441      0.00454207 
        6.14186       0.0486717      0.00451105 
        6.15755       0.0497482      0.00448032 
        6.17326        0.051112      0.00444985 
        6.18898       0.0529551      0.00441964 
        6.20467       0.0543783      0.00438976 
        6.22036       0.0559044      0.00436016 
         6.2361       0.0575223      0.00433075 
         6.2518       0.0593621      0.00430166 
        6.26748       0.0601793       0.0042729 
        6.28319       0.0624056      0.00424431 
        6.29893       0.0639831      0.00421596 
        6.31463       0.0662448      0.00418792 
        6.33033       0.0680846      0.00416013 
        6.34604       0.0703396      0.00413258 
        6.36177       0.0715153      0.00410524 
        6.37747       0.0738642       0.0040782 
