# k  (h/Mpc)    Pcb(k)  (Mpc/h)^3    Pcb_linear(k) (Mpc/h)^3   ShotnoiseSubtracted = true
      0.0200456         14053.6         14282.3 
      0.0350414         8928.13         9178.19 
      0.0492313         6237.37         6264.78 
      0.0637834         5215.32         5072.53 
      0.0800726         3961.45         3841.97 
       0.096163         2637.25         2650.29 
       0.111083         2084.89         2092.28 
       0.126058         1907.66         1849.53 
       0.142273            1613         1512.09 
       0.158546          1322.9         1157.14 
        0.17375         1053.88         977.882 
       0.188953         1016.28         884.563 
       0.204907          937.28         762.567 
       0.220756         787.202         631.224 
        0.23588         692.051         550.232 
         0.2514         600.124         500.001 
       0.267535         578.782         444.567 
       0.283568         520.054         385.764 
       0.299022         484.261         343.301 
       0.314451         452.753          313.71 
       0.330372         414.974         284.647 
       0.346141         372.858         255.315 
       0.361624          359.43         231.242 
       0.377134         330.961         212.481 
       0.392932         311.864         195.292 
       0.408854         298.285         178.492 
       0.424564         281.055         163.785 
       0.440253         271.918         151.469 
       0.455999         254.091         140.469 
       0.471626          238.22         130.214 
        0.48727         227.968         120.851 
       0.502856         220.156         112.646 
       0.518488         216.922          105.25 
       0.534347         203.477         98.3222 
       0.550082         190.898         91.9858 
       0.565732         186.578         86.2883 
       0.581496         176.224         81.0662 
       0.597222         171.697         76.2675 
       0.612804         165.765          71.862 
       0.628434         158.957         67.7988 
       0.644267         153.657         64.0152 
       0.660051          151.47          60.528 
       0.675724         147.251         57.3175 
       0.691403         142.688         54.3351 
       0.707174         136.948          51.546 
       0.722871         134.843         48.9619 
        0.73838         131.706         46.5807 
       0.754018         127.979         44.3384 
       0.769845         123.618          42.218 
        0.78569          121.62         40.2331 
       0.801365         117.208         38.3942 
       0.817031          113.53         36.6706 
       0.832809         112.154         35.0412 
       0.848511         108.285         33.5174 
       0.864097         106.719         32.0939 
       0.879701         104.155         30.7512 
       0.895507         101.383         29.4689 
       0.911279         98.8632         28.2619 
        0.92691         98.1507         27.1319 
       0.942635         95.0139         26.0571 
       0.958396         94.7377         25.0378 
       0.974128          92.026         24.0744 
       0.989692         89.8724         23.1708 
        1.00528         87.8586          22.312 
        1.02113          86.966         21.4829 
        1.03692         84.0616         20.6987 
        1.05264         83.1186          19.957 
        1.06832         81.1579         19.2525 
        1.08405         79.7591         18.5799 
        1.09979         79.4046         17.9388 
        1.11537         76.8281          17.334 
        1.13105         76.3252         16.7534 
        1.14679         75.2699         16.1969 
        1.16256         74.0804         15.6644 
        1.17828         72.5896         15.1575 
        1.19395         70.9213         14.6745 
         1.2097         69.6345         14.2099 
        1.22537         69.3793         13.7676 
          1.241         67.9786         13.3452 
        1.25666          66.453         12.9394 
        1.27241         65.3804         12.5485 
        1.28819         64.4063         12.1729 
        1.30392         63.3069         11.8136 
        1.31957         62.7402         11.4704 
        1.33529         61.2514         11.1394 
        1.35108         60.6691           10.82 
        1.36674           60.23         10.5154 
         1.3824         58.8121         10.2227 
        1.39811         57.9874         9.94002 
        1.41389         57.2851         9.66689 
        1.42964         56.2636         9.40441 
        1.44531         55.2598         9.15286 
        1.46101         54.3724         8.90991 
        1.47667         54.4684         8.67643 
        1.49229         53.3775         8.45186 
        1.50793         53.0334         8.23493 
        1.52367         51.8376         8.02415 
        1.53953         51.0632         7.81927 
        1.55526         50.7196         7.62312 
        1.57092          50.388         7.43445 
        1.58662         49.1203         7.25166 
        1.60235         48.8615         7.07461 
        1.61809         48.1478         6.90334 
        1.63369         47.4891          6.7392 
        1.64941         47.1939         6.57918 
        1.66519         45.8494         6.42374 
        1.68085         45.8163         6.27437 
        1.69652         44.8552         6.12967 
        1.71228         44.5811         5.98868 
        1.72806         44.1649         5.85197 
        1.74368         43.4496         5.72086 
        1.75933         42.9035         5.59347 
        1.77505         42.4896         5.46932 
        1.79081          41.982          5.3487 
         1.8065         41.4334         5.23219 
        1.82218         40.9525         5.11923 
        1.83797         40.4608          5.0088 
        1.85367         40.1023          4.9022 
        1.86928         39.3581         4.79932 
        1.88497         39.1616          4.6988 
        1.90073         38.5146         4.60077 
        1.91647         38.3259          4.5056 
        1.93218         37.9627         4.41329 
        1.94787         37.3256         4.32368 
        1.96363         36.8904         4.23619 
        1.97935         36.5334         4.15127 
        1.99499         36.1128         4.06914 
        2.01064         35.7035         3.98909 
         2.0264         34.9572         3.91067 
        2.04216         34.9617         3.83438 
        2.05781         34.4492         3.76058 
        2.07353         33.9623         3.68845 
        2.08928         33.8005         3.61803 
        2.10499         33.2322         3.54963 
        2.12065         32.9021         3.48318 
        2.13633          32.586         3.41835 
        2.15211         32.3894         3.35475 
        2.16785          31.864         3.29292 
        2.18349         31.5224         3.23303 
        2.19916         31.1584         3.17448 
        2.21489         30.9367         3.11718 
        2.23063         30.5007         3.06124 
         2.2463         30.1259         3.00691 
        2.26194         29.6917         2.95402 
        2.27765         29.5241         2.90212 
        2.29341          29.126         2.85132 
        2.30914         28.8086         2.80183 
        2.32486         28.3073         2.75353 
        2.34061         28.2924         2.70628 
        2.35635         27.8752         2.66017 
        2.37203         27.5829         2.61528 
        2.38768         27.3146         2.57151 
        2.40339          27.077         2.52857 
        2.41914         26.7805         2.48651 
        2.43483         26.4614         2.44554 
         2.4505         26.2297         2.40555 
        2.46622         25.9086         2.36631 
        2.48195         25.6958         2.32793 
        2.49759          25.391         2.29061 
        2.51328         25.0895         2.25399 
        2.52906         24.8352         2.21794 
        2.54479         24.5386          2.1828 
        2.56049         24.2736         2.14848 
        2.57618          24.055         2.11493 
        2.59189         23.8073         2.08203 
        2.60758         23.6855         2.04988 
        2.62325         23.3441         2.01844 
        2.63898         23.1181         1.98754 
        2.65468         22.8013         1.95734 
        2.67044         22.6661         1.92764 
        2.68618         22.4424         1.89862 
        2.70184         22.1728          1.8703 
        2.71755         22.0606         1.84249 
        2.73329         21.7679         1.81519 
        2.74897         21.4972         1.78853 
        2.76462          21.277         1.76246 
        2.78034         21.1673          1.7368 
        2.79607         21.0132         1.71161 
        2.81179         20.7654         1.68695 
        2.82749         20.5237         1.66279 
        2.84321         20.3075         1.63908 
        2.85893         20.0812         1.61583 
        2.87462         19.8818         1.59307 
        2.89033         19.7264         1.57072 
        2.90605         19.5627         1.54878 
        2.92176          19.415         1.52726 
        2.93747         19.2125         1.50616 
        2.95318          18.984         1.48545 
        2.96891         18.8022         1.46511 
        2.98456         18.6027         1.44524 
        3.00023         18.3644         1.42571 
        3.01596         18.1982         1.40647 
        3.03164         18.0936         1.38764 
        3.04738         17.8548          1.3691 
         3.0631         17.7084          1.3509 
        3.07883         17.6084         1.33302 
        3.09456         17.3616         1.31547 
        3.11026         17.2367         1.29825 
        3.12596         17.0563         1.28135 
        3.14163         16.8904         1.26478 
        3.15734         16.8088         1.24846 
        3.17308         16.5572         1.23239 
        3.18879          16.488         1.21664 
        3.20447         16.2946         1.20119 
         3.2202            16.1         1.18595 
         3.2359         15.9765           1.171 
        3.25157         15.8475         1.15635 
        3.26729          15.732         1.14189 
        3.28304         15.5113         1.12766 
        3.29877         15.4474         1.11368 
        3.31446         15.2057         1.09997 
        3.33014         15.1136         1.08649 
        3.34585         14.9926         1.07323 
        3.36158         14.8374         1.06016 
        3.37727         14.6902         1.04734 
        3.39294         14.5707         1.03475 
        3.40867         14.4174         1.02232 
        3.42439         14.2917         1.01009 
        3.44008         14.2021         0.99809 
        3.45578         14.0274        0.986272 
        3.47153         13.8809        0.974617 
        3.48724         13.7896        0.963169 
        3.50292         13.7252        0.951929 
        3.51859         13.5579        0.940872 
        3.53431         13.4229        0.929955 
        3.55007         13.2808        0.919183 
        3.56577         13.1499        0.908622 
        3.58146          13.025        0.898229 
        3.59719         12.9307        0.887973 
        3.61292         12.8207         0.87788 
        3.62859         12.6938        0.867979 
        3.64429         12.5959        0.858211 
        3.66003         12.4974        0.848562 
        3.67578         12.3917        0.839063 
        3.69146         12.2926        0.829743 
        3.70712          12.186        0.820581 
        3.72284         12.0455        0.811521 
        3.73853         11.9626        0.802613 
        3.75422         11.8591        0.793833 
        3.76993         11.7271        0.785176 
        3.78564         11.6248        0.776651 
        3.80137         11.5374        0.768236 
        3.81707         11.4396        0.759963 
        3.83279         11.3317        0.751803 
        3.84853          11.209        0.743749 
        3.86424         11.1213        0.735827 
        3.87992         11.0392        0.728031 
        3.89561         10.9181        0.720347 
        3.91134         10.8724        0.712756 
        3.92704         10.7281        0.705283 
        3.94273         10.6463        0.697923 
        3.95845         10.5814        0.690653 
        3.97418         10.4826        0.683484 
        3.98988         10.3998        0.676426 
        4.00554         10.2852        0.669486 
        4.02125         10.2266        0.662622 
        4.03698         10.1195        0.655842 
        4.05268         9.99214        0.649172 
        4.06839         9.94185        0.642589 
         4.0841         9.87791        0.636098 
        4.09983         9.76606        0.629686 
        4.11555         9.72176        0.623365 
        4.13124         9.60851        0.617147 
        4.14693         9.51313        0.611007 
        4.16266         9.43884        0.604936 
        4.17839         9.38352         0.59895 
        4.19408         9.29003        0.593058 
        4.20977         9.22644        0.587242 
        4.22551         9.13248        0.581489 
        4.24123         9.05059        0.575818 
        4.25691         8.96386        0.570238 
        4.27259         8.92154        0.564728 
        4.28831         8.82064         0.55928 
        4.30404         8.75045        0.553898 
        4.31974         8.69483        0.548597 
        4.33543         8.61585        0.543368 
        4.35116         8.55425        0.538194 
        4.36688         8.48365        0.533089 
        4.38255         8.41892        0.528068 
        4.39825         8.35315          0.5231 
        4.41398         8.26639        0.518186 
         4.4297         8.20684        0.513339 
        4.44541         8.15289        0.508555 
        4.46111          8.0823        0.503834 
        4.47683          8.0104        0.499169 
        4.49251         7.94545        0.494573 
        4.50819         7.90642        0.490034 
         4.5239         7.82771        0.485546 
        4.53962         7.76546        0.481107 
        4.55535         7.68751        0.476722 
        4.57106         7.62102        0.472396 
        4.58678         7.56067        0.468123 
         4.6025         7.51178        0.463901 
        4.61821         7.44775        0.459732 
        4.63391          7.3771        0.455618 
         4.6496         7.33415        0.451556 
        4.66532         7.26517        0.447537 
        4.68103         7.20464        0.443568 
        4.69673         7.15684         0.43965 
        4.71241         7.09957        0.435783 
        4.72811         7.05637        0.431955 
        4.74384         6.98885        0.428168 
        4.75955         6.93424        0.424432 
        4.77525         6.89991        0.420742 
        4.79096          6.8226        0.417091 
        4.80669         6.78189        0.413481 
         4.8224         6.75285        0.409917 
        4.83809         6.67219        0.406399 
        4.85379         6.60625        0.402919 
         4.8695         6.58266        0.399477 
        4.88521         6.52758        0.396076 
        4.90093         6.46952        0.392714 
        4.91663         6.41329        0.389393 
        4.93234         6.37855        0.386107 
        4.94807          6.3311        0.382856 
        4.96377         6.28424        0.379649 
        4.97943         6.22715        0.376484 
        4.99514         6.18755        0.373347 
        5.01086         6.14757        0.370243 
        5.02654         6.09633        0.367181 
        5.04227         6.05383        0.364145 
          5.058         6.00416        0.361142 
        5.07371         5.96095        0.358178 
        5.08942         5.92522        0.355246 
        5.10513         5.87644        0.352347 
        5.12084         5.82215        0.349478 
        5.13656         5.78825        0.346641 
        5.15225         5.73725         0.34384 
        5.16796         5.70636        0.341066 
        5.18369         5.65194        0.338319 
         5.1994         5.62212        0.335607 
        5.21509         5.57275        0.332927 
        5.23079         5.53736        0.330272 
        5.24649         5.49061        0.327649 
        5.26217         5.44616        0.325055 
        5.27788         5.41421        0.322486 
        5.29359         5.36624        0.319943 
        5.30933         5.33754        0.317424 
        5.32504         5.29729        0.314936 
        5.34073         5.26545        0.312477 
        5.35646         5.22744        0.310039 
        5.37218         5.20038        0.307627 
        5.38789         5.15099        0.305243 
        5.40357         5.12281        0.302888 
        5.41929         5.07839        0.300551 
        5.43502         5.04576        0.298239 
         5.4507           5.012        0.295957 
        5.46639         4.98106        0.293698 
        5.48212          4.9475        0.291456 
        5.49786         4.91065        0.289236 
        5.51353         4.86764        0.287049 
        5.52921         4.84121        0.284882 
        5.54495         4.81206        0.282731 
        5.56066         4.77885        0.280605 
        5.57637         4.74034          0.2785 
        5.59207         4.70824        0.276419 
        5.60778         4.67979        0.274357 
        5.62346         4.64017         0.27232 
        5.63916         4.61301        0.270301 
        5.65487         4.57792        0.268301 
         5.6706          4.5433        0.266319 
        5.68633         4.52466        0.264356 
        5.70203         4.48217        0.262416 
        5.71773         4.46086        0.260497 
        5.73344         4.42519        0.258595 
        5.74916         4.40013         0.25671 
        5.76486         4.36418        0.254846 
        5.78054         4.34703        0.253004 
        5.79626         4.31182        0.251174 
          5.812         4.28382         0.24936 
         5.8277         4.25489         0.24757 
        5.84339         4.22862        0.245797 
        5.85911          4.1982        0.244037 
        5.87484         4.16435        0.242295 
        5.89053         4.14719        0.240573 
        5.90623         4.11157        0.238867 
        5.92195         4.09665        0.237175 
        5.93767         4.06464        0.235499 
        5.95336         4.03895        0.233843 
        5.96905         4.01175        0.232202 
        5.98476         4.00035        0.230575 
        6.00048         3.96219        0.228963 
        6.01617         3.93928        0.227368 
        6.03185         3.91082        0.225791 
        6.04756         3.88959        0.224224 
        6.06331         3.86152        0.222669 
        6.07903         3.84037        0.221131 
        6.09473          3.8159        0.219609 
        6.11044         3.78605          0.2181 
        6.12616         3.76475        0.216606 
        6.14186         3.73713        0.215126 
        6.15755         3.71725        0.213661 
        6.17326          3.6917        0.212208 
        6.18898         3.67555        0.210767 
        6.20467         3.64892        0.209342 
        6.22036         3.62742        0.207931 
         6.2361         3.60275        0.206528 
         6.2518          3.5831        0.205141 
        6.26748         3.55761        0.203769 
        6.28319         3.53061        0.202406 
        6.29893         3.51076        0.201054 
        6.31463         3.49492        0.199716 
        6.33033         3.47644        0.198391 
        6.34604         3.45218        0.197077 
        6.36177         3.42613        0.195774 
        6.37747         3.41277        0.194484 
