# k  (h/Mpc)    Pcb(k)  (Mpc/h)^3    Pcb_linear(k) (Mpc/h)^3   ShotnoiseSubtracted = true
      0.0200456         19960.2         20323.9 
      0.0350414         12602.9         13060.6 
      0.0492313         8834.26         8914.83 
      0.0637834         7445.15         7218.26 
      0.0800726         5654.44         5467.15 
       0.096163         3754.96         3771.39 
       0.111083         2985.04         2977.33 
       0.126058         2730.96          2631.9 
       0.142273         2319.95         2151.72 
       0.158546         1949.56         1646.61 
        0.17375         1547.95         1391.53 
       0.188953         1503.43         1258.74 
       0.204907         1391.15         1085.14 
       0.220756         1182.56         898.237 
        0.23588            1049         782.985 
         0.2514         905.599         711.506 
       0.267535         887.059         632.623 
       0.283568         798.635         548.946 
       0.299022         750.288          488.52 
       0.314451         708.771         446.411 
       0.330372          648.83         405.056 
       0.346141         597.784         363.315 
       0.361624         575.236         329.059 
       0.377134           530.3         302.362 
       0.392932         505.094         277.902 
       0.408854         489.215         253.995 
       0.424564         453.329         233.068 
       0.440253         445.393         215.542 
       0.455999         418.767         199.889 
       0.471626         400.277         185.295 
        0.48727         381.151         171.972 
       0.502856          369.42         160.296 
       0.518488         364.825         149.772 
       0.534347          340.11         139.913 
       0.550082         324.977         130.897 
       0.565732         322.473         122.789 
       0.581496          301.41         115.358 
       0.597222         296.142         108.529 
       0.612804         288.135          102.26 
       0.628434         276.554         96.4783 
       0.644267         268.625         91.0941 
       0.660051         261.463         86.1319 
       0.675724         256.843         81.5633 
       0.691403         248.141         77.3192 
       0.707174         239.803         73.3505 
       0.722871         235.089         69.6732 
        0.73838         231.668         66.2848 
       0.754018           225.6          63.094 
       0.769845         218.693         60.0766 
        0.78569         217.018          57.252 
       0.801365         208.765         54.6352 
       0.817031         201.847         52.1826 
       0.832809         200.914         49.8639 
       0.848511         194.357         47.6955 
       0.864097         191.366         45.6699 
       0.879701         187.953         43.7592 
       0.895507         183.639         41.9345 
       0.911279          177.68         40.2169 
        0.92691         177.133          38.609 
       0.942635         171.793         37.0795 
       0.958396         169.903          35.629 
       0.974128         165.809         34.2581 
       0.989692         162.693         32.9723 
        1.00528         160.485         31.7501 
        1.02113         157.862         30.5704 
        1.03692         154.752         29.4544 
        1.05264         151.503         28.3989 
        1.06832         148.311         27.3964 
        1.08405         146.378         26.4393 
        1.09979         143.151          25.527 
        1.11537         141.591         24.6665 
        1.13105         137.772         23.8402 
        1.14679          137.35         23.0483 
        1.16256          135.54         22.2906 
        1.17828         132.937         21.5692 
        1.19395         130.391         20.8819 
         1.2097         129.613         20.2208 
        1.22537         126.941         19.5913 
          1.241         125.404         18.9904 
        1.25666         123.446         18.4129 
        1.27241         120.784         17.8566 
        1.28819         119.681         17.3221 
        1.30392         116.421         16.8109 
        1.31957          116.25         16.3224 
        1.33529         113.461         15.8514 
        1.35108         112.034          15.397 
        1.36674         110.702         14.9635 
         1.3824         109.775         14.5469 
        1.39811         108.171         14.1447 
        1.41389         106.307         13.7561 
        1.42964         104.404         13.3825 
        1.44531         102.826         13.0246 
        1.46101         100.855         12.6789 
        1.47667         99.8343         12.3466 
        1.49229         98.4915         12.0271 
        1.50793         97.0997         11.7184 
        1.52367         95.9605         11.4184 
        1.53953         94.1776         11.1269 
        1.55526         93.2118         10.8478 
        1.57092         92.3317         10.5793 
        1.58662         90.9801         10.3192 
        1.60235         89.7155         10.0672 
        1.61809          88.315         9.82351 
        1.63369         86.9444         9.58994 
        1.64941         86.0683         9.36223 
        1.66519         84.8435         9.14103 
        1.68085         84.3997         8.92849 
        1.69652         82.6242         8.72258 
        1.71228         81.9014         8.52194 
        1.72806         80.8831          8.3274 
        1.74368         79.7564         8.14083 
        1.75933         78.8249         7.95955 
        1.77505         77.9038         7.78289 
        1.79081         76.7866         7.61124 
         1.8065         75.6536         7.44545 
        1.82218         74.3856          7.2847 
        1.83797         73.3943         7.12756 
        1.85367         72.9867         6.97587 
        1.86928         71.5622         6.82947 
        1.88497         70.8185         6.68644 
        1.90073         69.9212         6.54694 
        1.91647         69.2476          6.4115 
        1.93218         68.5377         6.28015 
        1.94787         67.5738         6.15264 
        1.96363         66.6323         6.02813 
        1.97935         65.4808         5.90729 
        1.99499         65.1423         5.79042 
        2.01064         64.2473         5.67651 
         2.0264         63.4922         5.56491 
        2.04216         62.7281         5.45635 
        2.05781         61.7089         5.35134 
        2.07353         60.7851         5.24869 
        2.08928         59.9725         5.14849 
        2.10499         59.0173         5.05115 
        2.12065         58.7687         4.95659 
        2.13633         58.0557         4.86435 
        2.15211         57.5656         4.77384 
        2.16785         56.5653         4.68586 
        2.18349         55.9745         4.60063 
        2.19916         55.2685         4.51732 
        2.21489         54.6964         4.43577 
        2.23063         54.1168         4.35617 
         2.2463         52.9897         4.27886 
        2.26194          53.042          4.2036 
        2.27765         52.2428         4.12974 
        2.29341          51.415         4.05746 
        2.30914         51.1053         3.98703 
        2.32486         50.4607          3.9183 
        2.34061         49.8049         3.85106 
        2.35635         48.9337         3.78544 
        2.37203         48.2923         3.72156 
        2.38768         47.7785         3.65928 
        2.40339         47.4397         3.59818 
        2.41914         46.9601         3.53832 
        2.43483         46.5934         3.48002 
         2.4505         46.0492         3.42312 
        2.46622         45.2267         3.36728 
        2.48195         45.0122         3.31267 
        2.49759         44.2009         3.25955 
        2.51328         43.7297         3.20745 
        2.52906         43.4052         3.15615 
        2.54479         42.9615         3.10614 
        2.56049          42.251         3.05731 
        2.57618         42.0685         3.00956 
        2.59189         41.3098         2.96275 
        2.60758         41.0211         2.91699 
        2.62325         40.4558         2.87225 
        2.63898         40.1992         2.82828 
        2.65468         39.7211         2.78532 
        2.67044         39.0578         2.74305 
        2.68618         38.8515         2.70175 
        2.70184         38.2317         2.66146 
        2.71755         37.9643         2.62188 
        2.73329         37.4051         2.58303 
        2.74897         37.1266          2.5451 
        2.76462         36.6728           2.508 
        2.78034         36.2856         2.47148 
        2.79607         35.9044         2.43564 
        2.81179         35.5034         2.40054 
        2.82749         35.0841         2.36617 
        2.84321         34.7685         2.33243 
        2.85893         34.3607         2.29934 
        2.87462         33.9128         2.26695 
        2.89033         33.6078         2.23515 
        2.90605         33.1294         2.20393 
        2.92176         32.8511         2.17331 
        2.93747          32.566         2.14328 
        2.95318         32.2141          2.1138 
        2.96891         31.7664         2.08487 
        2.98456         31.4596         2.05659 
        3.00023         31.0866          2.0288 
        3.01596         30.8739         2.00142 
        3.03164         30.5509         1.97463 
        3.04738         30.3172         1.94824 
         3.0631          29.925         1.92234 
        3.07883         29.5568          1.8969 
        3.09456         29.3037         1.87192 
        3.11026         28.9645         1.84743 
        3.12596         28.7077         1.82337 
        3.14163         28.3005         1.79979 
        3.15734         28.0371         1.77657 
        3.17308         27.9646          1.7537 
        3.18879         27.5855         1.73129 
        3.20447         27.2001          1.7093 
         3.2202         26.9045         1.68762 
         3.2359         26.7947         1.66635 
        3.25157         26.4612         1.64549 
        3.26729         26.0563         1.62492 
        3.28304         25.9131         1.60467 
        3.29877         25.6336         1.58478 
        3.31446          25.339         1.56526 
        3.33014         25.1939         1.54609 
        3.34585         24.8075         1.52721 
        3.36158          24.613         1.50861 
        3.37727         24.3563         1.49038 
        3.39294         24.1914         1.47246 
        3.40867         23.8429         1.45476 
        3.42439         23.6271         1.43737 
        3.44008         23.4893         1.42029 
        3.45578         23.1661         1.40347 
        3.47153         22.9492         1.38689 
        3.48724         22.6799          1.3706 
        3.50292         22.4983          1.3546 
        3.51859         22.2316         1.33887 
        3.53431         22.1021         1.32333 
        3.55007         21.8186           1.308 
        3.56577         21.6592         1.29298 
        3.58146          21.421         1.27819 
        3.59719         21.2385         1.26359 
        3.61292         21.0215         1.24923 
        3.62859         20.8048         1.23514 
        3.64429         20.6531         1.22124 
        3.66003         20.3376         1.20751 
        3.67578         20.1603         1.19399 
        3.69146         20.0213         1.18073 
        3.70712          19.891         1.16769 
        3.72284         19.7266          1.1548 
        3.73853         19.4789         1.14212 
        3.75422         19.3258         1.12963 
        3.76993         19.0571         1.11731 
        3.78564         18.9411         1.10518 
        3.80137         18.7939         1.09321 
        3.81707         18.6373         1.08143 
        3.83279         18.3536         1.06982 
        3.84853         18.2334         1.05836 
        3.86424         18.0881         1.04709 
        3.87992         17.8577         1.03599 
        3.89561         17.7666         1.02506 
        3.91134         17.5772         1.01426 
        3.92704         17.4376         1.00362 
        3.94273         17.2299         0.99315 
        3.95845         17.0742        0.982805 
        3.97418         16.8988        0.972604 
        3.98988          16.703         0.96256 
        4.00554          16.656        0.952684 
        4.02125          16.443        0.942916 
        4.03698         16.3383        0.933269 
        4.05268         16.1452        0.923777 
        4.06839         16.0276        0.914409 
         4.0841         15.9207        0.905172 
        4.09983         15.7501        0.896049 
        4.11555         15.6119        0.887054 
        4.13124         15.4604        0.878205 
        4.14693         15.2784        0.869468 
        4.16266         15.1805        0.860829 
        4.17839         15.0436        0.852311 
        4.19408         14.8753        0.843927 
        4.20977         14.7524         0.83565 
        4.22551         14.7082        0.827464 
        4.24123         14.5071        0.819394 
        4.25691         14.3411        0.811453 
        4.27259           14.25        0.803613 
        4.28831         14.1568         0.79586 
        4.30404         14.0496        0.788201 
        4.31974         13.9049        0.780659 
        4.33543         13.7935        0.773218 
        4.35116         13.6643        0.765855 
        4.36688         13.5506         0.75859 
        4.38255         13.4086        0.751445 
        4.39825         13.3501        0.744376 
        4.41398         13.2207        0.737383 
         4.4297          13.104        0.730486 
        4.44541         12.9633        0.723678 
        4.46111         12.8919         0.71696 
        4.47683         12.7385        0.710322 
        4.49251         12.6898        0.703781 
        4.50819         12.5505        0.697323 
         4.5239         12.4268        0.690936 
        4.53962         12.3088         0.68462 
        4.55535         12.2345        0.678379 
        4.57106         12.0997        0.672224 
        4.58678         12.0512        0.666143 
         4.6025         11.9373        0.660136 
        4.61821         11.8287        0.654202 
        4.63391         11.7287        0.648348 
         4.6496         11.6254        0.642568 
        4.66532         11.5231        0.636848 
        4.68103         11.4439          0.6312 
        4.69673         11.3392        0.625625 
        4.71241         11.2658        0.620122 
        4.72811         11.1614        0.614676 
        4.74384         11.0712        0.609287 
        4.75955         10.9772         0.60397 
        4.77525         10.9007        0.598719 
        4.79096         10.8278        0.593524 
        4.80669         10.7653        0.588387 
         4.8224         10.6354        0.583316 
        4.83809         10.5454        0.578309 
        4.85379         10.4841        0.573358 
         4.8695         10.3757        0.568459 
        4.88521         10.3198         0.56362 
        4.90093         10.2045        0.558835 
        4.91663         10.1532         0.55411 
        4.93234         10.0549        0.549434 
        4.94807         9.97613        0.544808 
        4.96377         9.91005        0.540243 
        4.97943         9.83702         0.53574 
        4.99514         9.75294        0.531276 
        5.01086         9.68408        0.526859 
        5.02654          9.6025        0.522502 
        5.04227         9.53653        0.518182 
          5.058         9.43646        0.513908 
        5.07371         9.37925         0.50969 
        5.08942         9.31676        0.505518 
        5.10513         9.22522        0.501392 
        5.12084         9.16924         0.49731 
        5.13656         9.12058        0.493273 
        5.15225         9.02519        0.489288 
        5.16796         8.96791        0.485339 
        5.18369         8.90502         0.48143 
         5.1994         8.83187        0.477571 
        5.21509         8.75964        0.473757 
        5.23079         8.69023         0.46998 
        5.24649         8.62024        0.466247 
        5.26217         8.56393        0.462556 
        5.27788          8.4919          0.4589 
        5.29359         8.43006        0.455282 
        5.30933         8.37857        0.451697 
        5.32504         8.32604        0.448156 
        5.34073         8.26043        0.444657 
        5.35646         8.18122        0.441188 
        5.37218         8.12223        0.437755 
        5.38789         8.05946        0.434364 
        5.40357          8.0142        0.431012 
        5.41929         7.94613        0.427687 
        5.43502          7.8852        0.424397 
         5.4507         7.84351        0.421149 
        5.46639          7.7587        0.417934 
        5.48212         7.71691        0.414745 
        5.49786         7.67301        0.411585 
        5.51353         7.60283        0.408473 
        5.52921          7.5549         0.40539 
        5.54495         7.51067        0.402329 
        5.56066         7.43515        0.399303 
        5.57637         7.38939        0.396308 
        5.59207          7.3243        0.393346 
        5.60778         7.28174        0.390413 
        5.62346          7.2245        0.387513 
        5.63916         7.17324         0.38464 
        5.65487         7.11808        0.381795 
         5.6706         7.06603        0.378974 
        5.68633         7.02408        0.376181 
        5.70203         6.98037        0.373421 
        5.71773         6.92565        0.370689 
        5.73344         6.87536        0.367982 
        5.74916         6.83688          0.3653 
        5.76486         6.78971        0.362648 
        5.78054         6.74742        0.360026 
        5.79626         6.68588        0.357423 
          5.812         6.64614        0.354842 
         5.8277         6.60093        0.352294 
        5.84339         6.54706        0.349771 
        5.85911         6.49633        0.347267 
        5.87484         6.46788        0.344788 
        5.89053         6.42526        0.342338 
        5.90623         6.37719         0.33991 
        5.92195         6.33662        0.337502 
        5.93767         6.29012        0.335118 
        5.95336         6.24926         0.33276 
        5.96905         6.20859        0.330426 
        5.98476         6.16194        0.328111 
        6.00048         6.12813        0.325817 
        6.01617         6.08213        0.323547 
        6.03185         6.03258        0.321302 
        6.04756         5.99564        0.319072 
        6.06331         5.96851        0.316859 
        6.07903         5.92553        0.314671 
        6.09473         5.89174        0.312506 
        6.11044         5.83455        0.310359 
        6.12616         5.80617        0.308232 
        6.14186          5.7626        0.306126 
        6.15755         5.72453        0.304041 
        6.17326         5.68756        0.301973 
        6.18898         5.66677        0.299923 
        6.20467         5.61512        0.297896 
        6.22036         5.57404        0.295887 
         6.2361         5.53651        0.293891 
         6.2518         5.50415        0.291917 
        6.26748         5.46661        0.289965 
        6.28319         5.43645        0.288025 
        6.29893         5.40972        0.286101 
        6.31463         5.35742        0.284198 
        6.33033          5.3206        0.282313 
        6.34604         5.28967        0.280443 
        6.36177          5.2559        0.278588 
        6.37747         5.22127        0.276753 
