# k  (h/Mpc)    Pcb(k)  (Mpc/h)^3    Pcb_linear(k) (Mpc/h)^3   ShotnoiseSubtracted = true
      0.0200456         23681.6           24264 
      0.0350414         16780.2         17639.1 
      0.0492313         12514.1         12816.3 
      0.0637834         10857.7           10654 
      0.0800726          8562.4         8455.85 
       0.096163         5930.08         6135.46 
       0.111083         4780.39          4893.8 
       0.126058         4397.55          4336.9 
       0.142273         3809.97         3674.31 
       0.158546         3361.02         2901.93 
        0.17375         2693.24         2444.88 
       0.188953         2637.49         2213.78 
       0.204907         2478.07         1958.74 
       0.220756         2153.84         1657.22 
        0.23588         1932.12         1441.63 
         0.2514         1685.43         1309.71 
       0.267535         1689.42         1185.06 
       0.283568         1532.71         1045.07 
       0.299022          1453.6           931.1 
       0.314451          1385.8         850.963 
       0.330372         1269.98         780.663 
       0.346141         1228.35          708.57 
       0.361624         1180.97         643.993 
       0.377134         1102.14         592.576 
       0.392932         1056.16         548.298 
       0.408854         1040.42         505.425 
       0.424564         959.973         465.858 
       0.440253          942.51         431.904 
       0.455999         916.309          402.38 
       0.471626          883.81         375.248 
        0.48727         847.996         349.867 
       0.502856         822.689         327.066 
       0.518488         817.207         306.722 
       0.534347         767.318         287.809 
       0.550082         751.596          270.37 
       0.565732         745.665         254.416 
       0.581496         707.081         239.805 
       0.597222         692.123         226.404 
       0.612804         681.881         214.082 
       0.628434         663.439         202.596 
       0.644267          646.64         191.858 
       0.660051         629.874         181.962 
       0.675724         622.828         172.823 
       0.691403         603.141         164.305 
       0.707174         583.888         156.313 
       0.722871         575.954         148.884 
        0.73838           565.2         142.017 
       0.754018         554.829         135.532 
       0.769845         545.644         129.381 
        0.78569         535.396         123.607 
       0.801365          521.96         118.242 
       0.817031         509.805         113.201 
       0.832809         504.852         108.423 
       0.848511         494.119         103.944 
       0.864097         478.808         99.7496 
       0.879701         472.581         95.7839 
       0.895507         470.931         91.9881 
       0.911279         458.566         88.4067 
        0.92691         452.186         85.0466 
       0.942635         440.432         81.8434 
       0.958396         429.742         78.7991 
       0.974128         424.463         75.9158 
       0.989692          422.22         73.2059 
        1.00528         409.346         70.6249 
        1.02113         407.524         68.1283 
        1.03692         396.537         65.7622 
        1.05264          393.23         63.5198 
        1.06832         382.748         61.3858 
        1.08405         378.294         59.3447 
        1.09979          372.62         57.3954 
        1.11537         365.631         55.5534 
        1.13105         360.194         53.7816 
        1.14679         350.399         52.0805 
        1.16256         343.672           50.45 
        1.17828         343.596         48.8948 
        1.19395         335.449         47.4107 
         1.2097           328.8         45.9809 
        1.22537         322.868         44.6172 
          1.241         318.951         43.3131 
        1.25666         314.751          42.058 
        1.27241         309.711          40.847 
        1.28819         304.423         39.6817 
        1.30392         298.321         38.5655 
        1.31957         296.434         37.4973 
        1.33529         291.955         36.4658 
        1.35108          285.69         35.4691 
        1.36674         280.759         34.5169 
         1.3824         278.895         33.6006 
        1.39811         273.967         32.7147 
        1.41389         271.015         31.8574 
        1.42964         267.654         31.0323 
        1.44531          263.88         30.2406 
        1.46101          258.55         29.4749 
        1.47667           255.7         28.7381 
        1.49229         252.795         28.0285 
        1.50793         246.546         27.3421 
        1.52367         245.383         26.6743 
        1.53953         241.196         26.0245 
        1.55526         237.339         25.4015 
        1.57092         235.133         24.8015 
        1.58662         232.535         24.2195 
        1.60235         228.337         23.6552 
        1.61809         225.633         23.1085 
        1.63369         222.992          22.584 
        1.64941         218.692         22.0721 
        1.66519         216.853         21.5743 
        1.68085         213.948         21.0954 
        1.69652         210.805         20.6309 
        1.71228         205.656         20.1778 
        1.72806         203.735         19.7379 
        1.74368         200.803         19.3156 
        1.75933         197.956         18.9049 
        1.77505          196.47         18.5042 
        1.79081         194.123         18.1144 
         1.8065         190.162         17.7375 
        1.82218         188.374         17.3717 
        1.83797         187.104         17.0138 
        1.85367         183.847         16.6679 
        1.86928         180.724         16.3337 
        1.88497         178.657         16.0069 
        1.90073         176.384         15.6879 
        1.91647          175.24         15.3778 
        1.93218         172.442         15.0768 
        1.94787         168.595         14.7843 
        1.96363         166.689         14.4984 
        1.97935         165.476         14.2206 
        1.99499         163.247         13.9518 
        2.01064         161.108         13.6895 
         2.0264         159.757         13.4323 
        2.04216         157.461         13.1818 
        2.05781         155.256         12.9393 
        2.07353         153.779         12.7021 
        2.08928         151.092         12.4703 
        2.10499          149.84         12.2449 
        2.12065         147.419         12.0258 
        2.13633         145.481         11.8118 
        2.15211         143.447         11.6017 
        2.16785         142.226         11.3973 
        2.18349         140.764         11.1991 
        2.19916         138.715         11.0052 
        2.21489         137.503         10.8152 
        2.23063         135.191         10.6296 
         2.2463         133.573         10.4492 
        2.26194         131.545         10.2735 
        2.27765         130.387         10.1009 
        2.29341         128.994         9.93177 
        2.30914         127.594         9.76691 
        2.32486          125.62         9.60588 
        2.34061         124.214         9.44821 
        2.35635         122.678         9.29423 
        2.37203         121.557         9.14422 
        2.38768         119.628         8.99783 
        2.40339         118.486         8.85412 
        2.41914         116.956         8.71321 
        2.43483         115.642         8.57587 
         2.4505         114.444         8.44173 
        2.46622         113.124         8.30999 
        2.48195         111.349         8.18106 
        2.49759         110.192         8.05555 
        2.51328         109.393         7.93235 
        2.52906         107.854         7.81095 
        2.54479         106.812         7.69255 
        2.56049         105.258         7.57683 
        2.57618         104.416         7.46359 
        2.59189         103.418          7.3525 
        2.60758         102.149         7.24384 
        2.62325         100.541         7.13752 
        2.63898         99.4058         7.03296 
        2.65468          98.343         6.93071 
        2.67044         97.6223         6.83006 
        2.68618          96.543         6.73164 
        2.70184         95.6838         6.63555 
        2.71755         94.0773          6.5411 
        2.73329         93.3203         6.44835 
        2.74897         92.3895          6.3577 
        2.76462         91.2465         6.26899 
        2.78034         90.2844          6.1816 
        2.79607         88.9656          6.0958 
        2.81179         88.2125         6.01172 
        2.82749         87.3086         5.92932 
        2.84321         86.2589         5.84837 
        2.85893          85.436         5.76896 
        2.87462         84.5032         5.69116 
        2.89033         83.4425         5.61472 
        2.90605         82.5673         5.53962 
        2.92176          81.539         5.46594 
        2.93747         80.8959         5.39363 
        2.95318         79.8689         5.32261 
        2.96891         79.2898         5.25284 
        2.98456          78.371         5.18463 
        3.00023         77.5148         5.11754 
        3.01596         76.4648         5.05142 
        3.03164         75.8739         4.98666 
        3.04738         74.8053         4.92284 
         3.0631         74.0746         4.86017 
        3.07883         73.5467         4.79858 
        3.09456         73.0474         4.73807 
        3.11026         72.0241         4.67869 
        3.12596         71.1287         4.62034 
        3.14163         70.7425         4.56312 
        3.15734         69.6231         4.50674 
        3.17308         68.9551         4.45117 
        3.18879         68.4255         4.39669 
        3.20447         67.5833          4.3432 
         3.2202         67.0464         4.29044 
         3.2359         66.1937         4.23864 
        3.25157          65.665         4.18783 
        3.26729         65.0238         4.13769 
        3.28304         64.4943         4.08828 
        3.29877         63.7555         4.03973 
        3.31446          62.824         3.99208 
        3.33014         62.4373         3.94525 
        3.34585         61.6406         3.89909 
        3.36158         61.2055          3.8536 
        3.37727         60.7349         3.80898 
        3.39294         59.7846          3.7651 
        3.40867         59.3888         3.72176 
        3.42439         58.8747         3.67913 
        3.44008         58.1806         3.63725 
        3.45578         57.5727         3.59598 
        3.47153         57.0342         3.55527 
        3.48724         56.6259         3.51526 
        3.50292         56.1698         3.47595 
        3.51859         55.4757         3.43727 
        3.53431         55.1234         3.39905 
        3.55007         54.5425         3.36133 
        3.56577         54.1405         3.32432 
        3.58146         53.5292         3.28789 
        3.59719         52.8715         3.25191 
        3.61292          52.425         3.21649 
        3.62859         51.8427         3.18173 
        3.64429         51.4153         3.14742 
        3.66003         51.0632         3.11351 
        3.67578         50.5278          3.0801 
        3.69146         49.9694         3.04732 
        3.70712         49.4569         3.01507 
        3.72284         49.0946         2.98317 
        3.73853         48.5923         2.95179 
        3.75422         48.0811         2.92084 
        3.76993         47.5526         2.89031 
        3.78564         47.2312         2.86023 
        3.80137         46.7967         2.83053 
        3.81707         46.2586         2.80132 
        3.83279         45.8988         2.77249 
        3.84853         45.6313         2.74402 
        3.86424          45.107         2.71601 
        3.87992          44.615         2.68842 
        3.89561         44.3236         2.66122 
        3.91134         43.8935         2.63435 
        3.92704         43.3877         2.60787 
        3.94273         42.9906         2.58178 
        3.95845         42.7363           2.556 
        3.97418         42.3472         2.53057 
        3.98988         41.9749         2.50552 
        4.00554         41.6058         2.48088 
        4.02125         41.2043         2.45649 
        4.03698         40.7671          2.4324 
        4.05268         40.4805         2.40868 
        4.06839         40.0607         2.38526 
         4.0841         39.7365         2.36217 
        4.09983         39.4605         2.33934 
        4.11555         39.0765         2.31683 
        4.13124         38.7603         2.29467 
        4.14693         38.4703         2.27278 
        4.16266         38.1333         2.25113 
        4.17839         37.6967         2.22977 
        4.19408         37.3469         2.20874 
        4.20977         37.1033         2.18797 
        4.22551         36.7756         2.16742 
        4.24123         36.4881         2.14716 
        4.25691         36.1586          2.1272 
        4.27259         35.8115          2.1075 
        4.28831         35.5376           2.088 
        4.30404         35.2459         2.06873 
        4.31974         34.9517         2.04975 
        4.33543         34.5602         2.03102 
        4.35116         34.3939         2.01247 
        4.36688         34.0237         1.99417 
        4.38255         33.7263         1.97616 
        4.39825         33.5165         1.95833 
        4.41398         33.2434         1.94069 
         4.4297         32.9088         1.92328 
        4.44541         32.6961         1.90609 
        4.46111         32.3526         1.88912 
        4.47683         32.0845         1.87235 
        4.49251         31.8363         1.85581 
        4.50819         31.6127         1.83948 
         4.5239          31.387         1.82332 
        4.53962         31.0772         1.80734 
        4.55535         30.8228         1.79154 
        4.57106         30.5623         1.77595 
        4.58678         30.3774         1.76054 
         4.6025         30.0321         1.74531 
        4.61821         29.8861         1.73026 
        4.63391          29.593         1.71542 
         4.6496         29.3631         1.70075 
        4.66532         29.1273         1.68623 
        4.68103         28.9083         1.67188 
        4.69673         28.6609         1.65772 
        4.71241         28.4883         1.64373 
        4.72811         28.2333         1.62989 
        4.74384         28.0599         1.61618 
        4.75955         27.7289         1.60265 
        4.77525         27.5944         1.58929 
        4.79096         27.3615         1.57606 
        4.80669          27.098         1.56297 
         4.8224         26.8857         1.55005 
        4.83809         26.7413         1.53729 
        4.85379         26.5378         1.52466 
         4.8695         26.2607         1.51217 
        4.88521         26.0621         1.49982 
        4.90093         25.8425         1.48761 
        4.91663         25.6189         1.47554 
        4.93234          25.385         1.46359 
        4.94807         25.3155         1.45177 
        4.96377         25.1018          1.4401 
        4.97943         24.8303         1.42859 
        4.99514         24.6713         1.41717 
        5.01086          24.521         1.40586 
        5.02654         24.2842         1.39471 
        5.04227          24.112         1.38365 
          5.058         23.9687          1.3727 
        5.07371         23.7521         1.36189 
        5.08942         23.5226         1.35119 
        5.10513         23.3959         1.34061 
        5.12084         23.2603         1.33014 
        5.13656         23.0975         1.31978 
        5.15225         22.8702         1.30955 
        5.16796         22.6811         1.29941 
        5.18369         22.5029         1.28937 
         5.1994         22.3245         1.27945 
        5.21509         22.1963         1.26965 
        5.23079          22.008         1.25994 
        5.24649         21.9081         1.25033 
        5.26217         21.7102         1.24084 
        5.27788         21.5676         1.23143 
        5.29359         21.3942         1.22211 
        5.30933         21.1662         1.21288 
        5.32504         21.0467         1.20375 
        5.34073         20.9465         1.19474 
        5.35646          20.771         1.18579 
        5.37218         20.5965         1.17694 
        5.38789         20.4569         1.16819 
        5.40357         20.3382         1.15954 
        5.41929         20.1005         1.15096 
        5.43502         20.0551         1.14246 
         5.4507         19.8416         1.13407 
        5.46639         19.7237         1.12576 
        5.48212         19.5919         1.11752 
        5.49786         19.4244         1.10935 
        5.51353         19.2721          1.1013 
        5.52921          19.131         1.09332 
        5.54495         19.0156          1.0854 
        5.56066         18.8774         1.07756 
        5.57637         18.7292         1.06981 
        5.59207         18.5902         1.06213 
        5.60778         18.4228         1.05453 
        5.62346         18.3226         1.04702 
        5.63916         18.2059         1.03957 
        5.65487         18.1088         1.03219 
         5.6706         17.9551         1.02487 
        5.68633         17.8206         1.01762 
        5.70203         17.6607         1.01045 
        5.71773         17.6072         1.00336 
        5.73344         17.4633        0.996326 
        5.74916         17.3134        0.989356 
        5.76486         17.2253        0.982463 
        5.78054         17.0946        0.975645 
        5.79626         16.9405        0.968873 
          5.812         16.8756        0.962159 
         5.8277         16.6919        0.955528 
        5.84339         16.6105        0.948959 
        5.85911         16.5205        0.942439 
        5.87484         16.3721        0.935982 
        5.89053         16.2356        0.929598 
        5.90623         16.1455         0.92327 
        5.92195         16.0446        0.916991 
        5.93767         15.9249        0.910773 
        5.95336         15.8309        0.904623 
        5.96905         15.6993        0.898532 
        5.98476         15.6002        0.892489 
        6.00048         15.4961        0.886499 
        6.01617         15.4056        0.880572 
        6.03185          15.276        0.874706 
        6.04756         15.1671         0.86888 
        6.06331         15.0673        0.863095 
        6.07903         14.9788        0.857374 
        6.09473         14.8813         0.85171 
        6.11044         14.7427        0.846092 
        6.12616         14.6528        0.840526 
        6.14186          14.537        0.835016 
        6.15755         14.4539        0.829555 
        6.17326          14.365        0.824138 
        6.18898         14.2853        0.818768 
        6.20467         14.1872        0.813455 
        6.22036         14.0778        0.808189 
         6.2361         13.9688        0.802956 
         6.2518         13.8899        0.797778 
        6.26748         13.7926        0.792656 
        6.28319         13.6989        0.787566 
        6.29893         13.6118        0.782515 
        6.31463          13.505        0.777518 
        6.33033         13.4744        0.772566 
        6.34604         13.3526        0.767653 
        6.36177         13.2617        0.762778 
        6.37747         13.1838        0.757955 
