# k  (h/Mpc)    Pcb(k)  (Mpc/h)^3    Pcb_linear(k) (Mpc/h)^3   ShotnoiseSubtracted = true
      0.0200456         21332.7         21706.1 
      0.0350414         16272.6         15779.6 
      0.0492313         11223.9         11465.2 
      0.0637834         9049.05         9530.89 
      0.0800726         7102.58         7564.43 
       0.096163         5702.93         5488.65 
       0.111083         4644.87         4377.89 
       0.126058         3839.71          3879.7 
       0.142273         3361.99         3286.96 
       0.158546         2759.65         2596.01 
        0.17375         2464.25         2187.14 
       0.188953         2333.86          1980.4 
       0.204907         2007.31         1752.25 
       0.220756         1814.46         1482.51 
        0.23588         1619.83         1289.66 
         0.2514            1466         1171.64 
       0.267535         1415.82         1060.13 
       0.283568         1260.32         934.895 
       0.299022          1202.3         832.943 
       0.314451         1251.41         761.253 
       0.330372         1103.33         698.364 
       0.346141          1013.8         633.872 
       0.361624         973.185         576.103 
       0.377134         932.546         530.106 
       0.392932         890.564         490.496 
       0.408854         853.312         452.143 
       0.424564         834.813         416.747 
       0.440253         772.962         386.372 
       0.455999         739.379         359.961 
       0.471626         753.167         335.689 
        0.48727         710.778         312.984 
       0.502856         679.921         292.587 
       0.518488         661.959         274.387 
       0.534347         633.948         257.468 
       0.550082         604.856         241.868 
       0.565732         597.115         227.596 
       0.581496         584.571         214.524 
       0.597222         571.407         202.536 
       0.612804         558.163         191.513 
       0.628434         535.167         181.238 
       0.644267          519.89         171.632 
       0.660051         514.053         162.779 
       0.675724         503.494         154.604 
       0.691403         490.178         146.984 
       0.707174         474.586         139.834 
       0.722871         468.749         133.188 
        0.73838         459.607         127.045 
       0.754018         447.218         121.244 
       0.769845         442.471         115.741 
        0.78569         433.288         110.576 
       0.801365         418.462         105.777 
       0.817031         415.521         101.267 
       0.832809         409.101         96.9931 
       0.848511         401.883          92.986 
       0.864097         392.207          89.234 
       0.879701         390.736         85.6863 
       0.895507         376.031         82.2906 
       0.911279         370.389         79.0868 
        0.92691         366.845         76.0809 
       0.942635         362.881         73.2154 
       0.958396         350.653          70.492 
       0.974128          346.89         67.9127 
       0.989692         335.883         65.4885 
        1.00528         334.008         63.1796 
        1.02113         328.441         60.9462 
        1.03692         323.099         58.8295 
        1.05264         318.109         56.8235 
        1.06832         312.723         54.9145 
        1.08405         309.796         53.0885 
        1.09979             304         51.3448 
        1.11537          296.18          49.697 
        1.13105         292.733         48.1119 
        1.14679         288.429         46.5901 
        1.16256         286.641         45.1315 
        1.17828         281.843         43.7403 
        1.19395         274.704         42.4127 
         1.2097         274.207         41.1336 
        1.22537         269.349         39.9136 
          1.241         263.126          38.747 
        1.25666         261.013         37.6242 
        1.27241         257.146         36.5409 
        1.28819         251.857         35.4985 
        1.30392         251.472         34.4999 
        1.31957         244.044         33.5443 
        1.33529         241.129         32.6215 
        1.35108         239.978         31.7299 
        1.36674         233.285         30.8781 
         1.3824         231.914         30.0584 
        1.39811         229.723         29.2659 
        1.41389         223.308          28.499 
        1.42964         220.935         27.7609 
        1.44531         218.993         27.0526 
        1.46101         215.209         26.3677 
        1.47667         212.634         25.7085 
        1.49229         209.619         25.0737 
        1.50793         206.704         24.4597 
        1.52367         203.742         23.8623 
        1.53953         199.747         23.2809 
        1.55526         198.444         22.7236 
        1.57092         196.771         22.1869 
        1.58662         192.123         21.6663 
        1.60235         190.241         21.1614 
        1.61809         187.869         20.6724 
        1.63369         184.341         20.2032 
        1.64941         182.094         19.7453 
        1.66519         179.862         19.2999 
        1.68085         176.813         18.8715 
        1.69652         175.188         18.4559 
        1.71228         172.247         18.0506 
        1.72806         170.555         17.6571 
        1.74368         168.411         17.2794 
        1.75933         167.216         16.9119 
        1.77505          164.66         16.5534 
        1.79081         161.078         16.2048 
         1.8065         159.806         15.8676 
        1.82218         156.474         15.5404 
        1.83797          155.58         15.2202 
        1.85367         153.304         14.9108 
        1.86928          151.15         14.6118 
        1.88497         150.028         14.3195 
        1.90073         148.328          14.034 
        1.91647         145.395         13.7566 
        1.93218         143.652         13.4874 
        1.94787         141.711         13.2257 
        1.96363         141.166         12.9699 
        1.97935         139.314         12.7215 
        1.99499         137.216          12.481 
        2.01064         134.431         12.2463 
         2.0264         133.777         12.0162 
        2.04216         131.788         11.7922 
        2.05781         129.567         11.5752 
        2.07353         128.473          11.363 
        2.08928         126.844         11.1557 
        2.10499         125.642          10.954 
        2.12065          124.21          10.758 
        2.13633         122.632         10.5666 
        2.15211         120.583         10.3786 
        2.16785         119.306         10.1958 
        2.18349         117.829         10.0185 
        2.19916         116.537         9.84499 
        2.21489         115.228         9.67507 
        2.23063         113.411         9.50904 
         2.2463          112.07         9.34766 
        2.26194         111.134         9.19044 
        2.27765         109.547         9.03602 
        2.29341         108.512         8.88476 
        2.30914          107.37         8.73727 
        2.32486         105.406         8.59322 
        2.34061         104.508         8.45217 
        2.35635         103.562         8.31443 
        2.37203         101.737         8.18023 
        2.38768         101.055         8.04927 
        2.40339         99.6002         7.92071 
        2.41914         98.3536         7.79466 
        2.43483         97.7274          7.6718 
         2.4505         96.2749         7.55179 
        2.46622         95.0748         7.43394 
        2.48195         94.3282          7.3186 
        2.49759         92.8955         7.20633 
        2.51328         92.1867         7.09612 
        2.52906         90.8487         6.98752 
        2.54479         89.7232         6.88159 
        2.56049         88.5334         6.77807 
        2.57618         87.6032         6.67677 
        2.59189         86.9228         6.57739 
        2.60758         85.3787         6.48019 
        2.62325         85.1161         6.38507 
        2.63898         83.9764         6.29154 
        2.65468         83.0004         6.20007 
        2.67044         81.7308         6.11003 
        2.68618          80.945         6.02198 
        2.70184         79.9673         5.93603 
        2.71755         79.3337         5.85154 
        2.73329         78.0688         5.76856 
        2.74897         77.4871         5.68746 
        2.76462         76.7849         5.60811 
        2.78034         75.3451         5.52993 
        2.79607         74.6392         5.45317 
        2.81179         74.1066         5.37796 
        2.82749         73.3537         5.30424 
        2.84321         72.4015         5.23183 
        2.85893         71.5282         5.16079 
        2.87462         70.8358         5.09119 
        2.89033         70.1484         5.02281 
        2.90605         69.5393         4.95563 
        2.92176         68.7172         4.88971 
        2.93747         68.1412         4.82503 
        2.95318         66.9731          4.7615 
        2.96891         66.5858         4.69908 
        2.98456         65.7509         4.63807 
        3.00023         65.0968         4.57804 
        3.01596         64.6298         4.51889 
        3.03164         63.8129         4.46096 
        3.04738          63.513         4.40387 
         3.0631         62.3858          4.3478 
        3.07883         61.8946         4.29271 
        3.09456         61.1422         4.23858 
        3.11026         60.6025         4.18546 
        3.12596         59.9657         4.13326 
        3.14163         59.2648         4.08207 
        3.15734         58.5715         4.03163 
        3.17308         58.1322         3.98192 
        3.18879         57.5321         3.93319 
        3.20447         57.1187         3.88534 
         3.2202         56.3322         3.83813 
         3.2359         55.6622          3.7918 
        3.25157          55.318         3.74634 
        3.26729         54.6821         3.70149 
        3.28304         54.0579         3.65729 
        3.29877          53.602         3.61386 
        3.31446         53.1501         3.57124 
        3.33014         52.5567         3.52934 
        3.34585         51.9524         3.48804 
        3.36158         51.6156         3.44735 
        3.37727         50.9253         3.40743 
        3.39294         50.5663         3.36818 
        3.40867         50.0688         3.32941 
        3.42439         49.4982         3.29127 
        3.44008         48.9336          3.2538 
        3.45578         48.6152         3.21689 
        3.47153         48.0662         3.18047 
        3.48724         47.6128         3.14467 
        3.50292         47.1924         3.10952 
        3.51859         46.6598         3.07491 
        3.53431         46.0888         3.04072 
        3.55007          45.738         3.00697 
        3.56577         45.3299         2.97387 
        3.58146         44.8177         2.94127 
        3.59719         44.4165         2.90909 
        3.61292         43.9296         2.87741 
        3.62859         43.6826         2.84631 
        3.64429         43.2882         2.81561 
        3.66003         42.9028         2.78528 
        3.67578         42.4739          2.7554 
        3.69146         42.0584         2.72607 
        3.70712         41.6496         2.69722 
        3.72284         41.3261         2.66868 
        3.73853         40.8871         2.64061 
        3.75422         40.4969         2.61292 
        3.76993         40.1539         2.58561 
        3.78564          39.817         2.55871 
        3.80137           39.49         2.53214 
        3.81707         38.9464           2.506 
        3.83279         38.7204         2.48021 
        3.84853         38.3401         2.45474 
        3.86424         37.8938         2.42968 
        3.87992         37.6761         2.40501 
        3.89561         37.3465         2.38068 
        3.91134         37.0546         2.35663 
        3.92704         36.6762         2.33294 
        3.94273         36.3262         2.30961 
        3.95845         36.0476         2.28655 
        3.97418         35.7028          2.2638 
        3.98988         35.2968         2.24139 
        4.00554         35.0832         2.21934 
        4.02125         34.8174         2.19753 
        4.03698         34.4311         2.17597 
        4.05268         34.2168         2.15476 
        4.06839         33.7598         2.13381 
         4.0841         33.5996         2.11314 
        4.09983         33.2703         2.09273 
        4.11555         32.9839         2.07258 
        4.13124         32.6565         2.05276 
        4.14693         32.3789         2.03318 
        4.16266         32.0841         2.01382 
        4.17839         31.8266         1.99471 
        4.19408         31.5849          1.9759 
        4.20977         31.3252         1.95732 
        4.22551         30.9897         1.93893 
        4.24123         30.7503          1.9208 
        4.25691         30.4849         1.90295 
        4.27259         30.3065         1.88532 
        4.28831         29.9411         1.86788 
        4.30404         29.7266         1.85065 
        4.31974         29.4286         1.83366 
        4.33543         29.2394         1.81691 
        4.35116         28.9894         1.80032 
        4.36688         28.7065         1.78394 
        4.38255         28.5598         1.76783 
        4.39825         28.2262         1.75188 
        4.41398         28.0104          1.7361 
         4.4297         27.8177         1.72052 
        4.44541         27.6506         1.70515 
        4.46111         27.3207         1.68997 
        4.47683         27.1101         1.67496 
        4.49251         26.9245         1.66017 
        4.50819          26.729         1.64556 
         4.5239         26.4387         1.63111 
        4.53962         26.2976         1.61681 
        4.55535         26.0273         1.60267 
        4.57106         25.8253         1.58872 
        4.58678         25.6468         1.57494 
         4.6025         25.3955         1.56132 
        4.61821         25.2174         1.54786 
        4.63391         24.8967         1.53458 
         4.6496         24.7864         1.52145 
        4.66532         24.6219         1.50846 
        4.68103         24.3309         1.49563 
        4.69673         24.1855         1.48296 
        4.71241         24.0151         1.47045 
        4.72811         23.7839         1.45806 
        4.74384         23.5772          1.4458 
        4.75955         23.4372          1.4337 
        4.77525         23.2552         1.42174 
        4.79096         23.0256         1.40991 
        4.80669         22.8942          1.3982 
         4.8224         22.6839         1.38664 
        4.83809         22.4587         1.37523 
        4.85379         22.2914         1.36393 
         4.8695         22.1614         1.35275 
        4.88521         21.9393         1.34171 
        4.90093         21.8059         1.33078 
        4.91663         21.6234         1.31999 
        4.93234         21.4764          1.3093 
        4.94807         21.3013         1.29872 
        4.96377         21.1896         1.28829 
        4.97943          20.924         1.27798 
        4.99514         20.8027         1.26777 
        5.01086          20.661         1.25765 
        5.02654         20.5082         1.24768 
        5.04227         20.3557         1.23778 
          5.058         20.1619         1.22799 
        5.07371          19.993         1.21832 
        5.08942         19.8467         1.20875 
        5.10513         19.7369         1.19928 
        5.12084          19.595         1.18992 
        5.13656         19.3801         1.18065 
        5.15225         19.2523          1.1715 
        5.16796          19.113         1.16243 
        5.18369         18.9711         1.15344 
         5.1994         18.8579         1.14457 
        5.21509         18.6941          1.1358 
        5.23079         18.5788         1.12711 
        5.24649          18.421         1.11852 
        5.26217         18.3148         1.11003 
        5.27788         18.1423         1.10161 
        5.29359          18.009         1.09327 
        5.30933         17.8718         1.08501 
        5.32504         17.7291         1.07685 
        5.34073         17.6272         1.06879 
        5.35646         17.4907         1.06079 
        5.37218         17.3296         1.05286 
        5.38789         17.2005         1.04504 
        5.40357         17.0819          1.0373 
        5.41929         16.9687         1.02962 
        5.43502         16.8122         1.02202 
         5.4507         16.7136         1.01451 
        5.46639         16.5874         1.00708 
        5.48212         16.4897        0.999707 
        5.49786          16.366        0.992397 
        5.51353          16.267        0.985197 
        5.52921         16.1301        0.978061 
        5.54495         16.0206        0.970974 
        5.56066         15.8787        0.963965 
        5.57637         15.7696        0.957027 
        5.59207         15.6632        0.950162 
        5.60778         15.5519        0.943363 
        5.62346         15.4499        0.936639 
        5.63916         15.3256        0.929975 
        5.65487         15.2201        0.923371 
         5.6706         15.0933        0.916825 
        5.68633         15.0142        0.910339 
        5.70203         14.9055        0.903929 
        5.71773         14.7919        0.897582 
        5.73344         14.6805        0.891293 
        5.74916         14.5894        0.885058 
        5.76486         14.4927        0.878891 
        5.78054         14.3987        0.872792 
        5.79626         14.2599        0.866734 
          5.812         14.1871        0.860727 
         5.8277         14.0776        0.854795 
        5.84339         13.9803        0.848919 
        5.85911         13.8747        0.843087 
        5.87484         13.7841         0.83731 
        5.89053          13.673        0.831599 
        5.90623         13.6015        0.825938 
        5.92195         13.4726        0.820321 
        5.93767         13.3818        0.814759 
        5.95336         13.3229        0.809257 
        5.96905         13.2274        0.803808 
        5.98476         13.1569        0.798402 
        6.00048         13.0458        0.793043 
        6.01617         12.9797        0.787741 
        6.03185          12.854        0.782494 
        6.04756         12.7679        0.777282 
        6.06331         12.7039        0.772106 
        6.07903         12.5887        0.766989 
        6.09473         12.5195        0.761922 
        6.11044         12.4148        0.756897 
        6.12616         12.3387        0.751917 
        6.14186         12.2501        0.746988 
        6.15755         12.1794        0.742102 
        6.17326         12.0931        0.737257 
        6.18898         12.0105        0.732453 
        6.20467         11.9182          0.7277 
        6.22036         11.8429        0.722989 
         6.2361         11.7568        0.718308 
         6.2518          11.699        0.713675 
        6.26748         11.6257        0.709094 
        6.28319         11.5573         0.70454 
        6.29893         11.4669        0.700022 
        6.31463         11.3917        0.695551 
        6.33033         11.3173        0.691121 
        6.34604           11.22        0.686726 
        6.36177         11.1745        0.682365 
        6.37747         11.1039        0.678051 
