# k  (h/Mpc)    Pcb(k)  (Mpc/h)^3    Pcb_linear(k) (Mpc/h)^3   ShotnoiseSubtracted = true
      0.0200456         22880.5         23435.6 
      0.0350414         16225.2         17036.9 
      0.0492313         12097.9         12378.7 
      0.0637834         10488.2         10290.3 
      0.0800726         8272.63         8167.15 
       0.096163         5731.13         5925.98 
       0.111083         4615.28         4726.71 
       0.126058          4247.4         4188.83 
       0.142273         3679.34         3548.86 
       0.158546         3236.57         2802.86 
        0.17375         2591.89          2361.4 
       0.188953          2537.1          2138.2 
       0.204907         2383.95         1891.87 
       0.220756         2070.11         1600.64 
        0.23588         1854.56         1392.41 
         0.2514         1616.56         1264.99 
       0.267535         1619.31          1144.6 
       0.283568         1468.87         1009.39 
       0.299022         1391.82         899.311 
       0.314451         1327.03         821.909 
       0.330372          1216.8         754.009 
       0.346141         1172.26         684.378 
       0.361624         1126.97         622.006 
       0.377134         1050.89         572.344 
       0.392932         1007.81         529.578 
       0.408854         991.453         488.169 
       0.424564         915.704         449.952 
       0.440253         899.344         417.158 
       0.455999         871.571         388.642 
       0.471626         840.404         362.436 
        0.48727         806.111         337.922 
       0.502856         782.834           315.9 
       0.518488         776.491          296.25 
       0.534347         728.732         277.983 
       0.550082         712.479         261.139 
       0.565732         707.931          245.73 
       0.581496         670.228         231.617 
       0.597222          656.67         218.674 
       0.612804         645.998         206.772 
       0.628434         628.247         195.679 
       0.644267         612.221         185.308 
       0.660051          595.33         175.749 
       0.675724          589.09         166.923 
       0.691403         570.013         158.695 
       0.707174         551.737         150.976 
       0.722871         544.806         143.801 
        0.73838         534.601         137.168 
       0.754018         524.034         130.904 
       0.769845         515.078         124.964 
        0.78569         505.369         119.386 
       0.801365          492.82         114.205 
       0.817031         480.391         109.336 
       0.832809         476.181         104.721 
       0.848511         465.954         100.395 
       0.864097         451.739          96.344 
       0.879701          445.91         92.5137 
       0.895507         443.866         88.8474 
       0.911279         431.614         85.3884 
        0.92691         425.628          82.143 
       0.942635         414.877         79.0491 
       0.958396          404.62         76.1087 
       0.974128         399.228         73.3239 
       0.989692         396.983         70.7065 
        1.00528         385.374         68.2136 
        1.02113         383.739         65.8023 
        1.03692         372.776          63.517 
        1.05264         370.283         61.3511 
        1.06832         360.165           59.29 
        1.08405          355.88         57.3185 
        1.09979          350.26         55.4359 
        1.11537         343.571         53.6567 
        1.13105         338.308         51.9454 
        1.14679         329.519         50.3024 
        1.16256         323.292         48.7275 
        1.17828         323.013         47.2255 
        1.19395         315.027          45.792 
         1.2097         309.774          44.411 
        1.22537         303.717         43.0939 
          1.241         300.674         41.8343 
        1.25666         296.014         40.6221 
        1.27241         291.578         39.4524 
        1.28819         286.861         38.3269 
        1.30392         280.675         37.2488 
        1.31957          279.64         36.2171 
        1.33529         274.627         35.2208 
        1.35108         268.797         34.2581 
        1.36674         264.476         33.3384 
         1.3824         262.996         32.4534 
        1.39811          258.37         31.5977 
        1.41389         255.515         30.7697 
        1.42964         252.535         29.9728 
        1.44531         248.678         29.2082 
        1.46101         244.129         28.4686 
        1.47667         241.399         27.7569 
        1.49229         238.726         27.0715 
        1.50793         232.784         26.4086 
        1.52367         231.605         25.7636 
        1.53953         227.904         25.1359 
        1.55526          223.65         24.5342 
        1.57092         221.894         23.9547 
        1.58662         219.379         23.3926 
        1.60235         215.389         22.8475 
        1.61809         213.134         22.3195 
        1.63369         210.262          21.813 
        1.64941         206.172         21.3186 
        1.66519         204.612         20.8377 
        1.68085         201.718         20.3751 
        1.69652          198.76         19.9265 
        1.71228         194.162         19.4888 
        1.72806         192.497          19.064 
        1.74368         189.655         18.6562 
        1.75933         186.679         18.2594 
        1.77505         185.511         17.8724 
        1.79081         183.413         17.4959 
         1.8065         179.852         17.1319 
        1.82218          178.15         16.7786 
        1.83797         176.624         16.4329 
        1.85367         173.613         16.0988 
        1.86928         170.708         15.7761 
        1.88497         168.712         15.4604 
        1.90073         166.823         15.1522 
        1.91647         165.406         14.8528 
        1.93218         163.107          14.562 
        1.94787         159.457         14.2795 
        1.96363         157.493         14.0034 
        1.97935          156.72         13.7351 
        1.99499         154.166         13.4754 
        2.01064          152.36         13.2221 
         2.0264         150.866         12.9737 
        2.04216         148.775         12.7318 
        2.05781         146.949         12.4976 
        2.07353         145.429         12.2684 
        2.08928          142.94         12.0445 
        2.10499         141.664         11.8268 
        2.12065         139.215         11.6152 
        2.13633          137.83         11.4085 
        2.15211         135.574         11.2056 
        2.16785         134.372         11.0082 
        2.18349         133.121         10.8167 
        2.19916         131.159         10.6294 
        2.21489         130.013          10.446 
        2.23063         127.677         10.2667 
         2.2463         126.317         10.0925 
        2.26194          124.37         9.92272 
        2.27765         123.299           9.756 
        2.29341         121.853         9.59268 
        2.30914          120.68         9.43344 
        2.32486         118.766         9.27791 
        2.34061         117.491         9.12563 
        2.35635           116.1         8.97691 
        2.37203           114.9         8.83202 
        2.38768         113.183         8.69063 
        2.40339         112.107         8.55182 
        2.41914         110.558         8.41573 
        2.43483         109.428         8.28308 
         2.4505         108.294         8.15351 
        2.46622         107.101         8.02627 
        2.48195         105.494         7.90174 
        2.49759         104.234         7.78052 
        2.51328          103.62         7.66153 
        2.52906         102.066         7.54427 
        2.54479         101.091         7.42991 
        2.56049         99.8022         7.31814 
        2.57618         98.7751         7.20877 
        2.59189         97.7698         7.10147 
        2.60758         96.5723         6.99653 
        2.62325         95.2078         6.89383 
        2.63898          94.078         6.79284 
        2.65468         93.0871         6.69408 
        2.67044         92.4063         6.59687 
        2.68618         91.2429         6.50181 
        2.70184         90.6328           6.409 
        2.71755         89.0675         6.31778 
        2.73329          88.378         6.22819 
        2.74897         87.4639         6.14063 
        2.76462         86.2349         6.05495 
        2.78034         85.5722         5.97055 
        2.79607          84.142         5.88767 
        2.81179         83.3959         5.80646 
        2.82749         82.5544         5.72688 
        2.84321         81.7379         5.64869 
        2.85893         80.8949         5.57199 
        2.87462          79.944         5.49685 
        2.89033         78.9282         5.42302 
        2.90605         78.0905         5.35049 
        2.92176         77.1584         5.27932 
        2.93747         76.6903         5.20948 
        2.95318         75.5561         5.14089 
        2.96891         75.0878          5.0735 
        2.98456         74.3027         5.00762 
        3.00023          73.384         4.94281 
        3.01596         72.4877         4.87895 
        3.03164         71.8259          4.8164 
        3.04738           70.91         4.75477 
         3.0631         70.1814         4.69423 
        3.07883          69.761         4.63474 
        3.09456         69.1432          4.5763 
        3.11026         68.1838         4.51895 
        3.12596         67.3869         4.46259 
        3.14163         66.9532         4.40733 
        3.15734          65.935         4.35287 
        3.17308         65.2855          4.2992 
        3.18879         64.8182         4.24658 
        3.20447         64.0091         4.19491 
         3.2202         63.5484         4.14395 
         3.2359         62.7057         4.09393 
        3.25157         62.1346         4.04485 
        3.26729         61.6279         3.99642 
        3.28304         61.1567         3.94869 
        3.29877         60.4434         3.90181 
        3.31446         59.4944         3.85579 
        3.33014         59.2829         3.81055 
        3.34585          58.397         3.76597 
        3.36158         58.0235         3.72203 
        3.37727         57.5411         3.67893 
        3.39294         56.6914         3.63656 
        3.40867         56.2677          3.5947 
        3.42439         55.8071         3.55352 
        3.44008         55.1629         3.51306 
        3.45578         54.5628         3.47321 
        3.47153         54.0625         3.43389 
        3.48724         53.6043         3.39524 
        3.50292         53.2298         3.35728 
        3.51859          52.566         3.31991 
        3.53431         52.2484           3.283 
        3.55007         51.6031         3.24656 
        3.56577         51.2617         3.21082 
        3.58146         50.6734         3.17563 
        3.59719         50.0953         3.14089 
        3.61292         49.6711         3.10668 
        3.62859         49.1701          3.0731 
        3.64429         48.6772         3.03996 
        3.66003         48.3729          3.0072 
        3.67578         47.8295         2.97494 
        3.69146         47.3975         2.94328 
        3.70712         46.8353         2.91213 
        3.72284         46.4696         2.88132 
        3.73853         46.0237         2.85101 
        3.75422         45.4948         2.82112 
        3.76993         45.0641         2.79163 
        3.78564         44.6921         2.76258 
        3.80137         44.2995         2.73389 
        3.81707         43.8369         2.70567 
        3.83279         43.4474         2.67783 
        3.84853         43.2021         2.65033 
        3.86424         42.6525         2.62328 
        3.87992         42.3276         2.59664 
        3.89561          41.985         2.57036 
        3.91134         41.5019          2.5444 
        3.92704         41.1256         2.51883 
        3.94273         40.7842         2.49363 
        3.95845         40.5758         2.46874 
        3.97418         40.1642         2.44417 
        3.98988         39.8164         2.41998 
        4.00554         39.4074         2.39617 
        4.02125         39.1554         2.37262 
        4.03698         38.6999         2.34935 
        4.05268         38.4594         2.32645 
        4.06839           38.08         2.30383 
         4.0841         37.7041         2.28152 
        4.09983         37.4242         2.25947 
        4.11555         37.1155         2.23772 
        4.13124         36.8316         2.21632 
        4.14693         36.4858         2.19519 
        4.16266         36.1839         2.17427 
        4.17839         35.7682         2.15365 
        4.19408         35.4803         2.13333 
        4.20977         35.1988         2.11327 
        4.22551         34.8715         2.09342 
        4.24123          34.629         2.07385 
        4.25691         34.3252         2.05458 
        4.27259         33.9939         2.03554 
        4.28831         33.6981         2.01671 
        4.30404         33.4585          1.9981 
        4.31974         33.1522         1.97977 
        4.33543         32.7866         1.96167 
        4.35116         32.6314         1.94376 
        4.36688         32.3305         1.92608 
        4.38255         32.0411         1.90869 
        4.39825         31.8156         1.89147 
        4.41398         31.5966         1.87443 
         4.4297         31.2192         1.85761 
        4.44541         31.0395         1.84101 
        4.46111         30.6997         1.82462 
        4.47683         30.4795         1.80842 
        4.49251          30.176         1.79245 
        4.50819          30.006         1.77668 
         4.5239         29.7841         1.76107 
        4.53962         29.5064         1.74563 
        4.55535         29.3137         1.73037 
        4.57106         29.0179         1.71531 
        4.58678         28.8596         1.70043 
         4.6025         28.4914         1.68572 
        4.61821         28.3574         1.67119 
        4.63391          28.096         1.65685 
         4.6496         27.8443         1.64268 
        4.66532         27.6375         1.62866 
        4.68103         27.4162          1.6148 
        4.69673          27.198         1.60112 
        4.71241         27.0662         1.58761 
        4.72811         26.7415         1.57424 
        4.74384         26.6166           1.561 
        4.75955         26.3376         1.54793 
        4.77525         26.1289         1.53503 
        4.79096         25.9717         1.52225 
        4.80669         25.7016         1.50961 
         4.8224         25.5483         1.49713 
        4.83809         25.3803          1.4848 
        4.85379         25.1198         1.47261 
         4.8695         24.9179         1.46054 
        4.88521         24.7047         1.44861 
        4.90093          24.501         1.43682 
        4.91663         24.2972         1.42516 
        4.93234          24.132         1.41362 
        4.94807         23.9904          1.4022 
        4.96377         23.7742         1.39093 
        4.97943         23.5387         1.37981 
        4.99514         23.4288         1.36878 
        5.01086         23.2618         1.35786 
        5.02654           23.04         1.34709 
        5.04227          22.898         1.33641 
          5.058         22.7421         1.32583 
        5.07371         22.5551         1.31539 
        5.08942         22.3061         1.30506 
        5.10513         22.2189         1.29484 
        5.12084         22.0538         1.28473 
        5.13656         21.8876         1.27472 
        5.15225         21.6891         1.26484 
        5.16796         21.5339         1.25505 
        5.18369         21.3346         1.24535 
         5.1994          21.211         1.23577 
        5.21509         21.0422          1.2263 
        5.23079         20.9034         1.21692 
        5.24649         20.7678         1.20764 
        5.26217          20.613         1.19847 
        5.27788         20.4617         1.18938 
        5.29359         20.2966         1.18038 
        5.30933         20.0651         1.17147 
        5.32504         19.9768         1.16266 
        5.34073         19.8369         1.15395 
        5.35646         19.6841         1.14531 
        5.37218         19.5255         1.13676 
        5.38789         19.4031          1.1283 
        5.40357         19.2678         1.11995 
        5.41929         19.0775         1.11166 
        5.43502         18.9965         1.10345 
         5.4507         18.8175         1.09535 
        5.46639         18.6903         1.08732 
        5.48212         18.5863         1.07936 
        5.49786         18.3986         1.07147 
        5.51353         18.2749          1.0637 
        5.52921         18.1683         1.05599 
        5.54495           18.03         1.04834 
        5.56066         17.9009         1.04077 
        5.57637         17.7539         1.03328 
        5.59207         17.6189         1.02587 
        5.60778         17.4645         1.01853 
        5.62346         17.3842         1.01127 
        5.63916         17.2848         1.00407 
        5.65487         17.1531        0.996944 
         5.6706          17.026        0.989876 
        5.68633         16.9074        0.982873 
        5.70203          16.753        0.975953 
        5.71773         16.6842          0.9691 
        5.73344         16.5305         0.96231 
        5.74916         16.4398        0.955578 
        5.76486         16.3397        0.948919 
        5.78054         16.2071        0.942335 
        5.79626         16.0713        0.935794 
          5.812         16.0058        0.929309 
         5.8277         15.8479        0.922904 
        5.84339         15.7433         0.91656 
        5.85911         15.6615        0.910263 
        5.87484         15.5211        0.904026 
        5.89053         15.4173         0.89786 
        5.90623         15.3383        0.891748 
        5.92195         15.2197        0.885683 
        5.93767         15.0985        0.879677 
        5.95336         15.0017        0.873737 
        5.96905         14.9066        0.867855 
        5.98476         14.8038        0.862017 
        6.00048         14.6817        0.856232 
        6.01617         14.6144        0.850508 
        6.03185         14.4794        0.844842 
        6.04756         14.3769        0.839215 
        6.06331         14.3015        0.833627 
        6.07903         14.2028        0.828101 
        6.09473         14.0978        0.822631 
        6.11044         13.9945        0.817205 
        6.12616         13.9055        0.811829 
        6.14186         13.7773        0.806507 
        6.15755         13.6995        0.801232 
        6.17326         13.6369        0.796001 
        6.18898         13.5513        0.790814 
        6.20467         13.4549        0.785682 
        6.22036         13.3591        0.780596 
         6.2361          13.265        0.775541 
         6.2518         13.1736         0.77054 
        6.26748         13.0871        0.765593 
        6.28319         12.9995        0.760677 
        6.29893         12.9033        0.755799 
        6.31463         12.8283        0.750972 
        6.33033         12.7573        0.746189 
        6.34604         12.6709        0.741444 
        6.36177         12.5623        0.736735 
        6.37747          12.502        0.732077 
