# k  (h/Mpc)    Pcb(k)  (Mpc/h)^3    Pcb_linear(k) (Mpc/h)^3   ShotnoiseSubtracted = true
      0.0200456          33.309         33.7509 
      0.0350414         24.5941         24.5357 
      0.0492313         17.9079         17.8272 
      0.0637834         14.8409         14.8196 
      0.0800726          11.762         11.7619 
       0.096163         8.57223         8.53431 
       0.111083         6.83075         6.80719 
       0.126058         6.03131         6.03255 
       0.142273         5.10901          5.1109 
       0.158546         4.05495         4.03654 
        0.17375         3.40691         3.40078 
       0.188953         3.07773         3.07933 
       0.204907         2.73439         2.72458 
       0.220756         2.31296         2.30516 
        0.23588         2.01235         2.00529 
         0.2514          1.8219         1.82178 
       0.267535         1.64732          1.6484 
       0.283568         1.45587         1.45367 
       0.299022         1.29889         1.29514 
       0.314451         1.18093         1.18367 
       0.330372         1.08498         1.08589 
       0.346141         0.98546        0.985609 
       0.361624        0.897243        0.895783 
       0.377134        0.826322        0.824262 
       0.392932        0.758496        0.762673 
       0.408854         0.70422        0.703038 
       0.424564         0.64701           0.648 
       0.440253        0.600652        0.600771 
       0.455999        0.560904        0.559704 
       0.471626        0.523448        0.521963 
        0.48727        0.486373        0.486659 
       0.502856        0.454199        0.454943 
       0.518488        0.428192        0.426645 
       0.534347         0.40275        0.400337 
       0.550082        0.375957         0.37608 
       0.565732        0.352059        0.353889 
       0.581496         0.33386        0.333564 
       0.597222        0.315469        0.314924 
       0.612804        0.297879        0.297784 
       0.628434        0.282806        0.281808 
       0.644267        0.267043        0.266871 
       0.660051        0.252852        0.253105 
       0.675724        0.240764        0.240394 
       0.691403        0.229173        0.228545 
       0.707174         0.21777        0.217428 
       0.722871        0.206553        0.207095 
        0.73838        0.198054        0.197543 
       0.754018        0.189382        0.188522 
       0.769845        0.180739        0.179966 
        0.78569        0.172358        0.171934 
       0.801365        0.164623        0.164473 
       0.817031        0.157747        0.157461 
       0.832809        0.151168        0.150815 
       0.848511        0.144804        0.144584 
       0.864097         0.13862         0.13875 
       0.879701        0.132964        0.133234 
       0.895507        0.128416        0.127954 
       0.911279        0.123205        0.122972 
        0.92691        0.118321        0.118298 
       0.942635         0.11407        0.113843 
       0.958396        0.109635        0.109608 
       0.974128        0.105638        0.105598 
       0.989692        0.101948        0.101828 
        1.00528       0.0986077        0.098238 
        1.02113       0.0946176       0.0947653 
        1.03692       0.0915071       0.0914741 
        1.05264       0.0884676       0.0883549 
        1.06832       0.0855274       0.0853866 
        1.08405       0.0825397       0.0825474 
        1.09979       0.0797806        0.079836 
        1.11537       0.0775773       0.0772739 
        1.13105       0.0750156       0.0748093 
        1.14679       0.0727849       0.0724431 
        1.16256       0.0701325        0.070175 
        1.17828       0.0679972       0.0680118 
        1.19395        0.065878       0.0659475 
         1.2097       0.0639235       0.0639587 
        1.22537       0.0622619       0.0620617 
          1.241       0.0603261       0.0602477 
        1.25666       0.0586628        0.058502 
        1.27241       0.0569069       0.0568174 
        1.28819        0.055304       0.0551966 
        1.30392       0.0536518       0.0536439 
        1.31957       0.0522474       0.0521581 
        1.33529       0.0506903       0.0507232 
        1.35108       0.0494026       0.0493369 
        1.36674       0.0478507       0.0480124 
         1.3824       0.0468944       0.0467379 
        1.39811       0.0455515       0.0455055 
        1.41389       0.0443284       0.0443131 
        1.42964       0.0433291       0.0431654 
        1.44531       0.0420442       0.0420642 
        1.46101       0.0410423       0.0409991 
        1.47667       0.0399601       0.0399742 
        1.49229       0.0389931       0.0389871 
        1.50793       0.0379938       0.0380324 
        1.52367       0.0371052       0.0371035 
        1.53953       0.0363028       0.0361996 
        1.55526       0.0353978        0.035333 
        1.57092       0.0344017       0.0344985 
        1.58662       0.0337066       0.0336889 
        1.60235       0.0330055       0.0329039 
        1.61809       0.0320762       0.0321435 
        1.63369       0.0314399        0.031414 
        1.64941       0.0307925        0.030702 
        1.66519       0.0300289       0.0300095 
        1.68085       0.0293251       0.0293433 
        1.69652       0.0286375       0.0286972 
        1.71228       0.0281264       0.0280669 
        1.72806        0.027398       0.0274551 
        1.74368       0.0268582       0.0268677 
        1.75933       0.0263113       0.0262964 
        1.77505        0.025732        0.025739 
        1.79081       0.0252227       0.0251968 
         1.8065       0.0246176       0.0246726 
        1.82218       0.0241648       0.0241638 
        1.83797       0.0236479       0.0236659 
        1.85367       0.0231476       0.0231848 
        1.86928       0.0227552       0.0227199 
        1.88497       0.0223046       0.0222653 
        1.90073       0.0218526       0.0218215 
        1.91647       0.0213393       0.0213902 
        1.93218       0.0209325       0.0209715 
        1.94787       0.0205227       0.0205646 
        1.96363       0.0201786        0.020167 
        1.97935       0.0197368       0.0197807 
        1.99499       0.0193811       0.0194067 
        2.01064       0.0190689       0.0190418 
         2.0264       0.0187154        0.018684 
        2.04216       0.0182972       0.0183357 
        2.05781       0.0180003       0.0179984 
        2.07353       0.0176103       0.0176684 
        2.08928       0.0173369       0.0173459 
        2.10499       0.0169515       0.0170324 
        2.12065       0.0167221       0.0167276 
        2.13633       0.0163789         0.01643 
        2.15211       0.0161525       0.0161377 
        2.16785       0.0158641       0.0158534 
        2.18349       0.0155135       0.0155777 
        2.19916       0.0153281        0.015308 
        2.21489       0.0150765       0.0150438 
        2.23063       0.0147793       0.0147856 
         2.2463       0.0144818       0.0145347 
        2.26194       0.0142422       0.0142902 
        2.27765       0.0140186       0.0140501 
        2.29341       0.0138161       0.0138149 
        2.30914       0.0135642       0.0135856 
        2.32486       0.0133417       0.0133616 
        2.34061       0.0131308       0.0131423 
        2.35635         0.01289       0.0129281 
        2.37203       0.0126821       0.0127194 
        2.38768       0.0124599       0.0125158 
        2.40339       0.0122715       0.0123159 
        2.41914       0.0120968       0.0121199 
        2.43483       0.0118564       0.0119289 
         2.4505       0.0117074       0.0117423 
        2.46622        0.011532        0.011559 
        2.48195       0.0113233       0.0113797 
        2.49759        0.011159       0.0112051 
        2.51328       0.0110191       0.0110338 
        2.52906       0.0108539       0.0108649 
        2.54479       0.0106882       0.0107002 
        2.56049       0.0105185       0.0105392 
        2.57618       0.0103642       0.0103817 
        2.59189       0.0101997       0.0102272 
        2.60758       0.0100436       0.0100761 
        2.62325      0.00989984      0.00992816 
        2.63898      0.00974587      0.00978272 
        2.65468      0.00961302      0.00964049 
        2.67044      0.00948802      0.00950049 
        2.68618      0.00934748      0.00936359 
        2.70184      0.00919563      0.00922994 
        2.71755      0.00905412      0.00909856 
        2.73329      0.00892358      0.00896954 
        2.74897      0.00882652      0.00884344 
        2.76462      0.00868296      0.00872005 
        2.78034      0.00856405       0.0085985 
        2.79607      0.00845038      0.00847914 
        2.81179      0.00833242      0.00836219 
        2.82749      0.00821472      0.00824757 
        2.84321      0.00810161      0.00813498 
        2.85893      0.00798171      0.00802452 
        2.87462      0.00787162       0.0079163 
        2.89033      0.00780034      0.00780998 
        2.90605       0.0076727      0.00770552 
        2.92176      0.00759487      0.00760302 
        2.93747      0.00746958      0.00750244 
        2.95318      0.00737271      0.00740366 
        2.96891      0.00728647      0.00730661 
        2.98456      0.00720964      0.00721173 
        3.00023      0.00709488       0.0071184 
        3.01596      0.00697833      0.00702643 
        3.03164       0.0069301      0.00693635 
        3.04738      0.00682507      0.00684759 
         3.0631      0.00671547       0.0067604 
        3.07883      0.00663999      0.00667474 
        3.09456      0.00658186      0.00659057 
        3.11026      0.00647918      0.00650798 
        3.12596      0.00640931      0.00642681 
        3.14163      0.00632131      0.00634722 
        3.15734       0.0062416      0.00626879 
        3.17308      0.00615597      0.00619149 
        3.18879      0.00610053      0.00611571 
        3.20447      0.00602292      0.00604131 
         3.2202      0.00595026      0.00596792 
         3.2359      0.00587695      0.00589587 
        3.25157      0.00580327      0.00582519 
        3.26729      0.00575223      0.00575545 
        3.28304      0.00566908      0.00568672 
        3.29877      0.00561153       0.0056192 
        3.31446      0.00554275      0.00555292 
        3.33014      0.00547024      0.00548777 
        3.34585      0.00539372      0.00542356 
        3.36158       0.0053433      0.00536029 
        3.37727      0.00528822      0.00529822 
        3.39294      0.00523187      0.00523719 
        3.40867      0.00518088      0.00517691 
        3.42439      0.00511001       0.0051176 
        3.44008      0.00505631      0.00505934 
        3.45578      0.00499289      0.00500195 
        3.47153      0.00494319      0.00494532 
        3.48724      0.00489948      0.00488966 
        3.50292      0.00482082      0.00483499 
        3.51859      0.00477532      0.00478118 
        3.53431      0.00473032      0.00472802 
        3.55007       0.0046981      0.00467555 
        3.56577      0.00464774      0.00462407 
        3.58146      0.00456718      0.00457339 
        3.59719       0.0045309      0.00452335 
        3.61292      0.00447788      0.00447408 
        3.62859      0.00444188      0.00442573 
        3.64429         0.00439        0.004378 
        3.66003      0.00434897      0.00433083 
        3.67578      0.00429807      0.00428437 
        3.69146       0.0042561      0.00423877 
        3.70712      0.00421887      0.00419391 
        3.72284      0.00416876      0.00414954 
        3.73853      0.00412683      0.00410588 
        3.75422      0.00409573      0.00406284 
        3.76993      0.00404414      0.00402037 
        3.78564      0.00402388      0.00397853 
        3.80137       0.0039806      0.00393722 
        3.81707      0.00393142      0.00389658 
        3.83279      0.00390002      0.00385648 
        3.84853      0.00386152      0.00381688 
        3.86424      0.00381149      0.00377792 
        3.87992      0.00378302      0.00373955 
        3.89561      0.00375107      0.00370172 
        3.91134      0.00371959      0.00366433 
        3.92704      0.00367731       0.0036275 
        3.94273      0.00365725      0.00359121 
        3.95845      0.00360572      0.00355535 
        3.97418      0.00357093      0.00351998 
        3.98988      0.00355618      0.00348513 
        4.00554      0.00350661      0.00345085 
        4.02125      0.00346652      0.00341694 
        4.03698      0.00343308      0.00338342 
        4.05268      0.00339378      0.00335043 
        4.06839      0.00336703      0.00331786 
         4.0841      0.00332508      0.00328573 
        4.09983      0.00329778      0.00325398 
        4.11555      0.00326746      0.00322266 
        4.13124      0.00323218      0.00319184 
        4.14693       0.0032098       0.0031614 
        4.16266      0.00317381      0.00313128 
        4.17839      0.00314691      0.00310158 
        4.19408      0.00312055      0.00307232 
        4.20977      0.00310241      0.00304343 
        4.22551      0.00307567      0.00301485 
        4.24123      0.00304772      0.00298666 
        4.25691      0.00302327       0.0029589 
        4.27259      0.00300302      0.00293149 
        4.28831      0.00299012      0.00290437 
        4.30404      0.00296237      0.00287757 
        4.31974      0.00294449      0.00285117 
        4.33543      0.00292543      0.00282511 
        4.35116       0.0029053      0.00279931 
        4.36688      0.00288774      0.00277385 
        4.38255      0.00288146       0.0027488 
        4.39825       0.0028609        0.002724 
        4.41398      0.00285044      0.00269946 
         4.4297       0.0028395      0.00267525 
        4.44541      0.00283024      0.00265133 
        4.46111      0.00281123      0.00262773 
        4.47683      0.00281008       0.0026044 
        4.49251      0.00279705       0.0025814 
        4.50819      0.00279025      0.00255868 
         4.5239      0.00279016      0.00253621 
        4.53962      0.00277815      0.00251397 
        4.55535      0.00277379      0.00249199 
        4.57106      0.00277634      0.00247031 
        4.58678      0.00277086      0.00244888 
         4.6025       0.0027737       0.0024277 
        4.61821       0.0027733      0.00240677 
        4.63391      0.00276914      0.00238611 
         4.6496      0.00277984      0.00236571 
        4.66532      0.00276865      0.00234551 
        4.68103      0.00277463      0.00232556 
        4.69673       0.0027755      0.00230586 
        4.71241       0.0027886       0.0022864 
        4.72811      0.00279977      0.00226714 
        4.74384      0.00280205      0.00224808 
        4.75955      0.00281502      0.00222926 
        4.77525      0.00282497      0.00221067 
        4.79096      0.00283526      0.00219227 
        4.80669       0.0028428      0.00217407 
         4.8224      0.00285576      0.00215609 
        4.83809      0.00287321      0.00213834 
        4.85379      0.00289684      0.00212078 
         4.8695      0.00291219       0.0021034 
        4.88521      0.00291383      0.00208622 
        4.90093      0.00294494      0.00206923 
        4.91663      0.00296749      0.00205245 
        4.93234      0.00297894      0.00203583 
        4.94807      0.00301613      0.00201939 
        4.96377       0.0030473      0.00200316 
        4.97943      0.00307022      0.00198714 
        4.99514      0.00309712      0.00197125 
        5.01086      0.00310516      0.00195553 
        5.02654       0.0031452      0.00194002 
        5.04227      0.00316782      0.00192463 
          5.058      0.00321061       0.0019094 
        5.07371      0.00326119      0.00189436 
        5.08942      0.00328865      0.00187949 
        5.10513      0.00330404      0.00186477 
        5.12084      0.00335481       0.0018502 
        5.13656       0.0033854      0.00183579 
        5.15225      0.00344027      0.00182156 
        5.16796      0.00347843      0.00180746 
        5.18369       0.0035304      0.00179349 
         5.1994      0.00358627       0.0017797 
        5.21509      0.00361591      0.00176606 
        5.23079      0.00365838      0.00175255 
        5.24649      0.00372947      0.00173919 
        5.26217      0.00377758      0.00172598 
        5.27788      0.00383781      0.00171289 
        5.29359      0.00389315      0.00169993 
        5.30933       0.0039496      0.00168709 
        5.32504      0.00401285       0.0016744 
        5.34073      0.00409075      0.00166186 
        5.35646      0.00414414      0.00164942 
        5.37218      0.00419274       0.0016371 
        5.38789      0.00426632      0.00162493 
        5.40357      0.00433581       0.0016129 
        5.41929      0.00441082      0.00160096 
        5.43502      0.00449851      0.00158914 
         5.4507      0.00458924      0.00157747 
        5.46639      0.00467499      0.00156591 
        5.48212      0.00473272      0.00155445 
        5.49786      0.00485007      0.00154308 
        5.51353      0.00490953      0.00153188 
        5.52921      0.00497638      0.00152079 
        5.54495      0.00509997      0.00150977 
        5.56066      0.00520409      0.00149887 
        5.57637      0.00530313      0.00148808 
        5.59207      0.00539885      0.00147741 
        5.60778      0.00551827      0.00146684 
        5.62346      0.00563228      0.00145638 
        5.63916      0.00572048      0.00144602 
        5.65487      0.00583603      0.00143575 
         5.6706      0.00595268      0.00142557 
        5.68633      0.00609736      0.00141549 
        5.70203      0.00620524      0.00140552 
        5.71773      0.00637733      0.00139565 
        5.73344      0.00647282      0.00138587 
        5.74916      0.00663555      0.00137618 
        5.76486      0.00678989      0.00136659 
        5.78054      0.00691702      0.00135711 
        5.79626      0.00705025      0.00134769 
          5.812      0.00723092      0.00133835 
         5.8277      0.00737809      0.00132912 
        5.84339      0.00761663      0.00131999 
        5.85911      0.00775283      0.00131092 
        5.87484      0.00796766      0.00130193 
        5.89053      0.00813111      0.00129305 
        5.90623      0.00836635      0.00128425 
        5.92195      0.00852743      0.00127552 
        5.93767      0.00867911      0.00126687 
        5.95336      0.00888167      0.00125831 
        5.96905      0.00918359      0.00124984 
        5.98476      0.00931262      0.00124144 
        6.00048      0.00954866       0.0012331 
        6.01617      0.00982747      0.00122486 
        6.03185      0.00997454       0.0012167 
        6.04756       0.0103022       0.0012086 
        6.06331       0.0105249      0.00120055 
        6.07903       0.0107969      0.00119259 
        6.09473       0.0110622      0.00118471 
        6.11044       0.0113802       0.0011769 
        6.12616       0.0116086      0.00116916 
        6.14186       0.0118842      0.00116149 
        6.15755       0.0122614       0.0011539 
        6.17326       0.0126025      0.00114636 
        6.18898        0.012912      0.00113889 
        6.20467       0.0132672       0.0011315 
        6.22036       0.0136299      0.00112418 
         6.2361       0.0139462       0.0011169 
         6.2518       0.0142785      0.00110969 
        6.26748       0.0146875      0.00110257 
        6.28319       0.0151271      0.00109549 
        6.29893       0.0154722      0.00108846 
        6.31463       0.0159671      0.00108151 
        6.33033       0.0163932      0.00107462 
        6.34604       0.0167734      0.00106779 
        6.36177       0.0173428      0.00106101 
        6.37747       0.0179076       0.0010543 
