# k  (h/Mpc)    Pcb(k)  (Mpc/h)^3    Pcb_linear(k) (Mpc/h)^3   ShotnoiseSubtracted = true
      0.0200456         230.941         234.067 
      0.0350414         170.114         170.159 
      0.0492313         124.158         123.634 
      0.0637834         103.171         102.776 
      0.0800726         81.7739         81.5708 
       0.096163         59.2795         59.1867 
       0.111083         47.1705         47.2088 
       0.126058         41.8746         41.8366 
       0.142273         35.5247         35.4448 
       0.158546         28.1765          27.994 
        0.17375          23.566         23.5849 
       0.188953          21.376         21.3556 
       0.204907         19.1471         18.8954 
       0.220756         16.1044         15.9866 
        0.23588         14.0094          13.907 
         0.2514         12.6525         12.6343 
       0.267535         11.4577         11.4319 
       0.283568         10.1382         10.0814 
       0.299022         9.06472         8.98202 
       0.314451         8.18629         8.20895 
       0.330372         7.54699         7.53079 
       0.346141         6.85562         6.83534 
       0.361624         6.25528         6.21239 
       0.377134         5.77975         5.71638 
       0.392932         5.24044         5.28925 
       0.408854         4.92109         4.87567 
       0.424564         4.51133         4.49397 
       0.440253         4.18606         4.16644 
       0.455999         3.92138         3.88163 
       0.471626         3.66865         3.61989 
        0.48727         3.39941         3.37505 
       0.502856         3.16796          3.1551 
       0.518488          3.0065         2.95885 
       0.534347         2.83973          2.7764 
       0.550082         2.62396         2.60817 
       0.565732         2.43831         2.45427 
       0.581496          2.3399         2.31332 
       0.597222         2.21648         2.18404 
       0.612804          2.0825         2.06517 
       0.628434         1.99015         1.95438 
       0.644267         1.87472         1.85079 
       0.660051         1.77116         1.75532 
       0.675724         1.68808         1.66717 
       0.691403         1.61296         1.58499 
       0.707174         1.52698          1.5079 
       0.722871         1.44792         1.43623 
        0.73838         1.39246         1.36999 
       0.754018         1.33779         1.30743 
       0.769845         1.27098         1.24809 
        0.78569         1.21382         1.19239 
       0.801365         1.15787         1.14064 
       0.817031         1.11202         1.09201 
       0.832809         1.06472         1.04592 
       0.848511         1.01594         1.00271 
       0.864097        0.970477        0.962252 
       0.879701        0.931759        0.923996 
       0.895507        0.901881        0.887378 
       0.911279        0.869389        0.852831 
        0.92691        0.833497        0.820417 
       0.942635        0.801851        0.789516 
       0.958396        0.769214        0.760149 
       0.974128        0.741343        0.732335 
       0.989692        0.718121        0.706193 
        1.00528        0.692678        0.681295 
        1.02113        0.662383        0.657212 
        1.03692        0.644744        0.634386 
        1.05264        0.621811        0.612754 
        1.06832        0.602051        0.592169 
        1.08405        0.576715        0.572478 
        1.09979        0.558587        0.553675 
        1.11537        0.545084        0.535906 
        1.13105        0.527168        0.518813 
        1.14679        0.513172        0.502403 
        1.16256         0.49114        0.486674 
        1.17828        0.476771        0.471672 
        1.19395        0.461145        0.457356 
         1.2097        0.445309        0.443563 
        1.22537        0.436401        0.430407 
          1.241        0.422471        0.417827 
        1.25666        0.413405         0.40572 
        1.27241        0.397643        0.394037 
        1.28819        0.386009        0.382797 
        1.30392        0.376093        0.372029 
        1.31957        0.366063        0.361724 
        1.33529        0.354596        0.351773 
        1.35108        0.344655        0.342158 
        1.36674        0.332437        0.332973 
         1.3824        0.328093        0.324134 
        1.39811        0.317363        0.315588 
        1.41389        0.309585        0.307318 
        1.42964        0.302816        0.299359 
        1.44531        0.292067        0.291721 
        1.46101        0.286382        0.284335 
        1.47667        0.276351        0.277227 
        1.49229        0.271608        0.270382 
        1.50793        0.263294         0.26376 
        1.52367        0.257835        0.257319 
        1.53953        0.251468        0.251049 
        1.55526        0.245609         0.24504 
        1.57092        0.237905        0.239252 
        1.58662         0.23351        0.233638 
        1.60235        0.228678        0.228193 
        1.61809          0.2209         0.22292 
        1.63369        0.218523        0.217861 
        1.64941         0.21254        0.212923 
        1.66519        0.206973         0.20812 
        1.68085        0.201614          0.2035 
        1.69652        0.197153        0.199019 
        1.71228        0.193858        0.194648 
        1.72806        0.187846        0.190405 
        1.74368        0.185258        0.186332 
        1.75933        0.180655        0.182369 
        1.77505        0.176445        0.178504 
        1.79081        0.173403        0.174744 
         1.8065        0.168094        0.171108 
        1.82218        0.165422        0.167579 
        1.83797         0.16144        0.164126 
        1.85367        0.158573         0.16079 
        1.86928        0.155438        0.157566 
        1.88497        0.152321        0.154413 
        1.90073        0.148675        0.151336 
        1.91647        0.145699        0.148344 
        1.93218        0.142358        0.145441 
        1.94787        0.139494        0.142619 
        1.96363        0.136987        0.139861 
        1.97935        0.133534        0.137182 
        1.99499        0.131461        0.134588 
        2.01064        0.129057        0.132058 
         2.0264        0.126072        0.129577 
        2.04216        0.124284         0.12716 
        2.05781          0.1216        0.124821 
        2.07353        0.118498        0.122533 
        2.08928        0.116413        0.120297 
        2.10499         0.11411        0.118123 
        2.12065        0.112638        0.116009 
        2.13633        0.109903        0.113945 
        2.15211        0.108601        0.111918 
        2.16785        0.106127        0.109946 
        2.18349        0.103466        0.108034 
        2.19916        0.102711        0.106163 
        2.21489        0.100616        0.104331 
        2.23063       0.0988092         0.10254 
         2.2463       0.0966868          0.1008 
        2.26194       0.0948505       0.0991048 
        2.27765       0.0931159       0.0974397 
        2.29341       0.0919044       0.0958085 
        2.30914       0.0898305       0.0942181 
        2.32486       0.0882637       0.0926647 
        2.34061       0.0868871       0.0911438 
        2.35635       0.0852397       0.0896584 
        2.37203       0.0838039       0.0882113 
        2.38768       0.0823298       0.0867991 
        2.40339       0.0809438       0.0854127 
        2.41914        0.079877       0.0840535 
        2.43483       0.0781529       0.0827286 
         2.4505       0.0765829       0.0814345 
        2.46622         0.07541       0.0801637 
        2.48195       0.0740136         0.07892 
        2.49759       0.0733812       0.0777092 
        2.51328       0.0721743       0.0765208 
        2.52906        0.070742       0.0753497 
        2.54479       0.0694244       0.0742075 
        2.56049       0.0683806       0.0730912 
        2.57618       0.0672737       0.0719988 
        2.59189       0.0662636       0.0709271 
        2.60758       0.0654773        0.069879 
        2.62325       0.0641709       0.0688533 
        2.63898       0.0632107       0.0678446 
        2.65468        0.061921       0.0668582 
        2.67044       0.0613833       0.0658873 
        2.68618       0.0603093       0.0649379 
        2.70184       0.0592341        0.064011 
        2.71755       0.0581187       0.0630999 
        2.73329       0.0575005       0.0622051 
        2.74897        0.056781       0.0613306 
        2.76462       0.0556715       0.0604748 
        2.78034       0.0549382       0.0596319 
        2.79607       0.0539876       0.0588041 
        2.81179       0.0533804        0.057993 
        2.82749       0.0524047       0.0571982 
        2.84321       0.0516712       0.0564173 
        2.85893       0.0509871       0.0556512 
        2.87462       0.0504692       0.0549007 
        2.89033       0.0495428       0.0541633 
        2.90605       0.0486033       0.0534389 
        2.92176       0.0481552       0.0527281 
        2.93747       0.0474079       0.0520305 
        2.95318       0.0465915       0.0513455 
        2.96891       0.0460682       0.0506724 
        2.98456       0.0455151       0.0500144 
        3.00023       0.0446947       0.0493672 
        3.01596       0.0441041       0.0487294 
        3.03164       0.0437025       0.0481046 
        3.04738       0.0429345        0.047489 
         3.0631        0.042225       0.0468844 
        3.07883       0.0416813       0.0462903 
        3.09456       0.0412845       0.0457066 
        3.11026       0.0406155       0.0451338 
        3.12596       0.0402236       0.0445709 
        3.14163       0.0395805       0.0440189 
        3.15734       0.0391205        0.043475 
        3.17308       0.0386125       0.0429389 
        3.18879       0.0380246       0.0424134 
        3.20447         0.03765       0.0418974 
         3.2202       0.0371628       0.0413884 
         3.2359       0.0367484       0.0408888 
        3.25157       0.0361441       0.0403986 
        3.26729       0.0356941       0.0399149 
        3.28304       0.0353703       0.0394382 
        3.29877       0.0348939         0.03897 
        3.31446       0.0344189       0.0385103 
        3.33014        0.034084       0.0380585 
        3.34585       0.0336226       0.0376132 
        3.36158       0.0331434       0.0371744 
        3.37727       0.0328584       0.0367439 
        3.39294        0.032487       0.0363207 
        3.40867       0.0320371       0.0359026 
        3.42439       0.0316951       0.0354913 
        3.44008        0.031315       0.0350873 
        3.45578       0.0310975       0.0346893 
        3.47153       0.0306094       0.0342965 
        3.48724       0.0304408       0.0339105 
        3.50292       0.0299333       0.0335314 
        3.51859       0.0295336       0.0331582 
        3.53431       0.0293833       0.0327895 
        3.55007       0.0290067       0.0324256 
        3.56577       0.0287499       0.0320686 
        3.58146       0.0283585       0.0317171 
        3.59719       0.0281387       0.0313701 
        3.61292       0.0277581       0.0310284 
        3.62859       0.0274753       0.0306931 
        3.64429       0.0272665       0.0303621 
        3.66003       0.0269056        0.030035 
        3.67578       0.0266811       0.0297128 
        3.69146       0.0264354       0.0293965 
        3.70712       0.0262589       0.0290854 
        3.72284        0.025942       0.0287777 
        3.73853       0.0256113       0.0284749 
        3.75422       0.0255259       0.0281764 
        3.76993       0.0251578       0.0278819 
        3.78564       0.0249661       0.0275917 
        3.80137       0.0246909       0.0273052 
        3.81707       0.0244208       0.0270234 
        3.83279       0.0242653       0.0267453 
        3.84853       0.0240572       0.0264706 
        3.86424       0.0238075       0.0262004 
        3.87992       0.0236164       0.0259343 
        3.89561       0.0234295       0.0256719 
        3.91134       0.0232093       0.0254127 
        3.92704       0.0229481       0.0251572 
        3.94273       0.0227468       0.0249056 
        3.95845       0.0225689       0.0246569 
        3.97418       0.0223946       0.0244116 
        3.98988       0.0221331       0.0241699 
        4.00554       0.0219036       0.0239322 
        4.02125       0.0215956        0.023697 
        4.03698       0.0213369       0.0234645 
        4.05268       0.0210555       0.0232358 
        4.06839       0.0207358       0.0230099 
         4.0841       0.0204572        0.022787 
        4.09983       0.0201253       0.0225668 
        4.11555       0.0199305       0.0223497 
        4.13124       0.0196546       0.0221359 
        4.14693       0.0192988       0.0219248 
        4.16266       0.0190682       0.0217159 
        4.17839       0.0188883       0.0215099 
        4.19408       0.0186597        0.021307 
        4.20977       0.0184214       0.0211067 
        4.22551        0.018139       0.0209084 
        4.24123       0.0179386       0.0207129 
        4.25691       0.0177503       0.0205204 
        4.27259       0.0175374       0.0203303 
        4.28831       0.0174124       0.0201423 
        4.30404       0.0172036       0.0199564 
        4.31974       0.0170593       0.0197733 
        4.33543       0.0169165       0.0195926 
        4.35116       0.0167441       0.0194137 
        4.36688        0.016608       0.0192371 
        4.38255       0.0164289       0.0190633 
        4.39825       0.0163715       0.0188913 
        4.41398       0.0162997       0.0187211 
         4.4297       0.0161652       0.0185532 
        4.44541       0.0160373       0.0183874 
        4.46111       0.0159441       0.0182237 
        4.47683       0.0158982       0.0180619 
        4.49251        0.015763       0.0179024 
        4.50819       0.0157203       0.0177449 
         4.5239       0.0156187        0.017589 
        4.53962       0.0156299       0.0174348 
        4.55535       0.0155661       0.0172824 
        4.57106       0.0155681        0.017132 
        4.58678       0.0154739       0.0169833 
         4.6025       0.0154947       0.0168364 
        4.61821       0.0154843       0.0166913 
        4.63391       0.0154388        0.016548 
         4.6496       0.0154441       0.0164065 
        4.66532       0.0154446       0.0162665 
        4.68103       0.0154692       0.0161281 
        4.69673       0.0154971       0.0159915 
        4.71241        0.015578       0.0158565 
        4.72811        0.015535        0.015723 
        4.74384       0.0155857       0.0155908 
        4.75955       0.0156832       0.0154603 
        4.77525       0.0157213       0.0153313 
        4.79096       0.0157807       0.0152037 
        4.80669       0.0158104       0.0150775 
         4.8224        0.015981       0.0149528 
        4.83809       0.0160301       0.0148297 
        4.85379       0.0161598       0.0147079 
         4.8695       0.0162453       0.0145874 
        4.88521       0.0163685       0.0144683 
        4.90093       0.0164896       0.0143504 
        4.91663       0.0166956        0.014234 
        4.93234       0.0167592       0.0141188 
        4.94807       0.0168177       0.0140048 
        4.96377       0.0170499       0.0138922 
        4.97943         0.01723       0.0137811 
        4.99514       0.0173978       0.0136709 
        5.01086       0.0175162       0.0135619 
        5.02654       0.0177506       0.0134543 
        5.04227       0.0179682       0.0133476 
          5.058        0.018152        0.013242 
        5.07371       0.0182837       0.0131377 
        5.08942       0.0186926       0.0130345 
        5.10513       0.0188783       0.0129324 
        5.12084        0.019024       0.0128314 
        5.13656       0.0193921       0.0127315 
        5.15225       0.0195839       0.0126328 
        5.16796       0.0199888        0.012535 
        5.18369       0.0201296       0.0124381 
         5.1994       0.0204844       0.0123425 
        5.21509       0.0207914       0.0122479 
        5.23079       0.0210157       0.0121542 
        5.24649       0.0214041       0.0120616 
        5.26217       0.0217603       0.0119699 
        5.27788       0.0220771       0.0118792 
        5.29359       0.0225098       0.0117893 
        5.30933       0.0227461       0.0117002 
        5.32504       0.0231716       0.0116122 
        5.34073       0.0237278       0.0115252 
        5.35646       0.0240335       0.0114389 
        5.37218        0.024446       0.0113535 
        5.38789       0.0250127       0.0112691 
        5.40357       0.0254256       0.0111857 
        5.41929       0.0258088       0.0111029 
        5.43502       0.0264011       0.0110209 
         5.4507       0.0267666         0.01094 
        5.46639       0.0273347       0.0108598 
        5.48212       0.0277508       0.0107803 
        5.49786       0.0283616       0.0107015 
        5.51353       0.0291006       0.0106238 
        5.52921       0.0295887       0.0105469 
        5.54495        0.030317       0.0104705 
        5.56066       0.0308727       0.0103949 
        5.57637        0.031461       0.0103201 
        5.59207       0.0320804        0.010246 
        5.60778       0.0328434       0.0101727 
        5.62346       0.0335103       0.0101002 
        5.63916       0.0341659       0.0100284 
        5.65487       0.0348345      0.00995715 
         5.6706       0.0355508      0.00988655 
        5.68633        0.036577      0.00981661 
        5.70203       0.0373495      0.00974749 
        5.71773       0.0380987      0.00967905 
        5.73344       0.0388932      0.00961123 
        5.74916       0.0399675      0.00954399 
        5.76486       0.0407838      0.00947749 
        5.78054       0.0416958      0.00941173 
        5.79626       0.0426166       0.0093464 
          5.812       0.0436112      0.00928163 
         5.8277        0.044798      0.00921766 
        5.84339       0.0455503      0.00915429 
        5.85911       0.0466271       0.0090914 
        5.87484       0.0478564      0.00902911 
        5.89053       0.0491051      0.00896752 
        5.90623       0.0502948      0.00890648 
        5.92195       0.0514723      0.00884591 
        5.93767       0.0528031      0.00878593 
        5.95336        0.053949       0.0087266 
        5.96905        0.055424      0.00866784 
        5.98476       0.0563993      0.00860954 
        6.00048        0.057804      0.00855176 
        6.01617       0.0592378      0.00849459 
        6.03185       0.0605949        0.008438 
        6.04756        0.062457       0.0083818 
        6.06331       0.0641199      0.00832599 
        6.07903       0.0654818       0.0082708 
        6.09473       0.0672767      0.00821616 
        6.11044       0.0693529      0.00816197 
        6.12616       0.0709103      0.00810828 
        6.14186       0.0727903      0.00805512 
        6.15755       0.0745347      0.00800244 
        6.17326       0.0760499      0.00795019 
        6.18898       0.0785103      0.00789838 
        6.20467       0.0804303      0.00784713 
        6.22036       0.0824823      0.00779633 
         6.2361       0.0842259      0.00774585 
         6.2518       0.0872527       0.0076959 
        6.26748       0.0886961      0.00764649 
        6.28319       0.0920409      0.00759738 
        6.29893       0.0944413      0.00754867 
        6.31463       0.0965678      0.00750046 
        6.33033       0.0993163      0.00745268 
        6.34604        0.101596      0.00740529 
        6.36177        0.104291      0.00735827 
        6.37747        0.107255      0.00731174 
