# k  (h/Mpc)    Pcb(k)  (Mpc/h)^3    Pcb_linear(k) (Mpc/h)^3   ShotnoiseSubtracted = true
      0.0200456         9878.29           10062 
      0.0350414         7113.64         7314.76 
      0.0492313         5276.69         5314.77 
      0.0637834         4502.67         4418.12 
      0.0800726         3564.28         3506.55 
       0.096163         2495.51         2544.31 
       0.111083         1983.54         2029.41 
       0.126058         1825.34         1798.47 
       0.142273          1575.7          1523.7 
       0.158546         1309.66          1203.4 
        0.17375         1053.03         1013.86 
       0.188953         1012.32         918.031 
       0.204907         949.706         812.271 
       0.220756         804.508          687.23 
        0.23588         706.994         597.831 
         0.2514         618.863         543.123 
       0.267535         599.159         491.433 
       0.283568         542.998         433.378 
       0.299022         504.728         386.117 
       0.314451         471.388         352.885 
       0.330372         435.193         323.732 
       0.346141         393.611         293.836 
       0.361624         377.943         267.057 
       0.377134         352.344         245.735 
       0.392932          331.28         227.373 
       0.408854         317.637         209.594 
       0.424564         302.934         193.186 
       0.440253         290.669         179.106 
       0.455999         273.457         166.863 
       0.471626         254.149         155.611 
        0.48727         246.864         145.086 
       0.502856         238.159         135.631 
       0.518488         234.664         127.194 
       0.534347         221.605         119.351 
       0.550082         207.363          112.12 
       0.565732          203.13         105.504 
       0.581496         193.252         99.4444 
       0.597222         188.077         93.8873 
       0.612804         180.778         88.7774 
       0.628434         175.298         84.0145 
       0.644267         169.423         79.5616 
       0.660051         167.279         75.4576 
       0.675724         163.111          71.668 
       0.691403          158.27         68.1355 
       0.707174         151.548         64.8211 
       0.722871         150.196         61.7405 
        0.73838         146.926          58.893 
       0.754018         141.802         56.2035 
       0.769845         138.308         53.6529 
        0.78569         135.748         51.2583 
       0.801365         131.959         49.0337 
       0.817031          127.41         46.9432 
       0.832809         125.666         44.9619 
       0.848511         122.297         43.1044 
       0.864097         119.659         41.3651 
       0.879701         117.494         39.7206 
       0.895507         114.652         38.1465 
       0.911279         112.805         36.6613 
        0.92691         111.034         35.2679 
       0.942635         108.229         33.9396 
       0.958396         107.882         32.6771 
       0.974128         104.875         31.4815 
       0.989692         102.297         30.3577 
        1.00528         100.254         29.2874 
        1.02113         99.4119         28.2521 
        1.03692         95.7599         27.2709 
        1.05264          95.624          26.341 
        1.06832         93.1425         25.4561 
        1.08405         91.9298         24.6096 
        1.09979         91.4024         23.8013 
        1.11537         88.2605         23.0374 
        1.13105         88.3254         22.3027 
        1.14679         87.0063         21.5972 
        1.16256         85.7469         20.9211 
        1.17828         83.4627         20.2762 
        1.19395         82.6627         19.6607 
         1.2097         80.5706         19.0678 
        1.22537         80.8106         18.5023 
          1.241         78.8204         17.9615 
        1.25666          77.258          17.441 
        1.27241         76.3872         16.9388 
        1.28819         75.1245         16.4556 
        1.30392         74.1921         15.9927 
        1.31957         73.2319         15.5497 
        1.33529         71.9504          15.122 
        1.35108         71.4924         14.7087 
        1.36674         70.5723         14.3138 
         1.3824         69.1863         13.9338 
        1.39811         68.5512         13.5664 
        1.41389         67.4993         13.2109 
        1.42964         66.7824         12.8688 
        1.44531         65.4655         12.5405 
        1.46101         64.5574         12.2229 
        1.47667         64.4589         11.9174 
        1.49229         63.2848         11.6231 
        1.50793          62.746         11.3385 
        1.52367         61.6776         11.0616 
        1.53953          60.962         10.7921 
        1.55526         60.3079         10.5337 
        1.57092         60.0519         10.2849 
        1.58662         58.9128         10.0436 
        1.60235         58.3969         9.80954 
        1.61809         57.5907         9.58286 
        1.63369         56.6439         9.36536 
        1.64941         56.1056         9.15308 
        1.66519         55.1719         8.94663 
        1.68085         54.7543         8.74802 
        1.69652         53.9138          8.5554 
        1.71228         53.5571          8.3675 
        1.72806         53.0848         8.18511 
        1.74368         52.2854         8.00999 
        1.75933         51.7779         7.83965 
        1.77505         51.1992         7.67348 
        1.79081         50.5876         7.51185 
         1.8065         50.1367         7.35557 
        1.82218         49.4378         7.20388 
        1.83797         48.8355         7.05543 
        1.85367         48.2294           6.912 
        1.86928          47.758         6.77342 
        1.88497         47.3696          6.6379 
        1.90073         46.8161         6.50559 
        1.91647         46.3341           6.377 
        1.93218         45.7924         6.25217 
        1.94787          45.369         6.13088 
        1.96363         44.7989         6.01232 
        1.97935         44.3006         5.89715 
        1.99499         43.7757         5.78565 
        2.01064         43.5274         5.67687 
         2.0264          42.661         5.57021 
        2.04216         42.3599         5.46635 
        2.05781            41.8          5.3658 
        2.07353         41.4097         5.26742 
        2.08928         41.0902          5.1713 
        2.10499         40.5908         5.07783 
        2.12065         40.1431         4.98696 
        2.13633         39.9986         4.89823 
        2.15211         39.4312          4.8111 
        2.16785         38.7123         4.72633 
        2.18349         38.5352         4.64413 
        2.19916         38.2241         4.56372 
        2.21489          37.697         4.48495 
        2.23063         37.2729         4.40799 
         2.2463         36.8189         4.33318 
        2.26194         36.4353          4.2603 
        2.27765         36.0737         4.18872 
        2.29341         35.7175          4.1186 
        2.30914         35.3639         4.05023 
        2.32486         34.9051         3.98345 
        2.34061         34.6581         3.91807 
        2.35635         34.3432         3.85422 
        2.37203         34.0162         3.79201 
        2.38768         33.5925          3.7313 
        2.40339         33.4375         3.67171 
        2.41914         33.1114         3.61328 
        2.43483         32.5296         3.55632 
         2.4505         32.3258         3.50069 
        2.46622         32.0637         3.44606 
        2.48195         31.7853          3.3926 
        2.49759         31.3752         3.34055 
        2.51328         30.9818         3.28946 
        2.52906         30.8611         3.23912 
        2.54479         30.3897         3.19002 
        2.56049         30.1303         3.14203 
        2.57618         29.7983         3.09507 
        2.59189         29.6543           3.049 
        2.60758         29.3869         3.00394 
        2.62325         28.9347         2.95985 
        2.63898         28.8151         2.91649 
        2.65468         28.3924         2.87409 
        2.67044         28.2064         2.83235 
        2.68618         27.8852         2.79154 
        2.70184         27.5864         2.75169 
        2.71755         27.4652         2.71253 
        2.73329         27.1299         2.67406 
        2.74897         26.8157         2.63647 
        2.76462         26.5651         2.59968 
        2.78034         26.4522         2.56345 
        2.79607         26.1366         2.52786 
        2.81179         25.9041         2.49299 
        2.82749         25.6746         2.45882 
        2.84321         25.2824         2.42526 
        2.85893         25.0795         2.39233 
        2.87462         24.8732         2.36006 
        2.89033         24.6704         2.32836 
        2.90605         24.4827         2.29722 
        2.92176         24.3203         2.26667 
        2.93747         24.0428         2.23668 
        2.95318         23.6917         2.20723 
        2.96891         23.5911          2.1783 
        2.98456         23.2754         2.15001 
        3.00023         23.0824         2.12219 
        3.01596         22.8547         2.09477 
        3.03164         22.6287         2.06791 
        3.04738         22.4839         2.04145 
         3.0631         22.2743         2.01546 
        3.07883         22.0917         1.98992 
        3.09456         21.8224         1.96483 
        3.11026         21.6396          1.9402 
        3.12596         21.4635         1.91601 
        3.14163         21.3214         1.89228 
        3.15734         21.1112         1.86889 
        3.17308         20.9351         1.84585 
        3.18879         20.7082         1.82326 
        3.20447         20.5228         1.80108 
         3.2202         20.3499          1.7792 
         3.2359         20.0831         1.75772 
        3.25157         20.0829         1.73665 
        3.26729         19.8682         1.71586 
        3.28304         19.6586         1.69536 
        3.29877         19.3357         1.67523 
        3.31446         19.2838         1.65547 
        3.33014         19.0738         1.63605 
        3.34585         18.8727         1.61691 
        3.36158         18.7629         1.59805 
        3.37727         18.5542         1.57954 
        3.39294         18.3791         1.56135 
        3.40867         18.2308         1.54338 
        3.42439         18.0829          1.5257 
        3.44008         17.8941         1.50833 
        3.45578          17.728         1.49122 
        3.47153         17.5963         1.47433 
        3.48724         17.4142         1.45774 
        3.50292          17.307         1.44144 
        3.51859         17.1278          1.4254 
        3.53431         16.9683         1.40955 
        3.55007           16.84         1.39391 
        3.56577         16.6746         1.37856 
        3.58146         16.5572         1.36345 
        3.59719         16.3965         1.34853 
        3.61292         16.2466         1.33385 
        3.62859           16.11         1.31943 
        3.64429         15.9623          1.3052 
        3.66003         15.8252         1.29114 
        3.67578         15.7048         1.27729 
        3.69146         15.5992         1.26369 
        3.70712         15.3996         1.25032 
        3.72284         15.3644         1.23709 
        3.73853         15.2006         1.22407 
        3.75422         14.9856         1.21124 
        3.76993         14.9046         1.19858 
        3.78564         14.7552         1.18611 
        3.80137          14.635         1.17379 
        3.81707         14.5277         1.16168 
        3.83279         14.3672         1.14972 
        3.84853         14.2723         1.13792 
        3.86424         14.1506          1.1263 
        3.87992         14.0104         1.11486 
        3.89561         13.9047         1.10358 
        3.91134          13.782         1.09243 
        3.92704         13.6648         1.08145 
        3.94273         13.5593         1.07064 
        3.95845         13.4264         1.05995 
        3.97418         13.3704          1.0494 
        3.98988         13.2203         1.03901 
        4.00554         13.1227         1.02879 
        4.02125         12.9871         1.01868 
        4.03698         12.9167         1.00869 
        4.05268         12.7937        0.998855 
        4.06839         12.6629        0.989144 
         4.0841         12.5628        0.979565 
        4.09983          12.443          0.9701 
        4.11555           12.36        0.960763 
        4.13124         12.2635        0.951575 
        4.14693         12.1809        0.942499 
        4.16266         12.0614         0.93352 
        4.17839         11.9673        0.924664 
        4.19408         11.8694        0.915942 
        4.20977         11.7641         0.90733 
        4.22551           11.67        0.898807 
        4.24123         11.5849        0.890402 
        4.25691         11.4745        0.882129 
        4.27259         11.4018        0.873957 
        4.28831          11.288        0.865872 
        4.30404         11.1964        0.857882 
        4.31974         11.1158         0.85001 
        4.33543         11.0208        0.842241 
        4.35116         10.9375        0.834551 
        4.36688         10.8326        0.826959 
        4.38255         10.7618        0.819491 
        4.39825         10.7075        0.812098 
        4.41398         10.5867        0.804781 
         4.4297         10.4972        0.797563 
        4.44541         10.3952        0.790434 
        4.46111         10.3464        0.783398 
        4.47683          10.268        0.776442 
        4.49251         10.1941        0.769585 
        4.50819         10.0988        0.762813 
         4.5239         10.0223        0.756112 
        4.53962         9.97798        0.749483 
        4.55535         9.86827        0.742931 
        4.57106         9.78532        0.736466 
        4.58678         9.69662        0.730077 
         4.6025         9.64176        0.723762 
        4.61821         9.54708        0.717522 
        4.63391         9.46213        0.711365 
         4.6496         9.43237        0.705282 
        4.66532           9.335         0.69926 
        4.68103          9.2685        0.693312 
        4.69673         9.18686        0.687438 
        4.71241         9.11464        0.681639 
        4.72811         9.03113        0.675896 
        4.74384         9.00695        0.670213 
        4.75955         8.92872        0.664603 
        4.77525         8.85327         0.65906 
        4.79096         8.80619        0.653574 
        4.80669          8.7201        0.648148 
         4.8224         8.66312         0.64279 
        4.83809         8.60864        0.637497 
        4.85379          8.5182        0.632261 
         4.8695         8.46909         0.62708 
        4.88521         8.40946        0.621959 
        4.90093          8.3303        0.616894 
        4.91663         8.27062         0.61189 
        4.93234         8.23482        0.606936 
        4.94807         8.13316        0.602034 
        4.96377         8.09327        0.597195 
        4.97943         8.05756        0.592419 
        4.99514          7.9883        0.587684 
        5.01086         7.90318        0.582996 
        5.02654         7.85446        0.578371 
        5.04227         7.82257        0.573783 
          5.058         7.74297        0.569243 
        5.07371         7.69027        0.564761 
        5.08942         7.63539        0.560326 
        5.10513         7.57697        0.555938 
        5.12084         7.51784        0.551595 
        5.13656          7.4728        0.547299 
        5.15225         7.40547        0.543056 
        5.16796         7.36804        0.538852 
        5.18369         7.29507        0.534688 
         5.1994         7.22419        0.530576 
        5.21509         7.19291         0.52651 
        5.23079         7.14377        0.522482 
        5.24649         7.08669          0.5185 
        5.26217          7.0401        0.514562 
        5.27788         6.97724        0.510659 
        5.29359         6.95353        0.506796 
        5.30933         6.89622        0.502967 
        5.32504         6.84545        0.499184 
        5.34073         6.79888        0.495444 
        5.35646          6.7459        0.491735 
        5.37218         6.71862        0.488064 
        5.38789          6.6561        0.484435 
        5.40357         6.61169        0.480848 
        5.41929         6.55397        0.477289 
        5.43502         6.51621        0.473765 
         5.4507         6.47976        0.470286 
        5.46639         6.42535        0.466841 
        5.48212         6.39115        0.463422 
        5.49786         6.35056        0.460034 
        5.51353         6.28536        0.456696 
        5.52921         6.25663        0.453388 
        5.54495          6.2069        0.450103 
        5.56066         6.16707        0.446854 
        5.57637         6.10769        0.443637 
        5.59207         6.08785        0.440455 
        5.60778         6.03447        0.437303 
        5.62346         5.99417        0.434187 
        5.63916         5.96427        0.431097 
        5.65487         5.92165        0.428036 
         5.6706         5.88314        0.425001 
        5.68633         5.83989        0.421995 
        5.70203         5.80642        0.419024 
        5.71773         5.76532        0.416081 
        5.73344         5.71963        0.413166 
        5.74916         5.68188        0.410276 
        5.76486         5.65439        0.407417 
        5.78054         5.61498         0.40459 
        5.79626         5.57697        0.401781 
          5.812         5.53245        0.398997 
         5.8277         5.49528        0.396247 
        5.84339         5.47077        0.393523 
        5.85911         5.42127         0.39082 
        5.87484         5.40668        0.388142 
        5.89053         5.35722        0.385494 
        5.90623         5.32099         0.38287 
        5.92195         5.28778        0.380266 
        5.93767         5.24207        0.377688 
        5.95336         5.21287        0.375138 
        5.96905          5.1995        0.372612 
        5.98476         5.16258        0.370106 
        6.00048         5.12292        0.367622 
        6.01617         5.09104        0.365164 
        6.03185         5.05929        0.362731 
        6.04756         5.02795        0.360315 
        6.06331         4.99043        0.357916 
        6.07903         4.95901        0.355544 
        6.09473         4.93322        0.353195 
        6.11044         4.89362        0.350865 
        6.12616         4.86458        0.348557 
        6.14186         4.83362        0.346272 
        6.15755         4.80217        0.344007 
        6.17326         4.77704        0.341761 
        6.18898         4.74469        0.339534 
        6.20467         4.71459        0.337331 
        6.22036         4.67796        0.335147 
         6.2361          4.6535        0.332977 
         6.2518         4.62075         0.33083 
        6.26748         4.59682        0.328706 
        6.28319         4.56989        0.326595 
        6.29893         4.54514        0.324501 
        6.31463           4.514        0.322428 
        6.33033         4.48149        0.320375 
        6.34604         4.46349        0.318337 
        6.36177         4.42801        0.316316 
        6.37747         4.40232        0.314316 
