# k  (h/Mpc)    Pcb(k)  (Mpc/h)^3    Pcb_linear(k) (Mpc/h)^3   ShotnoiseSubtracted = true
      0.0200456         1155.54         1171.98 
      0.0350414          847.14         851.989 
      0.0492313         621.044         619.039 
      0.0637834         519.031         514.601 
      0.0800726         411.473         408.426 
       0.096163          295.41         296.349 
       0.111083         234.598         236.376 
       0.126058         210.473         209.477 
       0.142273         179.304         177.473 
       0.158546         142.561         140.166 
        0.17375         118.118          118.09 
       0.188953         108.362         106.928 
       0.204907          98.613         94.6094 
       0.220756         82.3435         80.0453 
        0.23588         71.6759         69.6325 
         0.2514         64.3606         63.2604 
       0.267535          58.766         57.2398 
       0.283568         52.2646         50.4778 
       0.299022         47.0901         44.9731 
       0.314451          42.172         41.1024 
       0.330372           39.12         37.7068 
       0.346141         35.5322         34.2247 
       0.361624         32.6556         31.1055 
       0.377134         30.4677          28.622 
       0.392932         27.1426         26.4834 
       0.408854         25.9609         24.4126 
       0.424564         24.0396         22.5014 
       0.440253           22.18         20.8614 
       0.455999         20.8825         19.4354 
       0.471626         19.6133         18.1249 
        0.48727         18.3521         16.8989 
       0.502856         17.1014         15.7976 
       0.518488         16.3209          14.815 
       0.534347         15.5635         13.9015 
       0.550082         14.2227         13.0592 
       0.565732         13.1486         12.2886 
       0.581496          12.856         11.5828 
       0.597222         12.3147         10.9355 
       0.612804         11.4667         10.3404 
       0.628434         11.0397          9.7856 
       0.644267         10.5575         9.26696 
       0.660051         9.95266         8.78894 
       0.675724         9.45223         8.34755 
       0.691403         9.12221         7.93609 
       0.707174          8.6631         7.55006 
       0.722871         8.29581         7.19124 
        0.73838         7.96664         6.85957 
       0.754018         7.69917         6.54632 
       0.769845         7.30463         6.24923 
        0.78569         7.05919         5.97032 
       0.801365         6.75033         5.71122 
       0.817031         6.52384         5.46773 
       0.832809         6.30546         5.23695 
       0.848511         5.94696          5.0206 
       0.864097         5.74167         4.81801 
       0.879701         5.55041         4.62646 
       0.895507         5.30797         4.44312 
       0.911279         5.22795         4.27014 
        0.92691           5.028         4.10784 
       0.942635         4.80683         3.95312 
       0.958396         4.63874         3.80608 
       0.974128         4.51117         3.66681 
       0.989692         4.42396         3.53592 
        1.00528         4.22698         3.41126 
        1.02113         4.07114         3.29067 
        1.03692         3.99545         3.17638 
        1.05264         3.85449         3.06807 
        1.06832         3.76191           2.965 
        1.08405           3.587         2.86641 
        1.09979          3.5132         2.77226 
        1.11537         3.42496         2.68329 
        1.13105         3.33275         2.59771 
        1.14679         3.24372         2.51554 
        1.16256         3.13809         2.43679 
        1.17828         3.06845         2.36167 
        1.19395         2.98462         2.28999 
         1.2097         2.86117         2.22093 
        1.22537         2.79831         2.15506 
          1.241         2.74085         2.09207 
        1.25666          2.7174         2.03145 
        1.27241         2.59361         1.97295 
        1.28819         2.53642         1.91667 
        1.30392         2.49046         1.86275 
        1.31957          2.4322         1.81116 
        1.33529          2.3605         1.76133 
        1.35108         2.30815         1.71319 
        1.36674         2.24707          1.6672 
         1.3824         2.18203         1.62295 
        1.39811         2.13747         1.58015 
        1.41389         2.10178         1.53874 
        1.42964         2.05411         1.49889 
        1.44531         2.00922         1.46065 
        1.46101         1.96714         1.42367 
        1.47667         1.90108         1.38808 
        1.49229         1.88625         1.35381 
        1.50793         1.83486         1.32065 
        1.52367         1.80881          1.2884 
        1.53953         1.74997         1.25701 
        1.55526         1.71668         1.22692 
        1.57092         1.68585         1.19794 
        1.58662         1.65502         1.16983 
        1.60235         1.61653         1.14257 
        1.61809         1.58284         1.11617 
        1.63369         1.56571         1.09083 
        1.64941         1.52344         1.06611 
        1.66519         1.50034         1.04206 
        1.68085         1.45625         1.01893 
        1.69652         1.43372        0.996493 
        1.71228         1.41479        0.974607 
        1.72806         1.37608        0.953362 
        1.74368         1.35892        0.932965 
        1.75933         1.32773        0.913125 
        1.77505         1.30756        0.893771 
        1.79081         1.28436        0.874944 
         1.8065         1.25523        0.856741 
        1.82218         1.24164        0.839073 
        1.83797         1.22149        0.821784 
        1.85367         1.20636        0.805077 
        1.86928         1.18395        0.788936 
        1.88497         1.15341        0.773151 
        1.90073         1.13004         0.75774 
        1.91647         1.12245        0.742763 
        1.93218          1.1025        0.728224 
        1.94787          1.0786        0.714095 
        1.96363         1.06035        0.700286 
        1.97935         1.04198        0.686872 
        1.99499         1.02357        0.673885 
        2.01064         1.00828        0.661215 
         2.0264        0.999396        0.648792 
        2.04216        0.979514        0.636695 
        2.05781        0.962518        0.624983 
        2.07353         0.94997        0.613524 
        2.08928        0.931469        0.602328 
        2.10499         0.91888        0.591442 
        2.12065        0.911093        0.580857 
        2.13633        0.893459        0.570523 
        2.15211        0.876919        0.560374 
        2.16785        0.861828          0.5505 
        2.18349        0.852793        0.540927 
        2.19916        0.838436        0.531561 
        2.21489        0.824274        0.522386 
        2.23063        0.812173        0.513422 
         2.2463        0.807209        0.504709 
        2.26194        0.785709         0.49622 
        2.27765        0.776499        0.487882 
        2.29341        0.769717        0.479715 
        2.30914        0.762293        0.471752 
        2.32486        0.749409        0.463974 
        2.34061        0.737205        0.456359 
        2.35635        0.723823        0.448921 
        2.37203        0.716483        0.441675 
        2.38768        0.708185        0.434605 
        2.40339        0.699141        0.427663 
        2.41914        0.690629        0.420857 
        2.43483        0.679285        0.414224 
         2.4505        0.669081        0.407744 
        2.46622        0.660688        0.401381 
        2.48195         0.65653        0.395154 
        2.49759        0.645424        0.389092 
        2.51328        0.633929        0.383141 
        2.52906        0.627167        0.377277 
        2.54479        0.620544        0.371558 
        2.56049        0.610598        0.365969 
        2.57618        0.605272        0.360499 
        2.59189        0.596832        0.355133 
        2.60758        0.590137        0.349885 
        2.62325         0.58227         0.34475 
        2.63898        0.577162        0.339699 
        2.65468        0.568926         0.33476 
        2.67044        0.560327        0.329899 
        2.68618        0.553809        0.325145 
        2.70184           0.547        0.320504 
        2.71755        0.540361        0.315942 
        2.73329        0.535336        0.311462 
        2.74897        0.529359        0.307083 
        2.76462        0.522187        0.302799 
        2.78034        0.517198        0.298578 
        2.79607        0.510689        0.294433 
        2.81179        0.503975        0.290372 
        2.82749        0.499845        0.286392 
        2.84321        0.494848        0.282482 
        2.85893        0.487882        0.278647 
        2.87462        0.483012        0.274889 
        2.89033        0.476195        0.271197 
        2.90605        0.472487         0.26757 
        2.92176        0.466323         0.26401 
        2.93747         0.46204        0.260518 
        2.95318        0.456932        0.257088 
        2.96891        0.452319        0.253718 
        2.98456        0.448316        0.250423 
        3.00023        0.443405        0.247182 
        3.01596        0.437838        0.243989 
        3.03164        0.434288        0.240861 
        3.04738        0.427176        0.237778 
         3.0631        0.425155        0.234751 
        3.07883        0.419501        0.231776 
        3.09456        0.414619        0.228854 
        3.11026        0.411288        0.225986 
        3.12596        0.406301        0.223167 
        3.14163        0.403296        0.220403 
        3.15734        0.400999         0.21768 
        3.17308        0.395067        0.214996 
        3.18879        0.391607        0.212365 
        3.20447        0.387339        0.209781 
         3.2202        0.384672        0.207233 
         3.2359        0.380556        0.204731 
        3.25157        0.376387        0.202276 
        3.26729        0.374427        0.199855 
        3.28304        0.369891        0.197468 
        3.29877        0.366134        0.195123 
        3.31446        0.363602        0.192822 
        3.33014        0.360209         0.19056 
        3.34585        0.358173         0.18833 
        3.36158        0.353913        0.186133 
        3.37727        0.350852        0.183978 
        3.39294        0.348186        0.181858 
        3.40867        0.344417        0.179765 
        3.42439         0.34194        0.177706 
        3.44008        0.339658        0.175683 
        3.45578        0.337437         0.17369 
        3.47153        0.333511        0.171723 
        3.48724        0.332129        0.169791 
        3.50292        0.329394        0.167892 
        3.51859        0.325313        0.166024 
        3.53431        0.323237        0.164178 
        3.55007        0.321546        0.162356 
        3.56577        0.317587        0.160568 
        3.58146        0.314908        0.158808 
        3.59719        0.313227        0.157071 
        3.61292        0.311036         0.15536 
        3.62859        0.306814        0.153681 
        3.64429        0.306052        0.152024 
        3.66003        0.303216        0.150386 
        3.67578        0.300491        0.148772 
        3.69146        0.298414        0.147189 
        3.70712        0.296407        0.145631 
        3.72284        0.294077         0.14409 
        3.73853        0.292568        0.142574 
        3.75422        0.289188         0.14108 
        3.76993        0.287948        0.139605 
        3.78564        0.285557        0.138152 
        3.80137        0.282864        0.136718 
        3.81707        0.282049        0.135307 
        3.83279        0.278971        0.133914 
        3.84853        0.276893        0.132539 
        3.86424        0.274648        0.131186 
        3.87992        0.273184        0.129854 
        3.89561        0.270886         0.12854 
        3.91134        0.269757        0.127242 
        3.92704        0.266565        0.125963 
        3.94273        0.264869        0.124703 
        3.95845        0.262883        0.123458 
        3.97418        0.260591        0.122229 
        3.98988          0.2585        0.121019 
        4.00554        0.256419        0.119829 
        4.02125        0.254098        0.118651 
        4.03698        0.252042        0.117487 
        4.05268         0.24995        0.116342 
        4.06839         0.24705        0.115211 
         4.0841        0.243956        0.114095 
        4.09983        0.241653        0.112993 
        4.11555        0.239223        0.111905 
        4.13124        0.236467        0.110835 
        4.14693        0.234981        0.109778 
        4.16266        0.232366        0.108732 
        4.17839        0.230706          0.1077 
        4.19408        0.228478        0.106685 
        4.20977        0.227003        0.105681 
        4.22551        0.224877        0.104689 
        4.24123        0.222962         0.10371 
        4.25691        0.221194        0.102746 
        4.27259         0.21927        0.101794 
        4.28831        0.217911        0.100853 
        4.30404        0.215428        0.099922 
        4.31974         0.21477       0.0990051 
        4.33543        0.212792       0.0981003 
        4.35116        0.211152       0.0972045 
        4.36688        0.209963       0.0963203 
        4.38255        0.208371       0.0954504 
        4.39825        0.207235       0.0945893 
        4.41398        0.205569       0.0937371 
         4.4297        0.204249       0.0928963 
        4.44541        0.203536        0.092066 
        4.46111        0.202513       0.0912465 
        4.47683         0.20155       0.0904363 
        4.49251        0.199873       0.0896376 
        4.50819        0.198758       0.0888488 
         4.5239        0.198539       0.0880683 
        4.53962        0.197282       0.0872962 
        4.55535        0.196462        0.086533 
        4.57106        0.195485       0.0857801 
        4.58678        0.194929       0.0850359 
         4.6025        0.193943       0.0843003 
        4.61821        0.193332       0.0835736 
        4.63391        0.192661       0.0828564 
         4.6496        0.192147       0.0821478 
        4.66532        0.191421       0.0814465 
        4.68103        0.191338       0.0807537 
        4.69673         0.19056       0.0800696 
        4.71241        0.190259        0.079394 
        4.72811        0.189432       0.0787252 
        4.74384        0.189631       0.0780632 
        4.75955        0.189218       0.0774098 
        4.77525        0.188961       0.0767642 
        4.79096        0.188444       0.0761252 
        4.80669        0.188453       0.0754932 
         4.8224         0.18791       0.0748691 
        4.83809        0.188127       0.0742527 
        4.85379        0.188488       0.0736428 
         4.8695        0.187787       0.0730393 
        4.88521        0.187835       0.0724428 
        4.90093        0.188365       0.0718529 
        4.91663         0.18859         0.07127 
        4.93234         0.18809        0.070693 
        4.94807        0.188546       0.0701221 
        4.96377        0.189076       0.0695584 
        4.97943        0.189498       0.0690022 
        4.99514        0.189451       0.0684506 
        5.01086        0.190145       0.0679046 
        5.02654        0.190078        0.067366 
        5.04227         0.19026       0.0668316 
          5.058        0.191031       0.0663027 
        5.07371        0.191667       0.0657806 
        5.08942        0.192888       0.0652641 
        5.10513        0.192851        0.064753 
        5.12084        0.193675       0.0642472 
        5.13656        0.194492       0.0637468 
        5.15225         0.19509       0.0632526 
        5.16796        0.196613       0.0627629 
        5.18369         0.19621       0.0622779 
         5.1994        0.197444       0.0617989 
        5.21509         0.19841       0.0613254 
        5.23079        0.199887       0.0608563 
        5.24649        0.200543       0.0603924 
        5.26217        0.201291       0.0599337 
        5.27788        0.202529       0.0594791 
        5.29359        0.203785       0.0590292 
        5.30933        0.205538       0.0585832 
        5.32504        0.205498       0.0581426 
        5.34073        0.207672        0.057707 
        5.35646        0.208336        0.057275 
        5.37218        0.209417       0.0568473 
        5.38789        0.210869       0.0564247 
        5.40357        0.213258       0.0560069 
        5.41929        0.213695       0.0555923 
        5.43502        0.214357       0.0551819 
         5.4507        0.216789       0.0547767 
        5.46639        0.218136       0.0543754 
        5.48212         0.22023       0.0539772 
        5.49786        0.221424       0.0535825 
        5.51353        0.224223       0.0531938 
        5.52921        0.224859       0.0528085 
        5.54495        0.226373       0.0524258 
        5.56066        0.229292       0.0520474 
        5.57637        0.230453       0.0516728 
        5.59207        0.232855       0.0513021 
        5.60778         0.23462        0.050935 
        5.62346        0.236929        0.050572 
        5.63916        0.237781       0.0502121 
        5.65487        0.240022       0.0498556 
         5.6706        0.241655       0.0495021 
        5.68633        0.245573        0.049152 
        5.70203        0.246577       0.0488059 
        5.71773        0.249065       0.0484632 
        5.73344         0.25041       0.0481236 
        5.74916        0.253389       0.0477869 
        5.76486        0.254822        0.047454 
        5.78054        0.258023       0.0471247 
        5.79626        0.258733       0.0467976 
          5.812        0.262388       0.0464733 
         5.8277        0.263748        0.046153 
        5.84339        0.267709       0.0458357 
        5.85911        0.268976       0.0455208 
        5.87484        0.270455       0.0452089 
        5.89053        0.274565       0.0449005 
        5.90623        0.276364       0.0445949 
        5.92195        0.279145       0.0442916 
        5.93767        0.281462       0.0439913 
        5.95336        0.283414       0.0436942 
        5.96905        0.287891          0.0434 
        5.98476        0.288657       0.0431081 
        6.00048        0.292836       0.0428188 
        6.01617         0.29379       0.0425325 
        6.03185        0.296294       0.0422492 
        6.04756        0.298888       0.0419678 
        6.06331        0.301186       0.0416884 
        6.07903        0.303741        0.041412 
        6.09473        0.307734       0.0411385 
        6.11044        0.310346       0.0408671 
        6.12616         0.31247       0.0405983 
        6.14186        0.316098       0.0403321 
        6.15755        0.317948       0.0400684 
        6.17326        0.321681       0.0398067 
        6.18898        0.325129       0.0395473 
        6.20467        0.327683       0.0392907 
        6.22036        0.327104       0.0390364 
         6.2361        0.330522       0.0387836 
         6.2518        0.334478       0.0385335 
        6.26748        0.336145       0.0382861 
        6.28319        0.339401       0.0380402 
        6.29893        0.342194       0.0377963 
        6.31463        0.345975       0.0375549 
        6.33033        0.348113       0.0373157 
        6.34604        0.350904       0.0370784 
        6.36177        0.352664        0.036843 
        6.37747        0.355998         0.03661 
