# k  (h/Mpc)    Pcb(k)  (Mpc/h)^3    Pcb_linear(k) (Mpc/h)^3   ShotnoiseSubtracted = true
      0.0200456         16331.1         16681.9 
      0.0350414         11662.4         12127.2 
      0.0492313         8678.52         8811.37 
      0.0637834          7470.5         7324.81 
      0.0800726         5902.66         5813.52 
       0.096163         4104.67         4218.22 
       0.111083         3280.63         3364.56 
       0.126058         3025.38         2981.68 
       0.142273         2617.49         2526.14 
       0.158546         2243.02         1995.12 
        0.17375         1793.33         1680.89 
       0.188953         1745.41         1522.01 
       0.204907         1640.85         1346.67 
       0.220756         1410.69         1139.36 
        0.23588         1251.21         991.145 
         0.2514          1088.4         900.445 
       0.267535         1078.22         814.748 
       0.283568         977.615         718.498 
       0.299022         919.506         640.145 
       0.314451         873.954         585.049 
       0.330372         804.406         536.717 
       0.346141         748.037         487.152 
       0.361624         719.306         442.755 
       0.377134         667.853         407.404 
       0.392932         642.147         376.963 
       0.408854         621.853         347.487 
       0.424564         582.161         320.284 
       0.440253         571.251          296.94 
       0.455999         540.992         276.642 
       0.471626         514.677         257.988 
        0.48727         496.032         240.539 
       0.502856         482.194         224.863 
       0.518488         477.135         210.876 
       0.534347         445.714         197.873 
       0.550082         427.618         185.884 
       0.565732         426.932         174.915 
       0.581496         401.419         164.869 
       0.597222         395.492         155.656 
       0.612804         384.538         147.184 
       0.628434         370.648         139.288 
       0.644267         360.581         131.905 
       0.660051         351.142         125.101 
       0.675724         346.869         118.819 
       0.691403         336.056         112.962 
       0.707174         324.334         107.467 
       0.722871         320.312          102.36 
        0.73838         315.781         97.6388 
       0.754018         306.838           93.18 
       0.769845         297.613         88.9512 
        0.78569         296.841         84.9813 
       0.801365         286.843         81.2932 
       0.817031         277.866         77.8273 
       0.832809         276.078         74.5425 
       0.848511         268.459         71.4629 
       0.864097         264.236         68.5793 
       0.879701         260.445         65.8529 
       0.895507         254.788         63.2431 
       0.911279         246.451         60.7809 
        0.92691         245.979         58.4708 
       0.942635         239.885         56.2685 
       0.958396         236.677         54.1755 
       0.974128         232.182         52.1932 
       0.989692         227.679         50.3301 
        1.00528         224.593         48.5556 
        1.02113          222.41         46.8392 
        1.03692         217.006         45.2125 
        1.05264         213.152         43.6708 
        1.06832         209.215         42.2037 
        1.08405         205.528         40.8003 
        1.09979         202.937         39.4602 
        1.11537         199.092         38.1938 
        1.13105         194.851         36.9756 
        1.14679         195.021         35.8061 
        1.16256         191.245         34.6851 
        1.17828         187.564         33.6159 
        1.19395           184.6         32.5956 
         1.2097         184.245         31.6126 
        1.22537         179.852          30.675 
          1.241         178.377         29.7784 
        1.25666         174.725         28.9155 
        1.27241         171.997         28.0829 
        1.28819         170.072         27.2818 
        1.30392          166.75         26.5143 
        1.31957         166.563         25.7799 
        1.33529         162.023         25.0707 
        1.35108         160.241         24.3855 
        1.36674          159.11         23.7309 
         1.3824         156.439         23.1009 
        1.39811         155.896         22.4918 
        1.41389         152.471         21.9024 
        1.42964         149.808         21.3352 
        1.44531         147.668         20.7909 
        1.46101         146.129         20.2644 
        1.47667         143.508         19.7579 
        1.49229         141.712           19.27 
        1.50793         140.444         18.7981 
        1.52367         139.069          18.339 
        1.53953         136.055         17.8922 
        1.55526         134.485         17.4639 
        1.57092          132.96         17.0514 
        1.58662         130.951         16.6513 
        1.60235         129.658         16.2633 
        1.61809         127.823         15.8874 
        1.63369          126.08         15.5269 
        1.64941         124.515         15.1749 
        1.66519         122.657         14.8326 
        1.68085         121.734         14.5034 
        1.69652         119.143          14.184 
        1.71228          118.44         13.8725 
        1.72806         116.964         13.5701 
        1.74368         115.869         13.2798 
        1.75933         114.057         12.9974 
        1.77505         112.634         12.7219 
        1.79081         111.573         12.4539 
         1.8065         110.039         12.1948 
        1.82218         108.074         11.9433 
        1.83797         106.494         11.6972 
        1.85367         105.686         11.4594 
        1.86928         104.352         11.2297 
        1.88497         102.342          11.005 
        1.90073         101.809         10.7856 
        1.91647         100.445         10.5725 
        1.93218         99.3118         10.3655 
        1.94787         98.1617         10.1644 
        1.96363         96.9026         9.96784 
        1.97935         95.2708          9.7769 
        1.99499          94.604         9.59204 
        2.01064         93.4801          9.4117 
         2.0264         92.0101         9.23487 
        2.04216         91.2988         9.06268 
        2.05781         90.0027         8.89597 
        2.07353         88.6968         8.73287 
        2.08928         87.6002          8.5735 
        2.10499         86.2391         8.41855 
        2.12065         85.9587         8.26789 
        2.13633         84.9747         8.12079 
        2.15211         83.8812         7.97633 
        2.16785         82.3729         7.83579 
        2.18349          81.376         7.69952 
        2.19916         80.6996         7.56621 
        2.21489         79.6714         7.43562 
        2.23063         78.5331         7.30802 
         2.2463         77.8138           7.184 
        2.26194         77.6183         7.06316 
        2.27765         76.0553         6.94449 
        2.29341         75.1632         6.82824 
        2.30914         74.1782         6.71489 
        2.32486         73.4709         6.60418 
        2.34061         72.6654         6.49578 
        2.35635          71.541         6.38992 
        2.37203         70.5887         6.28678 
        2.38768         69.9079         6.18614 
        2.40339         69.1856         6.08733 
        2.41914         68.3294         5.99046 
        2.43483         68.0326         5.89604 
         2.4505         66.9226         5.80381 
        2.46622         66.2272         5.71324 
        2.48195         65.3986          5.6246 
        2.49759         64.6351         5.53831 
        2.51328          63.957         5.45361 
        2.52906         63.3917         5.37014 
        2.54479         62.6484         5.28874 
        2.56049         61.6655         5.20918 
        2.57618         61.1529         5.13133 
        2.59189         60.2177         5.05495 
        2.60758         59.7519         4.98025 
        2.62325         59.1202         4.90715 
        2.63898         58.4477         4.83526 
        2.65468         57.9766         4.76496 
        2.67044         57.0809         4.69576 
        2.68618         56.7667          4.6281 
        2.70184         56.1901         4.56204 
        2.71755         55.6598          4.4971 
        2.73329         54.7233         4.43333 
        2.74897         54.3023         4.37101 
        2.76462         53.6127         4.31002 
        2.78034         53.0373         4.24994 
        2.79607         52.4709         4.19095 
        2.81179         51.8432         4.13314 
        2.82749         51.3546         4.07649 
        2.84321         50.8565         4.02084 
        2.85893         50.2497         3.96624 
        2.87462         49.6282         3.91275 
        2.89033         49.1114          3.8602 
        2.90605         48.5797         3.80857 
        2.92176          48.094         3.75791 
        2.93747         47.6562          3.7082 
        2.95318         46.9512         3.65937 
        2.96891         46.3507         3.61141 
        2.98456         46.1472         3.56451 
        3.00023          45.475         3.51838 
        3.01596         45.1866         3.47292 
        3.03164         44.6104          3.4284 
        3.04738         44.3079         3.38453 
         3.0631         43.8161         3.34143 
        3.07883         43.3608         3.29909 
        3.09456         42.9112         3.25749 
        3.11026         42.4045         3.21667 
        3.12596         42.0947         3.17655 
        3.14163         41.4974         3.13721 
        3.15734         40.9822         3.09845 
        3.17308         40.8662         3.06024 
        3.18879         40.4457         3.02279 
        3.20447         39.8419         2.98601 
         3.2202         39.5186         2.94974 
         3.2359         39.0856         2.91413 
        3.25157         38.8124         2.87919 
        3.26729         38.3013         2.84472 
        3.28304         37.8157         2.81075 
        3.29877         37.5352         2.77737 
        3.31446         37.2398         2.74462 
        3.33014         36.7918         2.71241 
        3.34585         36.5669         2.68068 
        3.36158         36.1496         2.64941 
        3.37727         35.6955         2.61873 
        3.39294         35.3913         2.58856 
        3.40867          35.035         2.55877 
        3.42439         34.7128         2.52946 
        3.44008          34.457         2.50066 
        3.45578         34.0075         2.47229 
        3.47153         33.6653          2.4443 
        3.48724         33.3665         2.41679 
        3.50292         33.1137         2.38977 
        3.51859         32.6976         2.36317 
        3.53431         32.4349          2.3369 
        3.55007         32.1391         2.31096 
        3.56577         31.8909         2.28552 
        3.58146         31.5428         2.26047 
        3.59719         31.2603         2.23574 
        3.61292         31.0104         2.21139 
        3.62859         30.6293         2.18749 
        3.64429         30.3374          2.1639 
        3.66003         30.0725         2.14058 
        3.67578         29.7562         2.11762 
        3.69146         29.5401         2.09508 
        3.70712         29.2434         2.07291 
        3.72284         29.1061         2.05097 
        3.73853         28.7603          2.0294 
        3.75422           28.48         2.00812 
        3.76993          28.245         1.98713 
        3.78564         27.9925         1.96645 
        3.80137         27.6906         1.94603 
        3.81707         27.4695         1.92595 
        3.83279         27.2563         1.90613 
        3.84853         27.0168         1.88655 
        3.86424         26.7396         1.86729 
        3.87992         26.5152         1.84833 
        3.89561         26.2521         1.82963 
        3.91134          26.005         1.81115 
        3.92704          25.797         1.79295 
        3.94273         25.5981         1.77501 
        3.95845         25.1929         1.75729 
        3.97418         25.1173          1.7398 
        3.98988         24.8653         1.72258 
        4.00554         24.6124         1.70564 
        4.02125          24.498         1.68887 
        4.03698         24.1405         1.67231 
        4.05268         24.0351           1.656 
        4.06839         23.7889          1.6399 
         4.0841         23.6042         1.62402 
        4.09983         23.4196         1.60833 
        4.11555         23.2001         1.59285 
        4.13124         22.9305         1.57762 
        4.14693         22.7608         1.56257 
        4.16266         22.4907         1.54769 
        4.17839         22.3341           1.533 
        4.19408          22.176         1.51854 
        4.20977         21.9747         1.50426 
        4.22551          21.791         1.49013 
        4.24123         21.5524          1.4762 
        4.25691         21.4142         1.46248 
        4.27259         21.2157         1.44894 
        4.28831         21.0266         1.43553 
        4.30404         20.8195         1.42228 
        4.31974         20.7241         1.40923 
        4.33543         20.5017         1.39635 
        4.35116         20.3606          1.3836 
        4.36688          20.157         1.37102 
        4.38255         20.0451         1.35864 
        4.39825         19.8776         1.34638 
        4.41398         19.7071         1.33425 
         4.4297         19.5337         1.32228 
        4.44541         19.3808         1.31046 
        4.46111         19.2354          1.2988 
        4.47683         19.0247         1.28727 
        4.49251         18.9262          1.2759 
        4.50819         18.7513         1.26467 
         4.5239         18.5806         1.25356 
        4.53962         18.4304         1.24257 
        4.55535         18.2657         1.23171 
        4.57106         18.1452         1.22099 
        4.58678         17.9648          1.2104 
         4.6025          17.819         1.19993 
        4.61821         17.7082         1.18958 
        4.63391         17.5412         1.17937 
         4.6496         17.3823         1.16929 
        4.66532         17.2534         1.15931 
        4.68103            17.1         1.14944 
        4.69673         16.9768         1.13971 
        4.71241         16.8923         1.13009 
        4.72811         16.7131         1.12057 
        4.74384         16.5831         1.11115 
        4.75955         16.4553         1.10185 
        4.77525         16.3382         1.09266 
        4.79096         16.2073         1.08356 
        4.80669         16.0942         1.07457 
         4.8224          15.946         1.06568 
        4.83809         15.7769         1.05691 
        4.85379         15.6987         1.04823 
         4.8695         15.5885         1.03964 
        4.88521         15.4859         1.03115 
        4.90093         15.3251         1.02275 
        4.91663         15.2026         1.01445 
        4.93234         15.1155         1.00624 
        4.94807         14.9632        0.998114 
        4.96377         14.8798        0.990091 
        4.97943         14.7467        0.982174 
        4.99514         14.6349        0.974322 
        5.01086         14.5125        0.966551 
        5.02654         14.3936        0.958884 
        5.04227         14.3043        0.951277 
          5.058          14.176        0.943749 
        5.07371          14.088        0.936318 
        5.08942         13.9808        0.928965 
        5.10513         13.8587        0.921691 
        5.12084         13.7581        0.914491 
        5.13656         13.6824        0.907369 
        5.15225         13.5422        0.900335 
        5.16796         13.4077        0.893364 
        5.18369          13.345        0.886461 
         5.1994         13.2635        0.879643 
        5.21509         13.1542        0.872903 
        5.23079         13.0569        0.866225 
        5.24649         12.9522        0.859623 
        5.26217         12.8662        0.853093 
        5.27788         12.7561        0.846623 
        5.29359         12.6811        0.840218 
        5.30933         12.5648         0.83387 
        5.32504         12.5134        0.827599 
        5.34073         12.3868        0.821399 
        5.35646         12.3404        0.815249 
        5.37218         12.2141        0.809162 
        5.38789         12.1366        0.803146 
        5.40357         12.0499        0.797199 
        5.41929         11.9462        0.791298 
        5.43502         11.8526        0.785457 
         5.4507         11.7748        0.779688 
        5.46639         11.6914        0.773977 
        5.48212         11.6181        0.768309 
        5.49786          11.532        0.762691 
        5.51353         11.4554        0.757157 
        5.52921         11.3682        0.751673 
        5.54495         11.2855        0.746227 
        5.56066         11.2084         0.74084 
        5.57637         11.1208        0.735508 
        5.59207         11.0316        0.730232 
        5.60778         10.9539        0.725006 
        5.62346         10.9047        0.719839 
        5.63916         10.8187        0.714717 
        5.65487         10.7218        0.709642 
         5.6706         10.6769        0.704611 
        5.68633         10.5877        0.699626 
        5.70203         10.5097          0.6947 
        5.71773          10.429        0.689822 
        5.73344         10.3632        0.684989 
        5.74916         10.3006        0.680197 
        5.76486         10.2192        0.675457 
        5.78054         10.1382         0.67077 
        5.79626          10.066        0.666114 
          5.812         10.0046        0.661498 
         5.8277         9.92565        0.656939 
        5.84339         9.86757        0.652423 
        5.85911         9.79271        0.647941 
        5.87484         9.71571        0.643501 
        5.89053         9.64803        0.639112 
        5.90623         9.58984        0.634762 
        5.92195         9.53162        0.630444 
        5.93767         9.44466         0.62617 
        5.95336         9.38357        0.621941 
        5.96905         9.34724        0.617754 
        5.98476         9.27125        0.613599 
        6.00048         9.19727        0.609481 
        6.01617         9.14945        0.605406 
        6.03185         9.07164        0.601373 
        6.04756         9.02812        0.597368 
        6.06331         8.95268         0.59339 
        6.07903         8.89884        0.589457 
        6.09473         8.84971        0.585563 
        6.11044         8.79046        0.581701 
        6.12616         8.73732        0.577874 
        6.14186         8.67533        0.574085 
        6.15755          8.6307        0.570331 
        6.17326         8.55607        0.566607 
        6.18898         8.49704        0.562915 
        6.20467         8.43927        0.559262 
        6.22036         8.37438        0.555642 
         6.2361         8.32756        0.552044 
         6.2518         8.24867        0.548484 
        6.26748         8.22285        0.544963 
        6.28319         8.16247        0.541463 
        6.29893         8.10851        0.537991 
        6.31463         8.05499        0.534555 
        6.33033         8.01022         0.53115 
        6.34604         7.95667        0.527772 
        6.36177         7.90591        0.524421 
        6.37747         7.85717        0.521105 
