# k  (h/Mpc)    Pcb(k)  (Mpc/h)^3    Pcb_linear(k) (Mpc/h)^3   ShotnoiseSubtracted = true
      0.0200456         3818.19         3868.42 
      0.0350414         2864.08         2812.21 
      0.0492313         2043.56          2043.3 
      0.0637834         1666.09         1698.57 
      0.0800726         1317.15         1348.12 
       0.096163         1002.03         978.176 
       0.111083         808.496         780.218 
       0.126058          687.13         691.432 
       0.142273         583.603         585.795 
       0.158546         473.727         462.655 
        0.17375          407.48         389.787 
       0.188953          368.83         352.943 
       0.204907         314.414         312.283 
       0.220756         278.119          264.21 
        0.23588         243.984          229.84 
         0.2514         220.007         208.807 
       0.267535         206.322         188.935 
       0.283568          180.52         166.615 
       0.299022           166.9         148.445 
       0.314451         159.185         135.669 
       0.330372         140.547         124.461 
       0.346141         129.114         112.967 
       0.361624         119.852         102.672 
       0.377134         109.481         94.4743 
       0.392932         106.304         87.4152 
       0.408854         98.4604         80.5799 
       0.424564         93.8341         74.2717 
       0.440253         85.4163         68.8585 
       0.455999         78.6169         64.1514 
       0.471626         75.0844         59.8257 
        0.48727          72.935         55.7793 
       0.502856         67.4857         52.1442 
       0.518488          64.325         48.9007 
       0.534347         60.6899         45.8854 
       0.550082         58.5476         43.1052 
       0.565732          56.576         40.5616 
       0.581496         52.6611          38.232 
       0.597222         50.3907         36.0956 
       0.612804          48.437          34.131 
       0.628434         47.4625         32.2999 
       0.644267         44.8704          30.588 
       0.660051         42.9352         29.0101 
       0.675724         41.2431         27.5532 
       0.691403         40.5433         26.1951 
       0.707174         39.0605         24.9209 
       0.722871         37.7916         23.7365 
        0.73838         36.0216         22.6418 
       0.754018         34.1808         21.6078 
       0.769845         33.6057         20.6272 
        0.78569         32.4142         19.7066 
       0.801365         31.4488         18.8513 
       0.817031         30.2297         18.0476 
       0.832809         29.6326         17.2859 
       0.848511         28.6574         16.5718 
       0.864097         27.9013         15.9031 
       0.879701         27.4269         15.2708 
       0.895507         26.3898         14.6657 
       0.911279         25.4871         14.0947 
        0.92691         25.0564          13.559 
       0.942635         24.5043         13.0483 
       0.958396         23.8611         12.5629 
       0.974128         23.2182         12.1033 
       0.989692         22.2872         11.6712 
        1.00528         22.1226         11.2597 
        1.02113         21.4604         10.8617 
        1.03692          21.035         10.4845 
        1.05264         20.6101          10.127 
        1.06832         20.2197         9.78674 
        1.08405         19.6309         9.46132 
        1.09979         19.2967         9.15056 
        1.11537         18.7342         8.85688 
        1.13105         18.4647          8.5744 
        1.14679         17.9979         8.30319 
        1.16256         17.7061         8.04324 
        1.17828         17.3939          7.7953 
        1.19395         17.1131         7.55869 
         1.2097          16.672         7.33074 
        1.22537         16.3917         7.11332 
          1.241         16.0438          6.9054 
        1.25666         15.8669         6.70531 
        1.27241         15.5755         6.51223 
        1.28819         14.9749         6.32646 
        1.30392         15.1119          6.1485 
        1.31957         14.6874         5.97819 
        1.33529         14.4619         5.81374 
        1.35108         14.2721         5.65484 
        1.36674         13.9589         5.50303 
         1.3824          13.733         5.35695 
        1.39811         13.4984          5.2157 
        1.41389         13.3013         5.07902 
        1.42964         13.1183         4.94749 
        1.44531         12.9159         4.82126 
        1.46101         12.7407         4.69919 
        1.47667         12.5274         4.58171 
        1.49229         12.2433         4.46858 
        1.50793          12.143         4.35915 
        1.52367         11.9922         4.25269 
        1.53953         11.7796         4.14908 
        1.55526         11.5815         4.04976 
        1.57092         11.5302          3.9541 
        1.58662          11.327         3.86132 
        1.60235          11.176         3.77134 
        1.61809         11.0347         3.68419 
        1.63369         10.8306         3.60057 
        1.64941         10.7082         3.51896 
        1.66519         10.5667         3.43959 
        1.68085         10.3759         3.36323 
        1.69652         10.3563         3.28918 
        1.71228         10.1893         3.21694 
        1.72806         10.0185         3.14682 
        1.74368         9.92037         3.07949 
        1.75933         9.82445           3.014 
        1.77505         9.65968         2.95012 
        1.79081         9.56504         2.88798 
         1.8065         9.50794         2.82789 
        1.82218         9.38636         2.76958 
        1.83797         9.24792         2.71251 
        1.85367         9.15044         2.65736 
        1.86928         9.03099         2.60409 
        1.88497         8.95107         2.55198 
        1.90073         8.81702         2.50111 
        1.91647          8.6203         2.45168 
        1.93218         8.61752         2.40369 
        1.94787         8.47201         2.35705 
        1.96363         8.41375         2.31148 
        1.97935         8.36517          2.2672 
        1.99499         8.24469         2.22433 
        2.01064         8.14761         2.18251 
         2.0264         8.05142          2.1415 
        2.04216         8.04935         2.10157 
        2.05781           7.941         2.06292 
        2.07353         7.83041         2.02509 
        2.08928          7.7125         1.98814 
        2.10499         7.65157          1.9522 
        2.12065         7.62978         1.91727 
        2.13633         7.51872         1.88316 
        2.15211         7.44912         1.84966 
        2.16785         7.32766         1.81707 
        2.18349         7.32332         1.78547 
        2.19916          7.2259         1.75455 
        2.21489         7.17027         1.72427 
        2.23063          7.1126         1.69468 
         2.2463          7.0026         1.66592 
        2.26194         6.93323          1.6379 
        2.27765         6.87245         1.61038 
        2.29341          6.7688         1.58342 
        2.30914          6.7821         1.55714 
        2.32486         6.68032         1.53146 
        2.34061         6.64145         1.50633 
        2.35635         6.56122         1.48178 
        2.37203         6.51176         1.45786 
        2.38768         6.45294         1.43452 
        2.40339         6.39662         1.41161 
        2.41914         6.35199         1.38915 
        2.43483         6.30558         1.36725 
         2.4505          6.2273         1.34586 
        2.46622         6.15597         1.32486 
        2.48195         6.16006         1.30431 
        2.49759         6.03777          1.2843 
        2.51328         6.02364         1.26466 
        2.52906         5.95087          1.2453 
        2.54479          5.9051         1.22642 
        2.56049         5.86179         1.20797 
        2.57618         5.82504         1.18992 
        2.59189         5.81837         1.17221 
        2.60758         5.72777         1.15489 
        2.62325          5.6537         1.13793 
        2.63898         5.66639         1.12126 
        2.65468          5.5871         1.10496 
        2.67044         5.54625         1.08892 
        2.68618         5.49002         1.07323 
        2.70184         5.48109         1.05791 
        2.71755         5.40567         1.04285 
        2.73329         5.35682         1.02806 
        2.74897         5.33384         1.01361 
        2.76462         5.29142        0.999465 
        2.78034           5.252        0.985533 
        2.79607         5.20466        0.971853 
        2.81179         5.16596        0.958448 
        2.82749          5.1091        0.945311 
        2.84321         5.08858        0.932405 
        2.85893         5.04856        0.919745 
        2.87462         5.02066        0.907341 
        2.89033         4.98039        0.895155 
        2.90605          4.9415        0.883182 
        2.92176         4.88227        0.871434 
        2.93747         4.86067        0.859906 
        2.95318         4.81446        0.848584 
        2.96891          4.7903        0.837461 
        2.98456         4.75212        0.826586 
        3.00023         4.73478        0.815889 
        3.01596         4.66943        0.805348 
        3.03164          4.6434        0.795023 
        3.04738         4.62535        0.784849 
         3.0631         4.59911        0.774856 
        3.07883         4.55228        0.765037 
        3.09456         4.50119         0.75539 
        3.11026         4.49223        0.745924 
        3.12596         4.45815        0.736621 
        3.14163          4.4265        0.727498 
        3.15734         4.39232        0.718509 
        3.17308         4.37013        0.709649 
        3.18879         4.34252        0.700964 
        3.20447         4.31264        0.692436 
         3.2202         4.26843        0.684024 
         3.2359         4.23891        0.675767 
        3.25157         4.22564        0.667665 
        3.26729         4.19546        0.659672 
        3.28304         4.15536        0.651794 
        3.29877         4.13844        0.644055 
        3.31446         4.11878        0.636458 
        3.33014         4.07046        0.628991 
        3.34585         4.06121        0.621632 
        3.36158         4.02559        0.614379 
        3.37727          4.0016        0.607265 
        3.39294         3.97689        0.600271 
        3.40867         3.95557        0.593361 
        3.42439         3.90349        0.586564 
        3.44008          3.8953        0.579886 
        3.45578         3.86791        0.573307 
        3.47153         3.84037        0.566816 
        3.48724         3.82412        0.560437 
        3.50292         3.79759        0.554171 
        3.51859         3.76713        0.548004 
        3.53431         3.74684        0.541911 
        3.55007         3.72922        0.535896 
        3.56577         3.68802        0.529996 
        3.58146         3.67819        0.524188 
        3.59719          3.6576        0.518453 
        3.61292         3.63197        0.512805 
        3.62859         3.61612        0.507263 
        3.64429         3.58041        0.501793 
        3.66003         3.57204        0.496386 
        3.67578         3.54623        0.491061 
        3.69146         3.51661        0.485834 
        3.70712         3.50666        0.480693 
        3.72284         3.47932        0.475607 
        3.73853         3.45595        0.470603 
        3.75422          3.4278         0.46567 
        3.76993          3.4141        0.460803 
        3.78564         3.39296        0.456007 
        3.80137         3.36876        0.451272 
        3.81707         3.35576        0.446614 
        3.83279         3.32727        0.442018 
        3.84853         3.30481        0.437479 
        3.86424          3.2871        0.433013 
        3.87992         3.26948        0.428615 
        3.89561         3.24713        0.424279 
        3.91134         3.22563        0.419994 
        3.92704         3.20256        0.415772 
        3.94273         3.18684        0.411613 
        3.95845         3.16542        0.407503 
        3.97418         3.15531        0.403449 
        3.98988         3.13242        0.399455 
        4.00554         3.10931        0.395526 
        4.02125         3.08337        0.391638 
        4.03698         3.06859        0.387797 
        4.05268         3.04945        0.384016 
        4.06839         3.03114        0.380283 
         4.0841         3.01266          0.3766 
        4.09983         2.99326        0.372961 
        4.11555         2.97367        0.369372 
        4.13124         2.95717        0.365839 
        4.14693         2.94003         0.36235 
        4.16266          2.9214        0.358898 
        4.17839         2.89949        0.355493 
        4.19408         2.88631         0.35214 
        4.20977         2.87128        0.348829 
        4.22551         2.84548        0.345552 
        4.24123         2.83068        0.342321 
        4.25691         2.81665         0.33914 
        4.27259         2.79606        0.335998 
        4.28831         2.77059         0.33289 
        4.30404         2.76988        0.329818 
        4.31974          2.7515        0.326792 
        4.33543         2.72493        0.323805 
        4.35116         2.71441        0.320848 
        4.36688         2.70025         0.31793 
        4.38255         2.67879        0.315058 
        4.39825         2.66652        0.312216 
        4.41398         2.65673        0.309403 
         4.4297         2.63408        0.306628 
        4.44541         2.61639        0.303888 
        4.46111         2.60066        0.301182 
        4.47683         2.58754        0.298508 
        4.49251         2.57667        0.295872 
        4.50819         2.55585        0.293268 
         4.5239         2.54881        0.290692 
        4.53962         2.53062        0.288144 
        4.55535         2.51513        0.285625 
        4.57106         2.50127        0.283139 
        4.58678         2.48391        0.280683 
         4.6025         2.47452        0.278255 
        4.61821         2.46398        0.275856 
        4.63391         2.44484        0.273489 
         4.6496         2.43517         0.27115 
        4.66532          2.4219        0.268835 
        4.68103          2.4029        0.266548 
        4.69673         2.39226         0.26429 
        4.71241         2.38088         0.26206 
        4.72811         2.36652        0.259853 
        4.74384          2.3589        0.257668 
        4.75955         2.34165        0.255511 
        4.77525         2.32688         0.25338 
        4.79096         2.31757        0.251271 
        4.80669         2.30813        0.249185 
         4.8224         2.29111        0.247125 
        4.83809         2.28141         0.24509 
        4.85379         2.26899        0.243077 
         4.8695         2.25982        0.241085 
        4.88521         2.24483        0.239116 
        4.90093         2.23911        0.237169 
        4.91663         2.22222        0.235245 
        4.93234         2.21526        0.233341 
        4.94807         2.20558        0.231456 
        4.96377           2.186        0.229595 
        4.97943         2.18012        0.227759 
        4.99514         2.16543        0.225939 
        5.01086         2.15534        0.224137 
        5.02654         2.14556        0.222359 
        5.04227         2.13518        0.220595 
          5.058         2.12683        0.218849 
        5.07371         2.11694        0.217126 
        5.08942         2.10691        0.215421 
        5.10513           2.095        0.213734 
        5.12084         2.07788        0.212064 
        5.13656         2.07145        0.210413 
        5.15225         2.05733        0.208782 
        5.16796         2.04992        0.207165 
        5.18369         2.04108        0.205564 
         5.1994          2.0302        0.203983 
        5.21509         2.02374         0.20242 
        5.23079         2.01446        0.200872 
        5.24649         2.00595        0.199341 
        5.26217         1.99456        0.197827 
        5.27788         1.98225        0.196326 
        5.29359         1.97635        0.194841 
        5.30933         1.96693        0.193369 
        5.32504          1.9596        0.191915 
        5.34073          1.9462        0.190477 
        5.35646         1.93574        0.189051 
        5.37218         1.93249        0.187639 
        5.38789         1.91629        0.186244 
        5.40357          1.9112        0.184865 
        5.41929         1.90342        0.183497 
        5.43502         1.89771        0.182142 
         5.4507         1.88271        0.180804 
        5.46639         1.87625         0.17948 
        5.48212         1.86885        0.178166 
        5.49786         1.85879        0.176863 
        5.51353         1.85143         0.17558 
        5.52921         1.84026        0.174308 
        5.54495         1.83706        0.173045 
        5.56066         1.82527        0.171796 
        5.57637         1.81274        0.170559 
        5.59207         1.80987        0.169336 
        5.60778          1.8048        0.168124 
        5.62346         1.78938        0.166926 
        5.63916         1.78374        0.165738 
        5.65487         1.77636        0.164561 
         5.6706         1.77112        0.163395 
        5.68633         1.76044        0.162239 
        5.70203         1.75506        0.161096 
        5.71773         1.74526        0.159965 
        5.73344         1.73865        0.158844 
        5.74916         1.73366        0.157733 
        5.76486         1.72188        0.156634 
        5.78054         1.71478        0.155547 
        5.79626         1.71089        0.154467 
          5.812         1.69834        0.153397 
         5.8277         1.69555         0.15234 
        5.84339         1.68603        0.151293 
        5.85911         1.67986        0.150253 
        5.87484         1.66964        0.149224 
        5.89053         1.66745        0.148206 
        5.90623         1.66198        0.147197 
        5.92195         1.65016        0.146196 
        5.93767         1.64386        0.145205 
        5.95336         1.64107        0.144224 
        5.96905          1.6312        0.143253 
        5.98476         1.62561        0.142289 
        6.00048         1.61738        0.141335 
        6.01617         1.61147         0.14039 
        6.03185         1.60395        0.139454 
        6.04756         1.59979        0.138526 
        6.06331         1.59215        0.137603 
        6.07903         1.58542        0.136691 
        6.09473         1.57941        0.135788 
        6.11044         1.57267        0.134892 
        6.12616         1.56374        0.134005 
        6.14186         1.55852        0.133127 
        6.15755         1.55162        0.132256 
        6.17326         1.54813        0.131392 
        6.18898         1.54254        0.130536 
        6.20467         1.53857        0.129689 
        6.22036         1.53182         0.12885 
         6.2361         1.52593        0.128015 
         6.2518         1.51917         0.12719 
        6.26748         1.51464        0.126373 
        6.28319         1.50509        0.125562 
        6.29893         1.49862        0.124756 
        6.31463         1.49434         0.12396 
        6.33033         1.48764         0.12317 
        6.34604         1.48339        0.122387 
        6.36177         1.47673         0.12161 
        6.37747         1.47247        0.120841 
