# k  (h/Mpc)    Pcb(k)  (Mpc/h)^3    Pcb_linear(k) (Mpc/h)^3   ShotnoiseSubtracted = true
      0.0200456         24202.2         24802.6 
      0.0350414         17140.5         18030.6 
      0.0492313         12784.3         13100.7 
      0.0637834         11097.8         10890.5 
      0.0800726         8750.68         8643.53 
       0.096163         6059.38         6271.63 
       0.111083         4887.91         5002.41 
       0.126058         4495.21         4433.16 
       0.142273         3894.97         3755.86 
       0.158546         3442.22         2966.34 
        0.17375         2759.54         2499.14 
       0.188953         2703.15         2262.92 
       0.204907         2539.62         2002.22 
       0.220756          2208.6            1694 
        0.23588         1982.97         1473.63 
         0.2514         1730.73         1338.78 
       0.267535         1735.45         1211.37 
       0.283568         1574.63         1068.26 
       0.299022         1494.25         951.766 
       0.314451         1424.41         869.849 
       0.330372         1304.89         797.989 
       0.346141         1265.28         724.297 
       0.361624         1216.53         658.286 
       0.377134         1135.96         605.728 
       0.392932         1088.05         560.468 
       0.408854         1072.64         516.643 
       0.424564         989.149         476.197 
       0.440253         970.955          441.49 
       0.455999         945.852         411.311 
       0.471626         912.387         383.576 
        0.48727         875.652         357.632 
       0.502856         848.894         334.325 
       0.518488         844.157          313.53 
       0.534347         792.794         294.197 
       0.550082         777.481         276.371 
       0.565732         770.567         260.063 
       0.581496         731.485         245.127 
       0.597222         715.563         231.429 
       0.612804         705.589         218.833 
       0.628434         686.695         207.093 
       0.644267         669.414         196.117 
       0.660051         652.821             186 
       0.675724         645.235         176.659 
       0.691403         625.238         167.952 
       0.707174         605.275         159.782 
       0.722871         596.585         152.188 
        0.73838         585.585         145.169 
       0.754018         575.285          138.54 
       0.769845         565.928         132.252 
        0.78569         555.517          126.35 
       0.801365         541.387         120.866 
       0.817031           529.5         115.713 
       0.832809          524.01          110.83 
       0.848511         512.944         106.251 
       0.864097         496.913         101.964 
       0.879701         490.427         97.9098 
       0.895507         489.006         94.0297 
       0.911279         476.607         90.3689 
        0.92691         469.978         86.9342 
       0.942635         457.557         83.6599 
       0.958396         446.706          80.548 
       0.974128         441.509         77.6008 
       0.989692           439.2         74.8307 
        1.00528         425.516         72.1924 
        1.02113         423.551         69.6404 
        1.03692         412.704         67.2218 
        1.05264         408.744         64.9296 
        1.06832         398.129         62.7483 
        1.08405         393.495         60.6618 
        1.09979         387.735         58.6693 
        1.11537         380.706         56.7864 
        1.13105         375.071         54.9753 
        1.14679         364.736         53.2364 
        1.16256         357.719         51.5697 
        1.17828         357.631           49.98 
        1.19395         349.441          48.463 
         1.2097         341.854         47.0015 
        1.22537         336.064         45.6074 
          1.241         331.568         44.2744 
        1.25666         327.677         42.9915 
        1.27241         322.211         41.7536 
        1.28819         316.507         40.5625 
        1.30392         310.495         39.4214 
        1.31957         307.974         38.3295 
        1.33529         303.944         37.2751 
        1.35108          297.32         36.2563 
        1.36674         292.133          35.283 
         1.3824         289.921         34.3464 
        1.39811         284.826         33.4408 
        1.41389          281.74         32.5644 
        1.42964         278.083         31.7211 
        1.44531         274.482         30.9118 
        1.46101         268.549         30.1291 
        1.47667          265.53         29.3759 
        1.49229         262.511         28.6506 
        1.50793         256.091          27.949 
        1.52367         254.888         27.2664 
        1.53953         250.332         26.6021 
        1.55526         246.743         25.9653 
        1.57092          244.27          25.352 
        1.58662         241.559         24.7571 
        1.60235          237.26         24.1802 
        1.61809         234.239         23.6214 
        1.63369         231.708         23.0853 
        1.64941         227.274          22.562 
        1.66519         225.315         22.0531 
        1.68085         222.419         21.5636 
        1.69652         219.134         21.0888 
        1.71228         213.643         20.6256 
        1.72806         211.513          20.176 
        1.74368         208.542         19.7443 
        1.75933         205.823         19.3245 
        1.77505          204.06         18.9149 
        1.79081         201.534         18.5164 
         1.8065         197.273         18.1312 
        1.82218         195.348         17.7573 
        1.83797         194.311         17.3914 
        1.85367         190.878         17.0378 
        1.86928         187.571         16.6963 
        1.88497         185.519         16.3622 
        1.90073         183.017          16.036 
        1.91647         181.943         15.7191 
        1.93218         178.839         15.4114 
        1.94787         175.006         15.1124 
        1.96363         173.108         14.8202 
        1.97935         171.482         14.5363 
        1.99499          169.47         14.2614 
        2.01064         167.139         13.9933 
         2.0264         165.865         13.7304 
        2.04216         163.462         13.4744 
        2.05781         161.075         13.2265 
        2.07353         159.569          12.984 
        2.08928          156.64         12.7471 
        2.10499         155.489         12.5167 
        2.12065         153.113         12.2927 
        2.13633         150.845          12.074 
        2.15211         148.906         11.8592 
        2.16785         147.661         11.6502 
        2.18349          146.05         11.4476 
        2.19916         143.982         11.2494 
        2.21489         142.661         11.0553 
        2.23063         140.395         10.8655 
         2.2463         138.596         10.6811 
        2.26194         136.496         10.5015 
        2.27765         135.315          10.325 
        2.29341         133.871         10.1522 
        2.30914          132.42         9.98368 
        2.32486         130.411         9.81908 
        2.34061         128.925         9.65791 
        2.35635         127.292         9.50052 
        2.37203          126.15         9.34717 
        2.38768         124.145         9.19753 
        2.40339         122.939         9.05063 
        2.41914         121.431          8.9066 
        2.43483         120.002         8.76621 
         2.4505         118.777         8.62909 
        2.46622         117.332         8.49443 
        2.48195         115.462         8.36263 
        2.49759         114.341         8.23434 
        2.51328         113.454         8.10841 
        2.52906         111.864         7.98432 
        2.54479         110.722         7.86328 
        2.56049         109.015         7.74499 
        2.57618         108.273         7.62924 
        2.59189         107.286         7.51569 
        2.60758         105.987         7.40462 
        2.62325         104.309         7.29593 
        2.63898          103.13         7.18905 
        2.65468         101.995         7.08453 
        2.67044         101.182         6.98165 
        2.68618         100.202         6.88105 
        2.70184         99.2411         6.78283 
        2.71755         97.6046         6.68628 
        2.73329         96.7839         6.59147 
        2.74897         95.8253          6.4988 
        2.76462         94.7425         6.40812 
        2.78034         93.5852          6.3188 
        2.79607         92.3421         6.23109 
        2.81179         91.6208         6.14514 
        2.82749         90.6399         6.06092 
        2.84321         89.4899         5.97817 
        2.85893         88.6202           5.897 
        2.87462         87.6958         5.81747 
        2.89033         86.6248         5.73934 
        2.90605         85.7412         5.66257 
        2.92176         84.6962         5.58725 
        2.93747         83.9247         5.51334 
        2.95318         83.0112         5.44075 
        2.96891         82.3491         5.36943 
        2.98456         81.3084         5.29971 
        3.00023         80.4797         5.23112 
        3.01596         79.3726         5.16353 
        3.03164         78.7429         5.09733 
        3.04738         77.6568          5.0321 
         3.0631         76.9212         4.96804 
        3.07883         76.2692         4.90508 
        3.09456         75.7798         4.84323 
        3.11026         74.7635         4.78253 
        3.12596         73.8378         4.72289 
        3.14163         73.4173          4.6644 
        3.15734         72.3441         4.60676 
        3.17308         71.6069         4.54996 
        3.18879         71.0532         4.49427 
        3.20447         70.1486         4.43959 
         3.2202          69.597         4.38566 
         3.2359         68.7072         4.33272 
        3.25157         68.2387         4.28077 
        3.26729         67.5049         4.22952 
        3.28304         66.9711         4.17901 
        3.29877         66.1642         4.12939 
        3.31446         65.2588         4.08069 
        3.33014         64.7079         4.03281 
        3.34585         63.9703         3.98563 
        3.36158         63.5258         3.93913 
        3.37727         63.0149         3.89352 
        3.39294         62.0494         3.84867 
        3.40867         61.6591         3.80437 
        3.42439          61.116         3.76079 
        3.44008         60.3795         3.71797 
        3.45578         59.7728         3.67579 
        3.47153         59.1986         3.63418 
        3.48724          58.805         3.59328 
        3.50292         58.2996          3.5531 
        3.51859         57.5733         3.51356 
        3.53431         57.1749         3.47449 
        3.55007         56.6554         3.43593 
        3.56577         56.2151          3.3981 
        3.58146         55.5891         3.36086 
        3.59719         54.9394         3.32409 
        3.61292         54.4455         3.28788 
        3.62859         53.8147         3.25235 
        3.64429         53.4369         3.21727 
        3.66003         53.0238         3.18261 
        3.67578         52.4474         3.14847 
        3.69146         51.8951         3.11495 
        3.70712         51.3882         3.08199 
        3.72284         51.0019         3.04938 
        3.73853         50.4703          3.0173 
        3.75422         49.9196         2.98567 
        3.76993         49.4171         2.95446 
        3.78564         49.0736         2.92372 
        3.80137         48.6268         2.89336 
        3.81707         48.0483         2.86349 
        3.83279         47.6927         2.83402 
        3.84853         47.3828         2.80492 
        3.86424         46.9137         2.77629 
        3.87992         46.3754         2.74809 
        3.89561         46.0828         2.72029 
        3.91134         45.6788         2.69281 
        3.92704         45.1067         2.66575 
        3.94273         44.6951         2.63908 
        3.95845         44.3996         2.61273 
        3.97418           44.01         2.58674 
        3.98988         43.5627         2.56113 
        4.00554         43.2601         2.53594 
        4.02125         42.7824         2.51101 
        4.03698         42.3795         2.48638 
        4.05268          42.027         2.46214 
        4.06839         41.5807          2.4382 
         4.0841         41.3007         2.41459 
        4.09983         41.0376         2.39126 
        4.11555          40.553         2.36825 
        4.13124         40.2116          2.3456 
        4.14693         39.9615         2.32323 
        4.16266         39.6092         2.30109 
        4.17839         39.2098         2.27926 
        4.19408         38.7547         2.25777 
        4.20977         38.5352         2.23654 
        4.22551         38.2025         2.21553 
        4.24123          37.904         2.19481 
        4.25691         37.5435         2.17442 
        4.27259         37.1733         2.15427 
        4.28831         36.9485         2.13434 
        4.30404         36.6207         2.11465 
        4.31974          36.294         2.09524 
        4.33543         35.9242          2.0761 
        4.35116         35.7596         2.05714 
        4.36688         35.3471         2.03843 
        4.38255         35.0272         2.02002 
        4.39825         34.7794         2.00179 
        4.41398         34.5057         1.98376 
         4.4297         34.1872         1.96596 
        4.44541         33.9562         1.94839 
        4.46111         33.6176         1.93105 
        4.47683         33.3159          1.9139 
        4.49251          33.079           1.897 
        4.50819         32.8219         1.88031 
         4.5239         32.6066         1.86379 
        4.53962         32.2929         1.84745 
        4.55535         31.9966          1.8313 
        4.57106          31.721         1.81536 
        4.58678         31.5002         1.79961 
         4.6025         31.1735         1.78405 
        4.61821         30.9936         1.76867 
        4.63391         30.7182         1.75349 
         4.6496         30.4906         1.73849 
        4.66532         30.2568         1.72365 
        4.68103         30.0237         1.70899 
        4.69673         29.7379         1.69451 
        4.71241         29.5641         1.68022 
        4.72811         29.3375         1.66606 
        4.74384         29.1109         1.65205 
        4.75955         28.7713         1.63822 
        4.77525         28.6494         1.62456 
        4.79096         28.3911         1.61104 
        4.80669         28.1466         1.59766 
         4.8224         27.8952         1.58445 
        4.83809         27.7477         1.57141 
        4.85379         27.5657          1.5585 
         4.8695          27.258         1.54573 
        4.88521         27.0577         1.53311 
        4.90093         26.8428         1.52062 
        4.91663         26.5977         1.50829 
        4.93234         26.3562         1.49608 
        4.94807         26.2682         1.48399 
        4.96377         26.0682         1.47206 
        4.97943          25.818         1.46029 
        4.99514         25.5996         1.44862 
        5.01086           25.45         1.43706 
        5.02654         25.2017         1.42567 
        5.04227         25.0161         1.41436 
          5.058         24.9077         1.40316 
        5.07371         24.6346         1.39211 
        5.08942         24.4136         1.38118 
        5.10513         24.2689         1.37037 
        5.12084         24.1351         1.35966 
        5.13656         23.9606         1.34907 
        5.15225         23.7333         1.33862 
        5.16796         23.5273         1.32825 
        5.18369         23.3774         1.31799 
         5.1994         23.1667         1.30785 
        5.21509         23.0353         1.29783 
        5.23079         22.8169          1.2879 
        5.24649         22.7182         1.27808 
        5.26217         22.5183         1.26838 
        5.27788          22.362         1.25876 
        5.29359         22.1946         1.24923 
        5.30933         21.9775          1.2398 
        5.32504         21.8198         1.23047 
        5.34073         21.7362         1.22125 
        5.35646         21.5544         1.21211 
        5.37218         21.3782         1.20306 
        5.38789         21.2292         1.19412 
        5.40357         21.0952         1.18527 
        5.41929           20.86          1.1765 
        5.43502         20.8068         1.16782 
         5.4507         20.6112         1.15924 
        5.46639         20.4773         1.15075 
        5.48212         20.3341         1.14232 
        5.49786         20.1682         1.13397 
        5.51353         19.9986         1.12574 
        5.52921         19.8492         1.11759 
        5.54495         19.7373         1.10949 
        5.56066         19.5848         1.10148 
        5.57637          19.438         1.09355 
        5.59207         19.2982         1.08571 
        5.60778         19.1361         1.07794 
        5.62346           19.02         1.07025 
        5.63916         18.8863         1.06264 
        5.65487         18.7879         1.05509 
         5.6706         18.6294         1.04761 
        5.68633         18.4911          1.0402 
        5.70203         18.3398         1.03288 
        5.71773         18.2583         1.02563 
        5.73344         18.1418         1.01844 
        5.74916         17.9551         1.01131 
        5.76486         17.8598         1.00427 
        5.78054         17.7634        0.997299 
        5.79626          17.603        0.990377 
          5.812         17.4999        0.983514 
         5.8277         17.3446        0.976735 
        5.84339         17.2668        0.970021 
        5.85911         17.1501        0.963356 
        5.87484         16.9847        0.956756 
        5.89053          16.861         0.95023 
        5.90623          16.751        0.943762 
        5.92195          16.645        0.937343 
        5.93767          16.538        0.930987 
        5.95336         16.4359        0.924701 
        5.96905         16.2948        0.918475 
        5.98476         16.1912        0.912297 
        6.00048         16.0864        0.906174 
        6.01617         15.9673        0.900116 
        6.03185         15.8749         0.89412 
        6.04756          15.725        0.888165 
        6.06331         15.6365        0.882251 
        6.07903         15.5502        0.876403 
        6.09473          15.433        0.870613 
        6.11044         15.3011        0.864871 
        6.12616         15.2019        0.859181 
        6.14186         15.1037        0.853548 
        6.15755         15.0134        0.847966 
        6.17326         14.9158         0.84243 
        6.18898         14.8177         0.83694 
        6.20467         14.7208        0.831509 
        6.22036         14.6118        0.826127 
         6.2361         14.4977        0.820777 
         6.2518          14.429        0.815484 
        6.26748         14.3221        0.810249 
        6.28319         14.2059        0.805045 
        6.29893          14.131        0.799883 
        6.31463         14.0125        0.794774 
        6.33033         13.9662        0.789712 
        6.34604         13.8526        0.784691 
        6.36177         13.7566        0.779708 
        6.37747         13.6697        0.774777 
