# k  (h/Mpc)    Pcb(k)  (Mpc/h)^3    Pcb_linear(k) (Mpc/h)^3   ShotnoiseSubtracted = true
      0.0200456          7183.2          7282.7 
      0.0350414         5414.69         5294.28 
      0.0492313         3831.51         3846.72 
      0.0637834         3111.01         3197.75 
      0.0800726         2455.58         2537.97 
       0.096163          1896.9         1841.52 
       0.111083         1536.61         1468.84 
       0.126058         1292.15         1301.69 
       0.142273         1104.87         1102.82 
       0.158546         903.378         870.998 
        0.17375         782.954         733.815 
       0.188953         716.145         664.453 
       0.204907         609.632         587.905 
       0.220756         543.691         497.403 
        0.23588         480.171         432.698 
         0.2514         430.677         393.102 
       0.267535          412.34         355.689 
       0.283568         359.386          313.67 
       0.299022         338.646         279.464 
       0.314451         331.832         255.411 
       0.330372         287.455         234.311 
       0.346141         265.881         212.673 
       0.361624         251.082         193.291 
       0.377134         230.681         177.858 
       0.392932         224.655         164.568 
       0.408854         211.933           151.7 
       0.424564         202.639         139.824 
       0.440253         183.154         129.633 
       0.455999         172.341         120.772 
       0.471626         168.258         112.628 
        0.48727         161.846          105.01 
       0.502856         147.812         98.1669 
       0.518488          145.86         92.0608 
       0.534347         136.441         86.3841 
       0.550082         133.138           81.15 
       0.565732         130.393         76.3615 
       0.581496         120.255         71.9759 
       0.597222         117.498         67.9537 
       0.612804          113.58         64.2553 
       0.628434         110.533          60.808 
       0.644267         104.783         57.5851 
       0.660051         101.503         54.6147 
       0.675724         99.6691         51.8719 
       0.691403         97.4211         49.3151 
       0.707174         94.0047         46.9163 
       0.722871         92.0978         44.6865 
        0.73838         89.4125         42.6255 
       0.754018         84.2093          40.679 
       0.769845         83.6605         38.8329 
        0.78569         81.1184         37.0997 
       0.801365         78.6835         35.4896 
       0.817031          76.042         33.9766 
       0.832809         74.7047         32.5426 
       0.848511         72.9584         31.1981 
       0.864097         71.6242         29.9392 
       0.879701         70.2091          28.749 
       0.895507          67.583         27.6097 
       0.911279          66.589         26.5347 
        0.92691         64.6694         25.5262 
       0.942635          63.318         24.5648 
       0.958396         63.1079         23.6511 
       0.974128         61.5409         22.7857 
       0.989692         59.9872         21.9723 
        1.00528         58.8949         21.1976 
        1.02113          57.591         20.4483 
        1.03692         57.3308         19.7381 
        1.05264         56.0709         19.0651 
        1.06832          54.564         18.4246 
        1.08405         53.7058         17.8119 
        1.09979         53.3978         17.2269 
        1.11537         51.9168          16.674 
        1.13105          50.699         16.1422 
        1.14679         50.1727         15.6316 
        1.16256         49.4016         15.1422 
        1.17828         48.8378         14.6755 
        1.19395         47.5529           14.23 
         1.2097         47.5709         13.8009 
        1.22537         46.4236         13.3916 
          1.241          45.809         13.0002 
        1.25666         44.7591         12.6235 
        1.27241         44.6195           12.26 
        1.28819          43.564         11.9102 
        1.30392         43.1023         11.5752 
        1.31957          42.746         11.2546 
        1.33529         41.9775          10.945 
        1.35108         41.2277         10.6458 
        1.36674         40.7412           10.36 
         1.3824         40.1154          10.085 
        1.39811         39.4252         9.81911 
        1.41389         38.9309          9.5618 
        1.42964         38.6559         9.31417 
        1.44531         37.8075         9.07654 
        1.46101         37.6142         8.84672 
        1.47667          37.127         8.62556 
        1.49229         36.4891         8.41258 
        1.50793         36.1656         8.20657 
        1.52367         35.5644         8.00614 
        1.53953         35.3983         7.81108 
        1.55526         34.8122          7.6241 
        1.57092         34.3978         7.44402 
        1.58662         33.8899         7.26934 
        1.60235         33.4822         7.09995 
        1.61809          33.114         6.93588 
        1.63369         32.7646         6.77846 
        1.64941         32.3406         6.62482 
        1.66519         31.8489         6.47539 
        1.68085         31.4355         6.33165 
        1.69652         31.1146         6.19223 
        1.71228         30.9438         6.05623 
        1.72806         30.4223         5.92422 
        1.74368         30.0381         5.79747 
        1.75933         29.8463         5.67418 
        1.77505         29.6077         5.55391 
        1.79081         29.1998         5.43693 
         1.8065         28.7873         5.32381 
        1.82218         28.4514         5.21402 
        1.83797         28.2915         5.10658 
        1.85367         27.8721         5.00277 
        1.86928         27.8907         4.90247 
        1.88497         27.2883         4.80438 
        1.90073         27.1008         4.70861 
        1.91647         26.8417         4.61555 
        1.93218         26.7913          4.5252 
        1.94787         26.4084         4.43741 
        1.96363         26.0313          4.3516 
        1.97935          25.759         4.26824 
        1.99499         25.6056         4.18754 
        2.01064         25.2067         4.10881 
         2.0264         25.0119         4.03161 
        2.04216         24.8919         3.95644 
        2.05781         24.5868         3.88366 
        2.07353         24.3545         3.81245 
        2.08928         23.9684         3.74288 
        2.10499         23.8173         3.67523 
        2.12065         23.5657         3.60946 
        2.13633         23.4032         3.54524 
        2.15211         23.0179         3.48218 
        2.16785         22.9909         3.42082 
        2.18349         22.6968         3.36133 
        2.19916         22.4841         3.30313 
        2.21489         22.2213         3.24612 
        2.23063         22.1307         3.19042 
         2.2463         21.8601         3.13627 
        2.26194         21.6544         3.08352 
        2.27765         21.3722         3.03171 
        2.29341         21.1824         2.98096 
        2.30914         20.9886         2.93148 
        2.32486         20.8616         2.88314 
        2.34061         20.6732         2.83582 
        2.35635         20.3634         2.78961 
        2.37203         20.2634         2.74458 
        2.38768         20.0805         2.70064 
        2.40339         19.9841         2.65751 
        2.41914         19.7462         2.61522 
        2.43483         19.5897           2.574 
         2.4505         19.2912         2.53373 
        2.46622         19.1981         2.49419 
        2.48195         18.9908         2.45549 
        2.49759         18.7297         2.41782 
        2.51328          18.666         2.38085 
        2.52906         18.5343         2.34441 
        2.54479         18.3249         2.30887 
        2.56049         18.1969         2.27414 
        2.57618         18.0982         2.24015 
        2.59189          17.815         2.20681 
        2.60758         17.6323          2.1742 
        2.62325         17.5143         2.14228 
        2.63898         17.4163          2.1109 
        2.65468         17.2145         2.08021 
        2.67044         17.0291            2.05 
        2.68618         16.9284         2.02046 
        2.70184         16.7514         1.99162 
        2.71755          16.584         1.96327 
        2.73329         16.4773         1.93543 
        2.74897          16.326         1.90822 
        2.76462         16.2025          1.8816 
        2.78034         16.0018         1.85537 
        2.79607         15.9171         1.82962 
        2.81179         15.7893         1.80438 
        2.82749         15.6129         1.77965 
        2.84321         15.5234         1.75535 
        2.85893         15.3044         1.73152 
        2.87462          15.261         1.70817 
        2.89033         15.1023         1.68522 
        2.90605         14.9744         1.66268 
        2.92176         14.8347         1.64057 
        2.93747         14.7078         1.61886 
        2.95318         14.6045         1.59755 
        2.96891         14.4663         1.57661 
        2.98456         14.3638         1.55614 
        3.00023         14.2228           1.536 
        3.01596          14.139         1.51615 
        3.03164         13.9996         1.49671 
        3.04738         13.8819         1.47756 
         3.0631         13.7551         1.45875 
        3.07883         13.6624         1.44026 
        3.09456         13.5366          1.4221 
        3.11026         13.4486         1.40428 
        3.12596         13.3411         1.38677 
        3.14163         13.1958         1.36959 
        3.15734           13.09         1.35267 
        3.17308         13.0331         1.33599 
        3.18879         12.8561         1.31964 
        3.20447         12.8284         1.30358 
         3.2202         12.6762         1.28775 
         3.2359         12.5668          1.2722 
        3.25157          12.519         1.25695 
        3.26729         12.3528          1.2419 
        3.28304         12.2553         1.22707 
        3.29877         12.2195          1.2125 
        3.31446         12.0831          1.1982 
        3.33014         12.0115         1.18414 
        3.34585         11.8572         1.17029 
        3.36158         11.7832         1.15663 
        3.37727         11.7378         1.14324 
        3.39294         11.6202         1.13007 
        3.40867         11.4994         1.11706 
        3.42439         11.4067         1.10427 
        3.44008         11.3559          1.0917 
        3.45578         11.2146         1.07931 
        3.47153         11.1625         1.06709 
        3.48724         11.0934         1.05508 
        3.50292         10.9985         1.04329 
        3.51859         10.9008         1.03168 
        3.53431         10.7773         1.02021 
        3.55007          10.728         1.00888 
        3.56577         10.6044        0.997774 
        3.58146         10.5083        0.986839 
        3.59719         10.4392        0.976042 
        3.61292         10.4042        0.965411 
        3.62859         10.3054        0.954977 
        3.64429         10.2148        0.944678 
        3.66003         10.1351          0.9345 
        3.67578         10.0499        0.924475 
        3.69146         9.99937        0.914634 
        3.70712         9.89501        0.904955 
        3.72284          9.8265         0.89538 
        3.73853         9.76147         0.88596 
        3.75422         9.68355        0.876672 
        3.76993         9.58214         0.86751 
        3.78564         9.54108        0.858482 
        3.80137         9.45384        0.849567 
        3.81707         9.36695        0.840798 
        3.83279         9.28841        0.832145 
        3.84853         9.24124        0.823601 
        3.86424         9.15918        0.815193 
        3.87992         9.11604        0.806914 
        3.89561          9.0346         0.79875 
        3.91134         8.96146        0.790683 
        3.92704         8.88969        0.782736 
        3.94273          8.8202        0.774906 
        3.95845         8.75292        0.767169 
        3.97418         8.68757        0.759535 
        3.98988         8.64584        0.752016 
        4.00554         8.56666         0.74462 
        4.02125         8.51391        0.737301 
        4.03698         8.44469        0.730069 
        4.05268         8.36655        0.722951 
        4.06839         8.28414        0.715923 
         4.0841         8.22573         0.70899 
        4.09983         8.17604        0.702139 
        4.11555         8.08291        0.695381 
        4.13124         8.04066        0.688731 
        4.14693         7.97246        0.682162 
        4.16266         7.92739        0.675663 
        4.17839         7.85892        0.669253 
        4.19408         7.82602        0.662941 
        4.20977         7.71654        0.656707 
        4.22551         7.69237        0.650539 
        4.24123         7.65115        0.644456 
        4.25691         7.58953        0.638467 
        4.27259         7.49968        0.632552 
        4.28831         7.45852        0.626701 
        4.30404         7.41912        0.620918 
        4.31974         7.35009         0.61522 
        4.33543         7.29059        0.609597 
        4.35116         7.21884        0.604031 
        4.36688         7.18779        0.598537 
        4.38255         7.14329        0.593131 
        4.39825         7.06598         0.58778 
        4.41398         7.01881        0.582485 
         4.4297         6.97076         0.57726 
        4.44541         6.92183        0.572101 
        4.46111         6.89434        0.567008 
        4.47683         6.82933        0.561974 
        4.49251         6.78519        0.557011 
        4.50819         6.73199        0.552109 
         4.5239          6.6621        0.547259 
        4.53962         6.62878        0.542461 
        4.55535         6.57456        0.537718 
        4.57106         6.54099        0.533039 
        4.58678         6.47882        0.528415 
         4.6025         6.43336        0.523844 
        4.61821         6.40052        0.519328 
        4.63391         6.34224        0.514872 
         4.6496         6.29981        0.510469 
        4.66532         6.25968        0.506111 
        4.68103         6.21416        0.501805 
        4.69673         6.17245        0.497554 
        4.71241         6.12353        0.493356 
        4.72811         6.08668          0.4892 
        4.74384         6.06047        0.485086 
        4.75955         6.00163        0.481026 
        4.77525         5.96057        0.477015 
        4.79096          5.9215        0.473044 
        4.80669          5.8623        0.469117 
         4.8224          5.8309        0.465238 
        4.83809         5.78934        0.461408 
        4.85379         5.74319        0.457618 
         4.8695         5.71365        0.453868 
        4.88521         5.67772        0.450161 
        4.90093         5.63203        0.446496 
        4.91663         5.58441        0.442874 
        4.93234         5.55729        0.439288 
        4.94807          5.5122         0.43574 
        4.96377         5.47707        0.432238 
        4.97943         5.43898        0.428781 
        4.99514         5.39455        0.425354 
        5.01086         5.36768        0.421961 
        5.02654         5.33336        0.418614 
        5.04227          5.2959        0.415293 
          5.058         5.24522        0.412007 
        5.07371         5.21755        0.408762 
        5.08942         5.18756        0.405553 
        5.10513         5.15416        0.402377 
        5.12084         5.12167        0.399233 
        5.13656         5.07071        0.396124 
        5.15225         5.04501        0.393053 
        5.16796          5.0149         0.39001 
        5.18369         4.96866        0.386997 
         5.1994         4.93829         0.38402 
        5.21509         4.91538        0.381078 
        5.23079         4.88174        0.378162 
        5.24649         4.84932         0.37528 
        5.26217         4.81369         0.37243 
        5.27788         4.78986        0.369605 
        5.29359          4.7481        0.366809 
        5.30933         4.72238        0.364038 
        5.32504         4.69097          0.3613 
        5.34073         4.66289        0.358593 
        5.35646         4.63713        0.355908 
        5.37218         4.58714        0.353251 
        5.38789         4.56921        0.350625 
        5.40357         4.53464        0.348028 
        5.41929         4.50382        0.345452 
        5.43502         4.47383        0.342902 
         5.4507         4.45535        0.340384 
        5.46639         4.41803         0.33789 
        5.48212         4.39933        0.335416 
        5.49786          4.3621        0.332963 
        5.51353         4.33902        0.330547 
        5.52921          4.3185        0.328153 
        5.54495         4.28139        0.325775 
        5.56066         4.25273        0.323424 
        5.57637         4.22337        0.321096 
        5.59207         4.19938        0.318793 
        5.60778         4.17397        0.316511 
        5.62346          4.1534        0.314256 
        5.63916         4.11624         0.31202 
        5.65487         4.09803        0.309804 
         5.6706         4.07815        0.307608 
        5.68633          4.0496        0.305431 
        5.70203          4.0237        0.303281 
        5.71773          3.9999        0.301151 
        5.73344         3.97142        0.299041 
        5.74916         3.94851        0.296949 
        5.76486         3.91976         0.29488 
        5.78054         3.90039        0.292834 
        5.79626         3.87464        0.290801 
          5.812         3.84985        0.288786 
         5.8277          3.8177        0.286796 
        5.84339         3.80795        0.284824 
        5.85911         3.77903        0.282867 
        5.87484         3.75854        0.280929 
        5.89053         3.73283        0.279013 
        5.90623         3.71465        0.277114 
        5.92195         3.69082        0.275229 
        5.93767         3.66103        0.273363 
        5.95336          3.6477        0.271517 
        5.96905         3.61608        0.269689 
        5.98476         3.60943        0.267875 
        6.00048         3.57307        0.266077 
        6.01617         3.55749        0.264298 
        6.03185         3.53805        0.262538 
        6.04756         3.50832        0.260789 
        6.06331         3.49299        0.259053 
        6.07903         3.46771        0.257335 
        6.09473         3.45213        0.255636 
        6.11044         3.42904        0.253949 
        6.12616         3.40969        0.252279 
        6.14186         3.39052        0.250625 
        6.15755         3.36684        0.248986 
        6.17326          3.3499         0.24736 
        6.18898         3.32715        0.245748 
        6.20467         3.31165        0.244153 
        6.22036         3.29094        0.242573 
         6.2361          3.2741        0.241002 
         6.2518         3.25613        0.239448 
        6.26748         3.23935        0.237911 
        6.28319         3.21373        0.236383 
        6.29893         3.19851        0.234867 
        6.31463         3.18124        0.233367 
        6.33033         3.16595        0.231881 
        6.34604         3.14591        0.230406 
        6.36177          3.1286        0.228943 
        6.37747         3.10559        0.227496 
