# k  (h/Mpc)    Pcb(k)  (Mpc/h)^3    Pcb_linear(k) (Mpc/h)^3   ShotnoiseSubtracted = true
      0.0200456          4035.3         4099.06 
      0.0350414          2935.4         2979.88 
      0.0492313         2165.09         2165.12 
      0.0637834         1826.59         1799.85 
      0.0800726         1447.86          1428.5 
       0.096163         1026.12          1036.5 
       0.111083         813.857         826.737 
       0.126058         740.801         732.657 
       0.142273          635.69         620.722 
       0.158546         512.443          490.24 
        0.17375         418.213         413.027 
       0.188953         392.245         373.987 
       0.204907         363.925         330.902 
       0.220756         303.925         279.963 
        0.23588         265.239         243.544 
         0.2514         235.505         221.257 
       0.267535         220.072         200.199 
       0.283568         198.034         176.549 
       0.299022         180.916         157.296 
       0.314451         163.375         143.758 
       0.330372         151.856         131.882 
       0.346141         137.139         119.703 
       0.361624         128.667         108.793 
       0.377134           121.1         100.107 
       0.392932         108.581         92.6272 
       0.408854         104.452         85.3844 
       0.424564          99.474            78.7 
       0.440253         92.1926          72.964 
       0.455999         86.8042         67.9764 
       0.471626         80.6438         63.3928 
        0.48727         77.7056         59.1051 
       0.502856         73.5079         55.2532 
       0.518488         70.5754         51.8163 
       0.534347         67.7902         48.6212 
       0.550082           62.25         45.6752 
       0.565732         58.8509           42.98 
       0.581496         57.1221         40.5116 
       0.597222         55.2578         38.2477 
       0.612804         51.9234          36.166 
       0.628434         50.4172         34.2257 
       0.644267         49.0135         32.4117 
       0.660051         46.9388         30.7398 
       0.675724         44.6819          29.196 
       0.691403         43.3178          27.757 
       0.707174          42.019         26.4068 
       0.722871         40.4359         25.1518 
        0.73838         39.2122         23.9918 
       0.754018         37.4498         22.8961 
       0.769845           36.51          21.857 
        0.78569         35.4172         20.8816 
       0.801365         34.1381         19.9753 
       0.817031          33.359         19.1237 
       0.832809          32.713         18.3165 
       0.848511         30.8201         17.5598 
       0.864097          30.292         16.8513 
       0.879701         29.6548         16.1813 
       0.895507         29.0496         15.5401 
       0.911279         28.1095         14.9351 
        0.92691         27.4414         14.3674 
       0.942635         26.4114         13.8263 
       0.958396         26.0381          13.312 
       0.974128         25.2439         12.8249 
       0.989692         24.9702         12.3671 
        1.00528         24.3801         11.9311 
        1.02113         23.4456         11.5093 
        1.03692         22.9821         11.1096 
        1.05264         22.5864         10.7308 
        1.06832         22.0362         10.3703 
        1.08405         21.5162         10.0254 
        1.09979         21.0858         9.69614 
        1.11537         20.6449         9.38496 
        1.13105         20.3583         9.08563 
        1.14679         20.0694         8.79826 
        1.16256         19.3429          8.5228 
        1.17828         19.2821         8.26008 
        1.19395         18.6676         8.00937 
         1.2097         18.5165         7.76782 
        1.22537         18.0591         7.53744 
          1.241         17.7618         7.31713 
        1.25666         17.3182          7.1051 
        1.27241         17.0015         6.90051 
        1.28819         16.6664         6.70366 
        1.30392         16.5354         6.51509 
        1.31957         16.3184         6.33463 
        1.33529         16.0433         6.16037 
        1.35108         15.6635         5.99199 
        1.36674         15.4877         5.83114 
         1.3824         15.1359         5.67635 
        1.39811          14.917         5.52668 
        1.41389         14.7583         5.38185 
        1.42964         14.5443         5.24247 
        1.44531         14.4018         5.10872 
        1.46101         13.9894         4.97937 
        1.47667         13.8457         4.85489 
        1.49229         13.6747         4.73501 
        1.50793         13.4781         4.61906 
        1.52367         13.2733         4.50625 
        1.53953         13.1013         4.39646 
        1.55526         12.8983         4.29122 
        1.57092         12.7042         4.18986 
        1.58662         12.5863         4.09154 
        1.60235         12.3787          3.9962 
        1.61809         12.2355         3.90385 
        1.63369          12.066         3.81525 
        1.64941         11.8595         3.72877 
        1.66519         11.7875         3.64467 
        1.68085         11.5978         3.56376 
        1.69652         11.4428         3.48529 
        1.71228         11.2863         3.40874 
        1.72806         11.2257         3.33444 
        1.74368         11.0254          3.2631 
        1.75933         10.9144         3.19371 
        1.77505         10.7796         3.12602 
        1.79081          10.601         3.06017 
         1.8065         10.5388          2.9965 
        1.82218          10.346         2.93471 
        1.83797         10.2733         2.87424 
        1.85367         10.1231          2.8158 
        1.86928         10.1127         2.75935 
        1.88497         9.87892         2.70414 
        1.90073         9.85437         2.65024 
        1.91647         9.75238         2.59786 
        1.93218         9.65677           2.547 
        1.94787         9.50584         2.49759 
        1.96363         9.44335         2.44929 
        1.97935          9.2872         2.40237 
        1.99499         9.17028         2.35695 
        2.01064          9.0936         2.31264 
         2.0264         9.01836         2.26919 
        2.04216         8.91117         2.22688 
        2.05781         8.78616         2.18591 
        2.07353         8.73913         2.14584 
        2.08928         8.64866         2.10668 
        2.10499         8.60102          2.0686 
        2.12065         8.46068         2.03158 
        2.13633         8.43894         1.99544 
        2.15211         8.30118         1.95994 
        2.16785         8.24651         1.92541 
        2.18349         8.18273         1.89192 
        2.19916         8.08995         1.85917 
        2.21489           7.995         1.82708 
        2.23063         7.92876         1.79572 
         2.2463         7.83245         1.76525 
        2.26194         7.75339         1.73556 
        2.27765         7.72513          1.7064 
        2.29341          7.6394         1.67783 
        2.30914          7.5346         1.64998 
        2.32486         7.46205         1.62278 
        2.34061         7.41697         1.59614 
        2.35635         7.38075         1.57013 
        2.37203         7.29844         1.54479 
        2.38768         7.19274         1.52005 
        2.40339         7.16503         1.49578 
        2.41914         7.05762         1.47197 
        2.43483         7.04677         1.44877 
         2.4505         6.97606         1.42611 
        2.46622         6.91189         1.40385 
        2.48195         6.83578         1.38207 
        2.49759         6.81143         1.36087 
        2.51328         6.72938         1.34006 
        2.52906         6.70212         1.31955 
        2.54479         6.62288         1.29955 
        2.56049         6.58202            1.28 
        2.57618         6.52906         1.26087 
        2.59189         6.43971          1.2421 
        2.60758         6.42957         1.22374 
        2.62325         6.35258         1.20578 
        2.63898         6.27643         1.18812 
        2.65468         6.22463         1.17084 
        2.67044          6.1931         1.15384 
        2.68618         6.15478         1.13721 
        2.70184         6.09266         1.12098 
        2.71755         6.03441         1.10503 
        2.73329          6.0039         1.08936 
        2.74897         5.97092         1.07404 
        2.76462          5.9271         1.05906 
        2.78034         5.84949         1.04429 
        2.79607         5.81311          1.0298 
        2.81179         5.78602         1.01559 
        2.82749         5.71607         1.00167 
        2.84321         5.72305        0.987998 
        2.85893         5.65977        0.974583 
        2.87462         5.59022         0.96144 
        2.89033         5.55491        0.948527 
        2.90605         5.50896         0.93584 
        2.92176         5.45588        0.923392 
        2.93747         5.42328        0.911176 
        2.95318         5.40082        0.899179 
        2.96891         5.34697        0.887393 
        2.98456         5.31253         0.87587 
        3.00023         5.25359        0.864535 
        3.01596         5.22602        0.853365 
        3.03164         5.20854        0.842425 
        3.04738         5.16726        0.831644 
         3.0631         5.11648        0.821056 
        3.07883         5.07904        0.810651 
        3.09456          5.0465        0.800429 
        3.11026         5.02673        0.790398 
        3.12596         4.98145        0.780541 
        3.14163         4.93096        0.770874 
        3.15734         4.89918        0.761349 
        3.17308         4.87566        0.751961 
        3.18879         4.82947        0.742758 
        3.20447         4.81722        0.733721 
         3.2202           4.755        0.724808 
         3.2359         4.74553        0.716058 
        3.25157         4.69313        0.707473 
        3.26729         4.68274        0.699003 
        3.28304         4.63844        0.690656 
        3.29877         4.60066        0.682455 
        3.31446         4.56561        0.674406 
        3.33014         4.54967        0.666493 
        3.34585          4.5166        0.658695 
        3.36158         4.49271        0.651011 
        3.37727         4.45645        0.643472 
        3.39294         4.44216        0.636061 
        3.40867         4.39005        0.628739 
        3.42439         4.37072        0.621536 
        3.44008          4.3358        0.614461 
        3.45578         4.30414         0.60749 
        3.47153         4.27964        0.600612 
        3.48724         4.25413        0.593852 
        3.50292         4.23116        0.587213 
        3.51859         4.19734        0.580678 
        3.53431          4.1573        0.574222 
        3.55007          4.1494        0.567848 
        3.56577         4.12847        0.561596 
        3.58146         4.09926        0.555441 
        3.59719          4.0724        0.549364 
        3.61292         4.04701         0.54338 
        3.62859         4.00675        0.537508 
        3.64429         3.98403        0.531711 
        3.66003         3.96944        0.525982 
        3.67578         3.94227         0.52034 
        3.69146         3.90363        0.514801 
        3.70712         3.89068        0.509353 
        3.72284         3.86166        0.503964 
        3.73853         3.84602        0.498662 
        3.75422         3.81601        0.493434 
        3.76993         3.78722        0.488277 
        3.78564         3.76985        0.483196 
        3.80137         3.75303        0.478178 
        3.81707         3.71835        0.473242 
        3.83279         3.69807        0.468372 
        3.84853         3.66403        0.463563 
        3.86424         3.64796         0.45883 
        3.87992           3.625        0.454171 
        3.89561         3.61258        0.449576 
        3.91134         3.58063        0.445035 
        3.92704         3.55846        0.440562 
        3.94273         3.53761        0.436155 
        3.95845         3.52054          0.4318 
        3.97418         3.49418        0.427504 
        3.98988         3.47511        0.423272 
        4.00554         3.44794        0.419108 
        4.02125         3.41668        0.414989 
        4.03698         3.40323        0.410919 
        4.05268         3.37583        0.406912 
        4.06839         3.36823        0.402956 
         4.0841         3.33707        0.399054 
        4.09983         3.31287        0.395198 
        4.11555          3.2955        0.391395 
        4.13124         3.27486        0.387651 
        4.14693         3.25053        0.383954 
        4.16266         3.23409        0.380296 
        4.17839         3.21479        0.376689 
        4.19408         3.18465        0.373136 
        4.20977         3.17012        0.369627 
        4.22551         3.14398        0.366155 
        4.24123         3.12773        0.362731 
        4.25691         3.10811        0.359361 
        4.27259         3.09869        0.356032 
        4.28831         3.07196        0.352738 
        4.30404         3.05168        0.349483 
        4.31974         3.03835        0.346276 
        4.33543         3.01683        0.343111 
        4.35116         2.99361        0.339978 
        4.36688         2.98659        0.336886 
        4.38255         2.96191        0.333843 
        4.39825         2.94852        0.330832 
        4.41398         2.93539        0.327851 
         4.4297         2.91236         0.32491 
        4.44541         2.89528        0.322006 
        4.46111         2.87919         0.31914 
        4.47683         2.85159        0.316306 
        4.49251         2.84469        0.313513 
        4.50819         2.82638        0.310754 
         4.5239         2.81124        0.308024 
        4.53962         2.79682        0.305324 
        4.55535         2.78316        0.302654 
        4.57106         2.76765        0.300021 
        4.58678          2.7477        0.297418 
         4.6025           2.732        0.294845 
        4.61821         2.71944        0.292304 
        4.63391         2.70437        0.289795 
         4.6496         2.68874        0.287317 
        4.66532           2.661        0.284864 
        4.68103         2.65565        0.282441 
        4.69673         2.63867        0.280048 
        4.71241         2.61961        0.277685 
        4.72811         2.61091        0.275346 
        4.74384         2.59902         0.27303 
        4.75955         2.58584        0.270745 
        4.77525         2.57301        0.268487 
        4.79096         2.55137        0.266252 
        4.80669         2.54176        0.264042 
         4.8224          2.5352        0.261859 
        4.83809         2.51506        0.259703 
        4.85379         2.50305         0.25757 
         4.8695         2.48832        0.255459 
        4.88521          2.4728        0.253373 
        4.90093         2.45619         0.25131 
        4.91663         2.44377        0.249271 
        4.93234         2.43119        0.247253 
        4.94807         2.41987        0.245256 
        4.96377          2.4025        0.243285 
        4.97943         2.39481        0.241339 
        4.99514         2.37896         0.23941 
        5.01086         2.36119          0.2375 
        5.02654         2.35455        0.235616 
        5.04227         2.34647        0.233747 
          5.058          2.3332        0.231898 
        5.07371         2.31774        0.230072 
        5.08942         2.30887        0.228265 
        5.10513         2.29463        0.226477 
        5.12084          2.2879        0.224708 
        5.13656         2.27274        0.222958 
        5.15225         2.25888         0.22123 
        5.16796         2.24327        0.219517 
        5.18369         2.23534        0.217821 
         5.1994         2.22799        0.216145 
        5.21509         2.21265        0.214489 
        5.23079         2.20378        0.212848 
        5.24649         2.19083        0.211226 
        5.26217         2.18494        0.209622 
        5.27788         2.16545        0.208032 
        5.29359         2.16166        0.206458 
        5.30933         2.15157        0.204898 
        5.32504         2.13652        0.203357 
        5.34073         2.12805        0.201834 
        5.35646         2.11538        0.200323 
        5.37218         2.10346        0.198827 
        5.38789          2.1018        0.197349 
        5.40357         2.08888        0.195887 
        5.41929         2.07946        0.194437 
        5.43502         2.06885        0.193002 
         5.4507         2.05864        0.191585 
        5.46639         2.05045        0.190181 
        5.48212         2.03932        0.188788 
        5.49786         2.03405        0.187408 
        5.51353         2.01692        0.186048 
        5.52921         2.00994        0.184701 
        5.54495         2.00164        0.183362 
        5.56066         1.99405        0.182039 
        5.57637          1.9831        0.180729 
        5.59207         1.97558        0.179432 
        5.60778         1.96749        0.178148 
        5.62346         1.95768        0.176878 
        5.63916         1.94359         0.17562 
        5.65487         1.93533        0.174373 
         5.6706          1.9311        0.173137 
        5.68633          1.9166        0.171912 
        5.70203         1.90986        0.170701 
        5.71773         1.90408        0.169503 
        5.73344         1.89249        0.168315 
        5.74916         1.88083        0.167138 
        5.76486         1.87776        0.165973 
        5.78054         1.86821        0.164821 
        5.79626         1.85693        0.163677 
          5.812         1.85133        0.162543 
         5.8277         1.84061        0.161423 
        5.84339         1.83537        0.160313 
        5.85911         1.82566        0.159212 
        5.87484         1.82008        0.158121 
        5.89053         1.80973        0.157042 
        5.90623         1.80042        0.155973 
        5.92195         1.79356        0.154912 
        5.93767         1.78633        0.153862 
        5.95336         1.77692        0.152823 
        5.96905         1.77071        0.151794 
        5.98476         1.76054        0.150773 
        6.00048         1.75265        0.149761 
        6.01617          1.7488         0.14876 
        6.03185         1.74087        0.147769 
        6.04756          1.7318        0.146785 
        6.06331         1.72418        0.145808 
        6.07903         1.71785        0.144841 
        6.09473         1.71529        0.143884 
        6.11044         1.70264        0.142935 
        6.12616         1.69525        0.141995 
        6.14186         1.68798        0.141064 
        6.15755         1.68188        0.140141 
        6.17326         1.67484        0.139226 
        6.18898         1.66869        0.138319 
        6.20467         1.66177        0.137422 
        6.22036         1.65252        0.136532 
         6.2361         1.64711        0.135648 
         6.2518         1.64087        0.134773 
        6.26748         1.63231        0.133908 
        6.28319         1.62704        0.133048 
        6.29893         1.62337        0.132195 
        6.31463         1.61282        0.131351 
        6.33033          1.6059        0.130514 
        6.34604         1.59869        0.129684 
        6.36177         1.59489         0.12886 
        6.37747         1.58817        0.128046 
