# k  (h/Mpc)    Pcb(k)  (Mpc/h)^3    Pcb_linear(k) (Mpc/h)^3   ShotnoiseSubtracted = true
      0.0200456         19441.6         19885.2 
      0.0350414         13835.5         14455.9 
      0.0492313         10306.4         10503.4 
      0.0637834         8903.11         8731.37 
      0.0800726         7028.64         6929.87 
       0.096163          4877.5         5028.23 
       0.111083         3911.49         4010.64 
       0.126058         3604.83         3554.24 
       0.142273         3120.73         3011.23 
       0.158546          2709.5         2378.24 
        0.17375         2166.19         2003.66 
       0.188953         2115.21         1814.27 
       0.204907         1988.33         1605.26 
       0.220756          1718.5         1358.15 
        0.23588         1531.26         1181.47 
         0.2514         1332.11         1073.35 
       0.267535         1328.37         971.201 
       0.283568          1204.4         856.469 
       0.299022         1137.11          763.07 
       0.314451         1083.54         697.394 
       0.330372         995.796         639.781 
       0.346141         942.064         580.698 
       0.361624         905.589         527.775 
       0.377134         842.036         485.637 
       0.392932         809.858          449.35 
       0.408854         790.541         414.214 
       0.424564         734.417         381.787 
       0.440253          722.21         353.961 
       0.455999         690.487         329.765 
       0.471626         662.877         307.529 
        0.48727          636.38         286.729 
       0.502856          619.38         268.042 
       0.518488         612.438          251.37 
       0.534347         573.043          235.87 
       0.550082         555.441         221.578 
       0.565732          554.49         208.503 
       0.581496         522.165         196.528 
       0.597222         513.595         185.546 
       0.612804         502.068         175.448 
       0.628434         486.514         166.035 
       0.644267         473.879         157.235 
       0.660051         459.027         149.124 
       0.675724         454.989         141.635 
       0.691403         439.937         134.654 
       0.707174         425.302         128.104 
       0.722871         420.659         122.015 
        0.73838         413.864         116.388 
       0.754018         402.894         111.073 
       0.769845         394.143         106.032 
        0.78569         389.463           101.3 
       0.801365         378.623         96.9036 
       0.817031         366.914         92.7722 
       0.832809         364.755         88.8567 
       0.848511         355.824         85.1857 
       0.864097         347.213         81.7484 
       0.879701           342.7         78.4984 
       0.895507         338.441         75.3875 
       0.911279         327.657         72.4525 
        0.92691         324.317         69.6987 
       0.942635         316.898         67.0736 
       0.958396         309.982         64.5787 
       0.974128          304.93         62.2157 
       0.989692         301.637         59.9949 
        1.00528         295.272         57.8796 
        1.02113         293.202         55.8336 
        1.03692         285.293         53.8945 
        1.05264         282.854         52.0567 
        1.06832         275.929         50.3079 
        1.08405         271.521         48.6351 
        1.09979         266.478         47.0376 
        1.11537         262.535          45.528 
        1.13105          256.82         44.0759 
        1.14679         253.694         42.6818 
        1.16256         249.016         41.3455 
        1.17828         246.365         40.0711 
        1.19395         240.848         38.8548 
         1.2097         239.902          37.683 
        1.22537         234.241         36.5654 
          1.241          233.04         35.4966 
        1.25666         227.873          34.468 
        1.27241         224.972         33.4756 
        1.28819          221.97         32.5206 
        1.30392         216.647         31.6058 
        1.31957         217.113         30.7304 
        1.33529         212.283          29.885 
        1.35108         207.433         29.0682 
        1.36674         206.407         28.2878 
         1.3824         204.446         27.5369 
        1.39811         201.846         26.8108 
        1.41389         198.072         26.1083 
        1.42964         195.855         25.4321 
        1.44531         193.036         24.7833 
        1.46101         190.597         24.1558 
        1.47667         187.053         23.5519 
        1.49229         185.426         22.9703 
        1.50793         181.729         22.4078 
        1.52367          180.41         21.8606 
        1.53953         177.549          21.328 
        1.55526          173.75         20.8174 
        1.57092         172.804         20.3257 
        1.58662         170.576         19.8488 
        1.60235         167.621         19.3862 
        1.61809         166.702         18.9383 
        1.63369         163.189         18.5084 
        1.64941         160.049         18.0889 
        1.66519         159.369         17.6809 
        1.68085         157.557         17.2884 
        1.69652         155.109         16.9077 
        1.71228         152.274         16.5364 
        1.72806         150.615         16.1759 
        1.74368         149.314         15.8298 
        1.75933         146.508         15.4932 
        1.77505         145.231         15.1648 
        1.79081         144.096         14.8454 
         1.8065         142.183         14.5365 
        1.82218         139.534         14.2368 
        1.83797         138.632         13.9434 
        1.85367         136.719         13.6599 
        1.86928         134.359         13.3861 
        1.88497         132.475         13.1182 
        1.90073          131.25         12.8568 
        1.91647         129.641         12.6026 
        1.93218         128.039         12.3559 
        1.94787         126.306         12.1162 
        1.96363         124.483         11.8819 
        1.97935         122.812         11.6543 
        1.99499         121.104          11.434 
        2.01064         119.886          11.219 
         2.0264         118.157         11.0082 
        2.04216         116.887          10.803 
        2.05781         115.833         10.6042 
        2.07353         114.789         10.4098 
        2.08928         112.248         10.2198 
        2.10499         110.947         10.0351 
        2.12065         109.584         9.85555 
        2.13633         108.999          9.6802 
        2.15211         106.797           9.508 
        2.16785         105.232         9.34047 
        2.18349         104.467         9.17804 
        2.19916         103.338         9.01913 
        2.21489         102.012         8.86346 
        2.23063          100.48         8.71136 
         2.2463         99.3162         8.56352 
        2.26194         98.4104         8.41948 
        2.27765         97.1567         8.27802 
        2.29341         96.2372         8.13944 
        2.30914         94.9476         8.00433 
        2.32486         94.1393         7.87236 
        2.34061         92.8204         7.74315 
        2.35635         91.3406         7.61695 
        2.37203          90.246         7.49401 
        2.38768         89.4379         7.37404 
        2.40339          88.494         7.25626 
        2.41914         87.2045         7.14079 
        2.43483         86.2821         7.02823 
         2.4505         85.2264         6.91829 
        2.46622         83.9854         6.81033 
        2.48195         83.1181         6.70467 
        2.49759         82.1225         6.60181 
        2.51328         81.6275         6.50085 
        2.52906         80.1868         6.40135 
        2.54479         79.4437         6.30432 
        2.56049         78.6439         6.20948 
        2.57618         77.8517         6.11668 
        2.59189         76.8187         6.02564 
        2.60758         76.1557         5.93659 
        2.62325         75.0681         5.84945 
        2.63898         74.1745         5.76376 
        2.65468         73.3602         5.67996 
        2.67044         72.5513         5.59748 
        2.68618         71.8267         5.51682 
        2.70184         71.3868         5.43807 
        2.71755         70.4354         5.36067 
        2.73329         69.6513         5.28465 
        2.74897          68.834         5.21036 
        2.76462         68.0642         5.13766 
        2.78034          67.364         5.06604 
        2.79607         66.3188         4.99572 
        2.81179         65.8304         4.92682 
        2.82749         64.9807         4.85929 
        2.84321         64.5111         4.79295 
        2.85893         63.7079         4.72787 
        2.87462         62.9057         4.66411 
        2.89033         62.3079         4.60146 
        2.90605         61.5184         4.53992 
        2.92176         61.1291         4.47953 
        2.93747         60.6495         4.42027 
        2.95318         59.8363         4.36207 
        2.96891         59.2453         4.30489 
        2.98456         58.6041         4.24899 
        3.00023         57.7691           4.194 
        3.01596         57.2986         4.13982 
        3.03164         56.5848         4.08674 
        3.04738         56.0654         4.03444 
         3.0631         55.4772         3.98308 
        3.07883         54.8697          3.9326 
        3.09456         54.3903         3.88301 
        3.11026         53.6438         3.83435 
        3.12596         53.1534         3.78653 
        3.14163         52.6215         3.73964 
        3.15734         52.2533         3.69343 
        3.17308         51.5756         3.64789 
        3.18879         51.2404         3.60324 
        3.20447         50.2847         3.55941 
         3.2202         50.1497         3.51616 
         3.2359         49.5865         3.47372 
        3.25157         49.0354         3.43207 
        3.26729         48.6442         3.39098 
        3.28304         48.1154         3.35049 
        3.29877         47.6769          3.3107 
        3.31446         47.0032         3.27166 
        3.33014         46.7076         3.23327 
        3.34585         46.5113         3.19544 
        3.36158         45.9323         3.15816 
        3.37727         45.3966         3.12159 
        3.39294         44.9696         3.08564 
        3.40867         44.4924         3.05012 
        3.42439         43.9151         3.01518 
        3.44008         43.5876         2.98085 
        3.45578         43.1416         2.94704 
        3.47153         42.7021         2.91367 
        3.48724         42.3995         2.88088 
        3.50292         42.0481         2.84867 
        3.51859         41.5288         2.81696 
        3.53431         41.0913         2.78565 
        3.55007         40.6317         2.75473 
        3.56577         40.3425          2.7244 
        3.58146         39.9313         2.69454 
        3.59719         39.5412         2.66506 
        3.61292           39.15         2.63603 
        3.62859         38.8836         2.60754 
        3.64429         38.5581         2.57942 
        3.66003         38.1019         2.55163 
        3.67578         37.6272         2.52426 
        3.69146         37.3733         2.49739 
        3.70712         37.0437         2.47096 
        3.72284         36.6486         2.44481 
        3.73853         36.3277         2.41909 
        3.75422         35.9737         2.39373 
        3.76993         35.7666         2.36871 
        3.78564         35.4025         2.34406 
        3.80137          35.024         2.31972 
        3.81707         34.6586         2.29578 
        3.83279         34.4666         2.27215 
        3.84853         34.1396         2.24882 
        3.86424         33.6639         2.22586 
        3.87992         33.5028         2.20326 
        3.89561         33.1798         2.18097 
        3.91134         32.7553         2.15894 
        3.92704         32.5979         2.13724 
        3.94273         32.2035         2.11586 
        3.95845         31.9719         2.09474 
        3.97418         31.6847         2.07389 
        3.98988         31.3798         2.05336 
        4.00554         31.0365         2.03317 
        4.02125         30.8284         2.01318 
        4.03698         30.5613         1.99344 
        4.05268         30.3572           1.974 
        4.06839         30.0179         1.95481 
         4.0841         29.8187         1.93588 
        4.09983         29.4502         1.91717 
        4.11555         29.2146         1.89872 
        4.13124          28.997         1.88056 
        4.14693         28.7036         1.86263 
        4.16266         28.4551         1.84488 
        4.17839         28.1996         1.82738 
        4.19408         27.9357         1.81014 
        4.20977         27.7184         1.79312 
        4.22551         27.5108         1.77628 
        4.24123         27.2808         1.75967 
        4.25691         27.0172         1.74332 
        4.27259          26.856         1.72717 
        4.28831         26.5019         1.71119 
        4.30404          26.368          1.6954 
        4.31974         26.1157         1.67984 
        4.33543         25.8791         1.66449 
        4.35116         25.7874         1.64929 
        4.36688         25.4982         1.63429 
        4.38255         25.2134         1.61953 
        4.39825         25.0438         1.60492 
        4.41398         24.7501         1.59046 
         4.4297         24.5826          1.5762 
        4.44541         24.4115         1.56211 
        4.46111         24.2324          1.5482 
        4.47683         24.0245         1.53446 
        4.49251          23.811          1.5209 
        4.50819         23.5875         1.50752 
         4.5239         23.4418         1.49428 
        4.53962         23.2249         1.48118 
        4.55535         23.0819         1.46823 
        4.57106         22.8525         1.45545 
        4.58678         22.6894         1.44282 
         4.6025         22.5255         1.43034 
        4.61821         22.3678         1.41801 
        4.63391          22.096         1.40584 
         4.6496         21.9487         1.39382 
        4.66532         21.7843         1.38192 
        4.68103         21.5867         1.37017 
        4.69673         21.4113         1.35856 
        4.71241          21.263          1.3471 
        4.72811         21.0774         1.33575 
        4.74384         20.9338         1.32452 
        4.75955           20.76         1.31343 
        4.77525          20.567         1.30248 
        4.79096         20.4496         1.29164 
        4.80669         20.2489         1.28091 
         4.8224         20.0666         1.27032 
        4.83809         19.9334         1.25986 
        4.85379          19.704         1.24952 
         4.8695         19.6415         1.23928 
        4.88521          19.464         1.22915 
        4.90093         19.3085         1.21915 
        4.91663         19.1262         1.20926 
        4.93234          19.016         1.19947 
        4.94807         18.8378         1.18978 
        4.96377         18.7175         1.18022 
        4.97943         18.5885         1.17078 
        4.99514          18.441         1.16142 
        5.01086         18.2937         1.15215 
        5.02654         18.1369         1.14301 
        5.04227         18.0104         1.13395 
          5.058         17.8584         1.12497 
        5.07371         17.7303         1.11612 
        5.08942         17.6115         1.10735 
        5.10513         17.4848         1.09868 
        5.12084         17.3404          1.0901 
        5.13656         17.1621         1.08161 
        5.15225         17.0728         1.07322 
        5.16796         16.9685         1.06491 
        5.18369         16.8264         1.05668 
         5.1994         16.7121         1.04856 
        5.21509         16.5806         1.04052 
        5.23079         16.4557         1.03256 
        5.24649         16.3356         1.02469 
        5.26217         16.1918         1.01691 
        5.27788         16.0847          1.0092 
        5.29359         15.9636         1.00156 
        5.30933         15.8269        0.993996 
        5.32504         15.7261         0.98652 
        5.34073         15.6065        0.979129 
        5.35646         15.5152        0.971799 
        5.37218         15.3849        0.964543 
        5.38789         15.2671        0.957372 
        5.40357         15.1764        0.950282 
        5.41929         15.0558        0.943249 
        5.43502         14.9219        0.936286 
         5.4507         14.8321        0.929409 
        5.46639         14.7109        0.922601 
        5.48212         14.5854        0.915845 
        5.49786         14.5364        0.909148 
        5.51353         14.3986        0.902552 
        5.52921         14.3304        0.896014 
        5.54495         14.2176        0.889522 
        5.56066         14.1192        0.883101 
        5.57637          14.001        0.876745 
        5.59207         13.8975        0.870456 
        5.60778           13.81        0.864227 
        5.62346         13.7154        0.858067 
        5.63916         13.5782        0.851962 
        5.65487         13.5154        0.845913 
         5.6706         13.3873        0.839915 
        5.68633         13.2956        0.833973 
        5.70203         13.2411        0.828101 
        5.71773         13.1205        0.822287 
        5.73344         13.0397        0.816525 
        5.74916         12.9637        0.810813 
        5.76486         12.8456        0.805163 
        5.78054         12.7647        0.799576 
        5.79626         12.6531        0.794026 
          5.812         12.5948        0.788524 
         5.8277         12.4822        0.783089 
        5.84339         12.4056        0.777706 
        5.85911         12.3091        0.772363 
        5.87484         12.2231        0.767071 
        5.89053         12.1452        0.761839 
        5.90623         12.0501        0.756653 
        5.92195         11.9701        0.751507 
        5.93767         11.8852        0.746411 
        5.95336         11.8184        0.741371 
        5.96905         11.7221        0.736379 
        5.98476         11.6742        0.731426 
        6.00048         11.5461        0.726517 
        6.01617         11.5011         0.72166 
        6.03185         11.4223        0.716853 
        6.04756         11.3356        0.712078 
        6.06331          11.262        0.707337 
        6.07903         11.1788        0.702648 
        6.09473         11.1106        0.698007 
        6.11044         11.0433        0.693403 
        6.12616         10.9761        0.688841 
        6.14186          10.885        0.684325 
        6.15755         10.8153         0.67985 
        6.17326         10.7273        0.675411 
        6.18898         10.6838        0.671009 
        6.20467         10.5943        0.666655 
        6.22036         10.5234         0.66234 
         6.2361         10.4573        0.658051 
         6.2518         10.3838        0.653807 
        6.26748         10.3156         0.64961 
        6.28319         10.2608        0.645438 
        6.29893         10.1906        0.641299 
        6.31463         10.1018        0.637204 
        6.33033         10.0402        0.633145 
        6.34604         9.98245        0.629119 
        6.36177         9.91759        0.625124 
        6.37747         9.86457        0.621171 
