# k  (h/Mpc)    Pcb(k)  (Mpc/h)^3    Pcb_linear(k) (Mpc/h)^3   ShotnoiseSubtracted = true
      0.0200456         20155.2         20501.8 
      0.0350414         15362.9         14904.1 
      0.0492313         10615.8           10829 
      0.0637834         8561.08         9002.07 
      0.0800726         6722.35         7144.72 
       0.096163         5384.09         5184.12 
       0.111083         4384.74         4134.99 
       0.126058         3626.54         3664.44 
       0.142273         3170.32         3104.59 
       0.158546         2602.93         2451.97 
        0.17375         2318.38         2065.79 
       0.188953         2190.29         1870.52 
       0.204907         1882.67         1655.03 
       0.220756         1699.87         1400.26 
        0.23588         1517.09          1218.1 
         0.2514         1370.53         1106.63 
       0.267535         1325.27         1001.31 
       0.283568          1176.7         883.023 
       0.299022            1123         786.728 
       0.314451         1166.63         719.016 
       0.330372         1023.76         659.616 
       0.346141          941.27         598.702 
       0.361624         903.464         544.138 
       0.377134         864.056         500.693 
       0.392932         826.767         463.282 
       0.408854          791.04         427.056 
       0.424564         773.062         393.624 
       0.440253          713.73         364.935 
       0.455999          682.81         339.989 
       0.471626         695.764         317.063 
        0.48727         656.476         295.618 
       0.502856         624.517         276.353 
       0.518488         610.718         259.163 
       0.534347         582.253         243.183 
       0.550082         555.994         228.448 
       0.565732         549.635         214.968 
       0.581496         537.663         202.621 
       0.597222         524.515         191.299 
       0.612804           512.6         180.887 
       0.628434         491.467         171.182 
       0.644267         476.527          162.11 
       0.660051         470.818         153.747 
       0.675724         461.315         146.026 
       0.691403         449.995         138.828 
       0.707174         434.727         132.075 
       0.722871         428.575         125.798 
        0.73838         421.173         119.996 
       0.754018         408.632         114.517 
       0.769845         404.935          109.32 
        0.78569         396.492         104.441 
       0.801365         383.006          99.908 
       0.817031         380.341         95.6485 
       0.832809         374.223         91.6115 
       0.848511         366.976         87.8268 
       0.864097         357.878         84.2829 
       0.879701         355.975         80.9321 
       0.895507         343.394         77.7248 
       0.911279          337.52         74.6988 
        0.92691         334.592         71.8597 
       0.942635         331.187         69.1531 
       0.958396         320.102         66.5808 
       0.974128         317.042         64.1447 
       0.989692         306.048         61.8549 
        1.00528         305.085         59.6741 
        1.02113         300.219         57.5647 
        1.03692         294.721         55.5654 
        1.05264         289.962         53.6707 
        1.06832         286.389         51.8676 
        1.08405         282.043         50.1429 
        1.09979         277.569          48.496 
        1.11537         270.791         46.9396 
        1.13105         267.228         45.4425 
        1.14679         263.871         44.0051 
        1.16256         261.812         42.6274 
        1.17828         257.589         41.3134 
        1.19395         250.918         40.0594 
         1.2097         250.867         38.8513 
        1.22537          246.61          37.699 
          1.241          240.53         36.5971 
        1.25666         238.826         35.5367 
        1.27241         234.944         34.5134 
        1.28819         230.893         33.5289 
        1.30392         229.609         32.5857 
        1.31957          223.07         31.6831 
        1.33529         220.232         30.8115 
        1.35108         219.265         29.9694 
        1.36674         213.255         29.1648 
         1.3824         212.115         28.3907 
        1.39811         210.223         27.6421 
        1.41389          204.18         26.9177 
        1.42964         202.103         26.2206 
        1.44531         200.387         25.5516 
        1.46101         196.853         24.9047 
        1.47667         194.616         24.2821 
        1.49229           191.8         23.6825 
        1.50793          188.89         23.1026 
        1.52367         186.611         22.5383 
        1.53953         182.549         21.9892 
        1.55526         181.658         21.4628 
        1.57092         180.154         20.9559 
        1.58662          175.67         20.4642 
        1.60235         174.061         19.9873 
        1.61809         171.541         19.5254 
        1.63369         168.476         19.0823 
        1.64941         166.734         18.6497 
        1.66519         164.659         18.2291 
        1.68085         161.892         17.8244 
        1.69652         160.141         17.4319 
        1.71228         157.589         17.0491 
        1.72806         156.189         16.6774 
        1.74368         154.189         16.3206 
        1.75933         152.945         15.9736 
        1.77505         150.595          15.635 
        1.79081         147.318         15.3057 
         1.8065         145.883         14.9872 
        1.82218         143.309         14.6782 
        1.83797         142.482         14.3757 
        1.85367         140.519         14.0835 
        1.86928         138.662         13.8011 
        1.88497         137.351          13.525 
        1.90073         135.864         13.2554 
        1.91647         133.323         12.9934 
        1.93218         131.849          12.739 
        1.94787         129.818         12.4919 
        1.96363         129.233         12.2503 
        1.97935         127.518         12.0156 
        1.99499         125.933         11.7885 
        2.01064           123.3         11.5668 
         2.0264         122.455         11.3495 
        2.04216         120.703         11.1379 
        2.05781         119.104          10.933 
        2.07353         117.659         10.7326 
        2.08928         116.223         10.5367 
        2.10499         115.104         10.3463 
        2.12065         113.835         10.1611 
        2.13633         112.811         9.98033 
        2.15211         110.855         9.80278 
        2.16785         109.491         9.63006 
        2.18349         108.016         9.46259 
        2.19916         107.072         9.29875 
        2.21489         106.015         9.13826 
        2.23063           104.1         8.98144 
         2.2463         103.129         8.82902 
        2.26194          102.13         8.68051 
        2.27765         100.745         8.53467 
        2.29341         99.8091         8.39179 
        2.30914         98.5377         8.25249 
        2.32486         96.7707         8.11643 
        2.34061         96.2034         7.98321 
        2.35635         95.0473         7.85311 
        2.37203         93.4536         7.72636 
        2.38768         92.6823         7.60266 
        2.40339         91.8274         7.48124 
        2.41914         90.2915         7.36218 
        2.43483          89.658         7.24613 
         2.4505         88.5207         7.13279 
        2.46622         87.4654         7.02148 
        2.48195         86.6428         6.91254 
        2.49759         85.4232         6.80649 
        2.51328         84.7024          6.7024 
        2.52906          83.168         6.59982 
        2.54479         82.4043         6.49978 
        2.56049         81.2373           6.402 
        2.57618         80.2773         6.30632 
        2.59189         79.8957         6.21245 
        2.60758         78.2624         6.12064 
        2.62325         78.0115          6.0308 
        2.63898         77.0442         5.94246 
        2.65468         76.1399         5.85606 
        2.67044         75.0263         5.77102 
        2.68618         74.4822         5.68786 
        2.70184         73.4266         5.60667 
        2.71755         72.7211         5.52687 
        2.73329         71.6395          5.4485 
        2.74897         71.2639          5.3719 
        2.76462         70.3654         5.29694 
        2.78034         69.2279         5.22311 
        2.79607          68.628         5.15061 
        2.81179         68.1415         5.07956 
        2.82749         67.5266         5.00994 
        2.84321         66.7113         4.94155 
        2.85893         65.9481         4.87445 
        2.87462          65.201         4.80871 
        2.89033         64.6415         4.74413 
        2.90605         64.0734         4.68067 
        2.92176          63.199         4.61841 
        2.93747         62.6716         4.55731 
        2.95318         61.7497         4.49731 
        2.96891         61.2403         4.43836 
        2.98456         60.5588         4.38073 
        3.00023         59.9578         4.32403 
        3.01596         59.4503         4.26817 
        3.03164         58.7347         4.21345 
        3.04738         58.3547         4.15953 
         3.0631         57.3215         4.10657 
        3.07883         56.8049         4.05453 
        3.09456         56.1959          4.0034 
        3.11026         55.6308         3.95323 
        3.12596         55.1729         3.90393 
        3.14163         54.4428         3.85558 
        3.15734         53.8804         3.80794 
        3.17308         53.4051         3.76099 
        3.18879         52.8234         3.71496 
        3.20447         52.4508         3.66976 
         3.2202         51.7242         3.62518 
         3.2359         51.1364         3.58142 
        3.25157         50.7859         3.53848 
        3.26729         50.1666         3.49612 
        3.28304         49.7584         3.45436 
        3.29877         49.1993         3.41335 
        3.31446         48.8213         3.37309 
        3.33014         48.2524         3.33351 
        3.34585         47.6427         3.29451 
        3.36158         47.2842         3.25608 
        3.37727         46.7986         3.21837 
        3.39294         46.4462          3.1813 
        3.40867         45.9649         3.14468 
        3.42439         45.5018         3.10866 
        3.44008           44.92         3.07327 
        3.45578         44.6009          3.0384 
        3.47153         44.0885           3.004 
        3.48724         43.6282          2.9702 
        3.50292         43.2434         2.93699 
        3.51859         42.7816          2.9043 
        3.53431         42.2711         2.87201 
        3.55007         41.9623         2.84013 
        3.56577         41.6689         2.80886 
        3.58146         41.1455         2.77808 
        3.59719         40.7479         2.74769 
        3.61292         40.3159         2.71776 
        3.62859         40.0652         2.68839 
        3.64429         39.6974         2.65939 
        3.66003         39.3072         2.63074 
        3.67578         38.9803         2.60252 
        3.69146         38.6486         2.57482 
        3.70712         38.1987         2.54757 
        3.72284         37.8824         2.52061 
        3.73853         37.5922         2.49409 
        3.75422         37.2415         2.46795 
        3.76993         36.8789         2.44215 
        3.78564         36.6368         2.41674 
        3.80137         36.2215         2.39164 
        3.81707         35.8578         2.36696 
        3.83279         35.5383          2.3426 
        3.84853         35.2029         2.31854 
        3.86424         34.8562         2.29487 
        3.87992         34.6952         2.27157 
        3.89561         34.3576         2.24859 
        3.91134         34.1144         2.22587 
        3.92704         33.7106          2.2035 
        3.94273         33.4248         2.18146 
        3.95845         33.1617         2.15968 
        3.97418         32.8127         2.13819 
        3.98988         32.4613         2.11702 
        4.00554         32.2125          2.0962 
        4.02125         32.0187          2.0756 
        4.03698         31.6156         2.05524 
        4.05268         31.3776          2.0352 
        4.06839         31.0179         2.01542 
         4.0841         30.8695          1.9959 
        4.09983         30.5564         1.97661 
        4.11555         30.2575         1.95759 
        4.13124         30.0442         1.93887 
        4.14693         29.7931         1.92037 
        4.16266         29.4338         1.90208 
        4.17839         29.2621         1.88404 
        4.19408         29.0001         1.86627 
        4.20977         28.7391         1.84872 
        4.22551         28.5093         1.83135 
        4.24123         28.2798         1.81423 
        4.25691          28.018         1.79737 
        4.27259         27.8617         1.78072 
        4.28831          27.522         1.76425 
        4.30404         27.3028         1.74797 
        4.31974         27.0156         1.73193 
        4.33543         26.8714          1.7161 
        4.35116         26.6278         1.70043 
        4.36688         26.4112         1.68496 
        4.38255         26.2527         1.66974 
        4.39825         25.9299         1.65468 
        4.41398         25.7387         1.63977 
         4.4297         25.5055         1.62506 
        4.44541         25.3722         1.61054 
        4.46111         25.1571          1.5962 
        4.47683         24.8932         1.58203 
        4.49251         24.7118         1.56806 
        4.50819         24.5327         1.55426 
         4.5239         24.2941         1.54061 
        4.53962         24.1418          1.5271 
        4.55535         23.8811         1.51375 
        4.57106         23.7109         1.50058 
        4.58678         23.5126         1.48756 
         4.6025         23.2789         1.47469 
        4.61821         23.1212         1.46198 
        4.63391         22.8969         1.44943 
         4.6496         22.7337         1.43704 
        4.66532         22.6012         1.42477 
        4.68103         22.3192         1.41265 
        4.69673         22.2484         1.40068 
        4.71241         22.0353         1.38886 
        4.72811         21.8468         1.37716 
        4.74384         21.6673         1.36558 
        4.75955         21.5343         1.35415 
        4.77525         21.3485         1.34286 
        4.79096         21.1719         1.33168 
        4.80669         21.0262         1.32063 
         4.8224         20.8693         1.30971 
        4.83809          20.682         1.29892 
        4.85379         20.5203         1.28826 
         4.8695         20.3653          1.2777 
        4.88521         20.1953         1.26726 
        4.90093         20.0348         1.25694 
        4.91663         19.8931         1.24675 
        4.93234         19.7079         1.23665 
        4.94807         19.5922         1.22667 
        4.96377         19.4687         1.21681 
        4.97943         19.2251         1.20708 
        4.99514         19.1102         1.19743 
        5.01086         18.9539         1.18788 
        5.02654         18.8466         1.17845 
        5.04227           18.66          1.1691 
          5.058         18.5257         1.15985 
        5.07371         18.4091         1.15072 
        5.08942         18.2404         1.14168 
        5.10513         18.1015         1.13274 
        5.12084         17.9981         1.12389 
        5.13656         17.8126         1.11514 
        5.15225         17.6838          1.1065 
        5.16796         17.5756         1.09793 
        5.18369         17.4513         1.08945 
         5.1994         17.3356         1.08107 
        5.21509         17.2071         1.07278 
        5.23079         17.0659         1.06458 
        5.24649         16.9701         1.05646 
        5.26217         16.8213         1.04844 
        5.27788         16.6643         1.04049 
        5.29359         16.5651         1.03261 
        5.30933         16.4397         1.02481 
        5.32504         16.2753         1.01711 
        5.34073         16.2099         1.00949 
        5.35646         16.0829         1.00193 
        5.37218         15.9229        0.994447 
        5.38789         15.8326        0.987054 
        5.40357         15.7239        0.979745 
        5.41929         15.6127        0.972493 
        5.43502         15.4733        0.965314 
         5.4507         15.3959        0.958224 
        5.46639         15.2845        0.951205 
        5.48212         15.1586        0.944239 
        5.49786         15.0505        0.937335 
        5.51353         14.9392        0.930534 
        5.52921         14.8258        0.923794 
        5.54495         14.6996          0.9171 
        5.56066         14.6273         0.91048 
        5.57637         14.5019        0.903927 
        5.59207         14.3974        0.897443 
        5.60778         14.2923        0.891021 
        5.62346         14.2217        0.884671 
        5.63916         14.0853        0.878376 
        5.65487         13.9938        0.872139 
         5.6706         13.9059        0.865955 
        5.68633         13.8223        0.859829 
        5.70203         13.7051        0.853775 
        5.71773         13.6116        0.847781 
        5.73344         13.5191         0.84184 
        5.74916         13.4278        0.835951 
        5.76486         13.3366        0.830126 
        5.78054          13.244        0.824366 
        5.79626          13.128        0.818644 
          5.812         13.0566        0.812971 
         5.8277         12.9684        0.807368 
        5.84339         12.8635        0.801817 
        5.85911         12.7767        0.796309 
        5.87484         12.7033        0.790853 
        5.89053         12.5973        0.785458 
        5.90623         12.4995        0.780112 
        5.92195         12.3991        0.774806 
        5.93767         12.3248        0.769552 
        5.95336         12.2804        0.764356 
        5.96905         12.1709         0.75921 
        5.98476         12.1232        0.754103 
        6.00048         12.0012        0.749042 
        6.01617         11.9217        0.744034 
        6.03185         11.8596        0.739078 
        6.04756         11.7636        0.734155 
        6.06331         11.6766        0.729267 
        6.07903         11.5966        0.724433 
        6.09473         11.5375        0.719647 
        6.11044         11.4401        0.714901 
        6.12616         11.3516        0.710198 
        6.14186         11.2783        0.705542 
        6.15755         11.2259        0.700927 
        6.17326         11.1312        0.696351 
        6.18898         11.0509        0.691813 
        6.20467         10.9931        0.687324 
        6.22036         10.9274        0.682875 
         6.2361         10.8372        0.678453 
         6.2518         10.7976        0.674078 
        6.26748          10.714         0.66975 
        6.28319         10.6465        0.665449 
        6.29893         10.5706        0.661182 
        6.31463         10.5001        0.656959 
        6.33033         10.4208        0.652775 
        6.34604         10.3473        0.648624 
        6.36177         10.3038        0.644505 
        6.37747         10.2229         0.64043 
