# k  (h/Mpc)    Pcb(k)  (Mpc/h)^3    Pcb_linear(k) (Mpc/h)^3   ShotnoiseSubtracted = true
      0.0200456         6613.46         6704.21 
      0.0350414         4981.65         4873.74 
      0.0492313         3529.63         3541.16 
      0.0637834         2867.52         2943.74 
      0.0800726         2263.99         2336.37 
       0.096163         1744.93         1695.24 
       0.111083         1412.74         1352.17 
       0.126058         1189.73          1198.3 
       0.142273         1016.15         1015.22 
       0.158546         830.079         801.811 
        0.17375         718.557         675.525 
       0.188953         656.111         611.673 
       0.204907         558.439         541.206 
       0.220756         497.568         457.893 
        0.23588         438.992         398.327 
         0.2514         393.994         361.876 
       0.267535         376.192         327.436 
       0.283568         327.967         288.754 
       0.299022         308.303         257.265 
       0.314451         300.755         235.123 
       0.330372         261.156         215.699 
       0.346141         241.366          195.78 
       0.361624         227.422         177.937 
       0.377134         208.602          163.73 
       0.392932         203.124         151.496 
       0.408854          191.26          139.65 
       0.424564         182.657         128.718 
       0.440253         165.267         119.336 
       0.455999         154.963         111.179 
       0.471626         150.711         103.682 
        0.48727         145.267         96.6691 
       0.502856         132.829         90.3692 
       0.518488         130.468          84.748 
       0.534347         122.291         79.5223 
       0.550082         119.179          74.704 
       0.565732         116.428         70.2959 
       0.581496         107.329         66.2586 
       0.597222         104.687         62.5559 
       0.612804         101.169         59.1513 
       0.628434          98.552         55.9778 
       0.644267         93.3587         53.0109 
       0.660051         90.3139         50.2764 
       0.675724         88.3981         47.7515 
       0.691403         86.5208         45.3978 
       0.707174         83.4881         43.1895 
       0.722871         81.6407         41.1369 
        0.73838          78.968         39.2396 
       0.754018         74.5165         37.4477 
       0.769845         73.9331         35.7482 
        0.78569         71.5658         34.1528 
       0.801365         69.5066         32.6706 
       0.817031         67.0916         31.2777 
       0.832809         65.9193         29.9576 
       0.848511         64.3104         28.7199 
       0.864097         63.1018         27.5611 
       0.879701         61.8016         26.4653 
       0.895507           59.52         25.4165 
       0.911279         58.5745          24.427 
        0.92691         56.9251         23.4986 
       0.942635         55.7616         22.6135 
       0.958396         55.5016         21.7724 
       0.974128         54.0845         20.9757 
       0.989692         52.6057          20.227 
        1.00528         51.7066         19.5138 
        1.02113         50.5605          18.824 
        1.03692         50.2256         18.1703 
        1.05264         49.0491         17.5507 
        1.06832         47.8832         16.9611 
        1.08405          46.972         16.3971 
        1.09979         46.7499         15.8585 
        1.11537         45.4036         15.3495 
        1.13105         44.3249           14.86 
        1.14679         43.8069           14.39 
        1.16256         43.1919         13.9394 
        1.17828         42.6439         13.5098 
        1.19395         41.5574         13.0997 
         1.2097         41.4451         12.7046 
        1.22537         40.4896         12.3278 
          1.241         39.8537         11.9675 
        1.25666         39.1027         11.6207 
        1.27241         38.8947         11.2861 
        1.28819         37.7727         10.9642 
        1.30392         37.5966         10.6557 
        1.31957         37.1586         10.3606 
        1.33529         36.4555         10.0756 
        1.35108         35.8319         9.80019 
        1.36674         35.4655          9.5371 
         1.3824         34.8827         9.28393 
        1.39811         34.2104         9.03914 
        1.41389          33.828         8.80227 
        1.42964         33.5898         8.57431 
        1.44531         32.8476         8.35556 
        1.46101         32.6613         8.14399 
        1.47667         32.2519          7.9404 
        1.49229          31.646         7.74434 
        1.50793         31.3831         7.55469 
        1.52367         30.8459         7.37018 
        1.53953         30.7061         7.19062 
        1.55526         30.1858         7.01849 
        1.57092         29.8566         6.85271 
        1.58662         29.4054         6.69191 
        1.60235         29.0417         6.53598 
        1.61809         28.7512         6.38494 
        1.63369         28.4797         6.24002 
        1.64941         28.0905         6.09858 
        1.66519         27.6475         5.96103 
        1.68085         27.2513          5.8287 
        1.69652         27.0534         5.70036 
        1.71228         26.8547         5.57516 
        1.72806         26.3991         5.45363 
        1.74368         26.0916         5.33695 
        1.75933         25.8959         5.22346 
        1.77505         25.6664         5.11275 
        1.79081         25.3479         5.00505 
         1.8065         25.0142         4.90092 
        1.82218         24.7455         4.79985 
        1.83797         24.6023         4.70095 
        1.85367         24.2987         4.60538 
        1.86928         24.2252         4.51305 
        1.88497         23.7662         4.42275 
        1.90073         23.5533         4.33459 
        1.91647         23.2755         4.24892 
        1.93218         23.3141         4.16575 
        1.94787         22.9408         4.08493 
        1.96363         22.6896         4.00593 
        1.97935         22.3747          3.9292 
        1.99499         22.2273          3.8549 
        2.01064         21.9301         3.78243 
         2.0264         21.7595         3.71136 
        2.04216         21.6461         3.64216 
        2.05781         21.3654         3.57517 
        2.07353         21.1873         3.50962 
        2.08928         20.8225         3.44557 
        2.10499         20.6878          3.3833 
        2.12065         20.5003         3.32275 
        2.13633          20.374         3.26363 
        2.15211         20.0452         3.20558 
        2.16785         20.0317         3.14909 
        2.18349         19.7494         3.09433 
        2.19916         19.5685         3.04075 
        2.21489         19.3343         2.98827 
        2.23063         19.2664         2.93699 
         2.2463         19.0098         2.88715 
        2.26194         18.8593         2.83859 
        2.27765         18.5621         2.79089 
        2.29341         18.4606         2.74417 
        2.30914         18.2599         2.69862 
        2.32486          18.193         2.65413 
        2.34061         18.0085         2.61056 
        2.35635         17.7544         2.56802 
        2.37203          17.651         2.52657 
        2.38768         17.4779         2.48612 
        2.40339         17.4098         2.44641 
        2.41914         17.1983         2.40748 
        2.43483         17.0072         2.36953 
         2.4505         16.8138         2.33247 
        2.46622         16.7628         2.29607 
        2.48195         16.5616         2.26045 
        2.49759         16.3243         2.22577 
        2.51328         16.3151         2.19173 
        2.52906         16.1561         2.15818 
        2.54479         15.9732         2.12547 
        2.56049         15.8206          2.0935 
        2.57618         15.7873         2.06221 
        2.59189         15.5855         2.03151 
        2.60758         15.3832         2.00149 
        2.62325         15.2938         1.97211 
        2.63898         15.2281         1.94322 
        2.65468         14.9854         1.91497 
        2.67044         14.9032         1.88716 
        2.68618         14.8162         1.85997 
        2.70184         14.6511         1.83342 
        2.71755         14.5215         1.80732 
        2.73329         14.4074         1.78169 
        2.74897         14.2851         1.75665 
        2.76462          14.183         1.73214 
        2.78034          14.028         1.70799 
        2.79607         13.9393         1.68428 
        2.81179         13.8249         1.66105 
        2.82749         13.7067         1.63828 
        2.84321         13.5898         1.61592 
        2.85893         13.4267         1.59398 
        2.87462         13.3958         1.57248 
        2.89033         13.2306         1.55136 
        2.90605         13.1537         1.53061 
        2.92176         13.0328         1.51025 
        2.93747          12.915         1.49027 
        2.95318          12.812         1.47065 
        2.96891         12.7188         1.45137 
        2.98456         12.5989         1.43253 
        3.00023         12.5078         1.41399 
        3.01596         12.4271         1.39572 
        3.03164          12.328         1.37783 
        3.04738         12.2231         1.36019 
         3.0631          12.066         1.34288 
        3.07883         12.0026         1.32586 
        3.09456         11.9145         1.30914 
        3.11026         11.8441         1.29273 
        3.12596         11.7437         1.27661 
        3.14163         11.6426          1.2608 
        3.15734         11.5358         1.24522 
        3.17308         11.4781         1.22987 
        3.18879         11.3616         1.21482 
        3.20447          11.294         1.20004 
         3.2202         11.1823         1.18546 
         3.2359          11.067         1.17115 
        3.25157          11.037         1.15711 
        3.26729         10.9085         1.14325 
        3.28304         10.7989          1.1296 
        3.29877         10.7688         1.11619 
        3.31446         10.6635         1.10302 
        3.33014         10.5849         1.09008 
        3.34585         10.4806         1.07733 
        3.36158         10.4207         1.06476 
        3.37727         10.3725         1.05243 
        3.39294         10.2712         1.04031 
        3.40867         10.1865         1.02833 
        3.42439         10.0877         1.01655 
        3.44008         10.0362         1.00498 
        3.45578          9.9385        0.993578 
        3.47153          9.8834        0.982329 
        3.48724         9.79442        0.971274 
        3.50292         9.70905        0.960414 
        3.51859          9.6443        0.949726 
        3.53431         9.53816        0.939167 
        3.55007         9.47041        0.928742 
        3.56577         9.39672        0.918517 
        3.58146         9.32234        0.908451 
        3.59719         9.24315        0.898511 
        3.61292         9.21822        0.888724 
        3.62859         9.15382         0.87912 
        3.64429         9.04939        0.869639 
        3.66003         9.01196        0.860269 
        3.67578         8.91212         0.85104 
        3.69146         8.88798        0.841982 
        3.70712          8.7967        0.833071 
        3.72284         8.72247        0.824257 
        3.73853         8.67312        0.815585 
        3.75422         8.61112        0.807035 
        3.76993         8.52019          0.7986 
        3.78564          8.4678        0.790289 
        3.80137         8.41859        0.782083 
        3.81707         8.33407         0.77401 
        3.83279         8.25514        0.766045 
        3.84853          8.2106        0.758179 
        3.86424         8.16858        0.750439 
        3.87992         8.11715        0.742818 
        3.89561         8.03358        0.735303 
        3.91134         7.95958        0.727876 
        3.92704         7.91144         0.72056 
        3.94273         7.84732        0.713352 
        3.95845         7.80853         0.70623 
        3.97418         7.73879        0.699203 
        3.98988         7.69418        0.692281 
        4.00554         7.63031        0.685472 
        4.02125         7.59474        0.678735 
        4.03698         7.50971        0.672077 
        4.05268         7.45186        0.665525 
        4.06839         7.37691        0.659054 
         4.0841          7.3466        0.652672 
        4.09983         7.28744        0.646365 
        4.11555         7.21804        0.640144 
        4.13124          7.1765        0.634022 
        4.14693         7.11587        0.627975 
        4.16266         7.07047        0.621993 
        4.17839         7.02941        0.616092 
        4.19408         6.97554        0.610281 
        4.20977          6.9085        0.604543 
        4.22551         6.87896        0.598864 
        4.24123         6.82599        0.593264 
        4.25691         6.77513        0.587751 
        4.27259         6.69888        0.582306 
        4.28831         6.67049         0.57692 
        4.30404         6.61247        0.571596 
        4.31974          6.5682        0.566351 
        4.33543         6.51291        0.561175 
        4.35116         6.47003        0.556051 
        4.36688         6.42824        0.550993 
        4.38255         6.37928        0.546016 
        4.39825         6.33215        0.541091 
        4.41398         6.27569        0.536216 
         4.4297         6.24743        0.531406 
        4.44541         6.19446        0.526657 
        4.46111         6.16589        0.521968 
        4.47683         6.12259        0.517334 
        4.49251         6.07964        0.512765 
        4.50819         6.04074        0.508253 
         4.5239         5.97625        0.503788 
        4.53962         5.94574        0.499371 
        4.55535         5.90081        0.495006 
        4.57106         5.85475        0.490698 
        4.58678         5.82005        0.486441 
         4.6025         5.77807        0.482233 
        4.61821         5.74752        0.478076 
        4.63391         5.69186        0.473973 
         4.6496         5.65644         0.46992 
        4.66532         5.61299        0.465909 
        4.68103         5.58083        0.461945 
        4.69673          5.5478        0.458032 
        4.71241         5.50901        0.454167 
        4.72811         5.45406        0.450341 
        4.74384         5.44284        0.446554 
        4.75955          5.3883        0.442817 
        4.77525         5.34996        0.439124 
        4.79096         5.32285        0.435469 
        4.80669         5.27749        0.431853 
         4.8224         5.24689        0.428283 
        4.83809         5.20947        0.424757 
        4.85379         5.15933        0.421268 
         4.8695         5.14323        0.417816 
        4.88521         5.11086        0.414403 
        4.90093         5.06107        0.411029 
        4.91663         5.03083        0.407695 
        4.93234         5.00651        0.404394 
        4.94807         4.97053        0.401128 
        4.96377         4.93676        0.397904 
        4.97943         4.90105        0.394722 
        4.99514         4.86388        0.391566 
        5.01086         4.84163        0.388443 
        5.02654         4.81202        0.385362 
        5.04227         4.77699        0.382305 
          5.058         4.73402        0.379279 
        5.07371         4.70912        0.376293 
        5.08942         4.67998        0.373338 
        5.10513         4.64741        0.370415 
        5.12084         4.62071        0.367521 
        5.13656         4.58182        0.364659 
        5.15225         4.55339        0.361832 
        5.16796         4.53106         0.35903 
        5.18369         4.49063        0.356256 
         5.1994         4.45923        0.353516 
        5.21509         4.43797        0.350807 
        5.23079          4.4074        0.348124 
        5.24649         4.38068         0.34547 
        5.26217         4.34453        0.342846 
        5.27788         4.32787        0.340246 
        5.29359         4.29915        0.337672 
        5.30933         4.27308        0.335121 
        5.32504         4.24369          0.3326 
        5.34073         4.22123        0.330108 
        5.35646         4.19436        0.327637 
        5.37218         4.15782        0.325191 
        5.38789         4.13904        0.322773 
        5.40357         4.11229        0.320383 
        5.41929         4.08259        0.318012 
        5.43502         4.05558        0.315664 
         5.4507         4.03594        0.313346 
        5.46639         4.00185         0.31105 
        5.48212         3.98791        0.308772 
        5.49786         3.95593        0.306515 
        5.51353         3.93032        0.304291 
        5.52921         3.91453        0.302087 
        5.54495         3.88359        0.299898 
        5.56066          3.8635        0.297733 
        5.57637         3.83506         0.29559 
        5.59207         3.80757         0.29347 
        5.60778         3.79718         0.29137 
        5.62346         3.77075        0.289293 
        5.63916         3.74276        0.287235 
        5.65487         3.71952        0.285195 
         5.6706         3.69713        0.283173 
        5.68633         3.67805         0.28117 
        5.70203         3.65304         0.27919 
        5.71773           3.632         0.27723 
        5.73344         3.61049        0.275287 
        5.74916         3.58696        0.273361 
        5.76486         3.56533        0.271457 
        5.78054         3.54421        0.269573 
        5.79626         3.52093        0.267702 
          5.812         3.49585        0.265847 
         5.8277         3.47448        0.264015 
        5.84339         3.46603          0.2622 
        5.85911         3.44089        0.260398 
        5.87484         3.41689        0.258614 
        5.89053         3.39536         0.25685 
        5.90623         3.38175        0.255102 
        5.92195         3.35937        0.253367 
        5.93767         3.33751        0.251649 
        5.95336         3.31946        0.249949 
        5.96905         3.29745        0.248267 
        5.98476         3.28203        0.246597 
        6.00048         3.25798        0.244942 
        6.01617         3.24024        0.243304 
        6.03185         3.22804        0.241683 
        6.04756         3.20012        0.240074 
        6.06331         3.18442        0.238475 
        6.07903         3.16438        0.236894 
        6.09473         3.14616        0.235329 
        6.11044          3.1237        0.233777 
        6.12616          3.1135        0.232239 
        6.14186         3.09659        0.230717 
        6.15755         3.07831        0.229208 
        6.17326         3.05846        0.227711 
        6.18898         3.03519        0.226227 
        6.20467         3.02152        0.224759 
        6.22036         3.00514        0.223305 
         6.2361         2.98824        0.221859 
         6.2518         2.97093        0.220428 
        6.26748         2.95437        0.219013 
        6.28319         2.93725        0.217606 
        6.29893         2.92409        0.216211 
        6.31463         2.90987         0.21483 
        6.33033         2.89461        0.213462 
        6.34604         2.87228        0.212104 
        6.36177         2.86135        0.210757 
        6.37747         2.83883        0.209425 
