# k  (h/Mpc)    Pcb(k)  (Mpc/h)^3    Pcb_linear(k) (Mpc/h)^3   ShotnoiseSubtracted = true
      0.0200456         2579.46         2612.89 
      0.0350414         1930.16         1899.48 
      0.0492313          1382.3         1380.13 
      0.0637834         1129.48         1147.29 
      0.0800726         893.462         910.573 
       0.096163         674.714           660.7 
       0.111083         543.239         526.991 
       0.126058         464.312         467.021 
       0.142273         393.422          395.67 
       0.158546         317.988         312.496 
        0.17375         272.607         263.278 
       0.188953         245.802         238.392 
       0.204907         210.162         210.928 
       0.220756          184.84         178.458 
        0.23588         161.706         155.243 
         0.2514         146.216         141.037 
       0.267535         135.677         127.614 
       0.283568         119.013         112.539 
       0.299022         108.888         100.266 
       0.314451         102.843         91.6363 
       0.330372         91.6581          84.066 
       0.346141         83.8798         76.3027 
       0.361624         77.1983         69.3487 
       0.377134         70.5594         63.8118 
       0.392932         68.2768         59.0438 
       0.408854          62.522          54.427 
       0.424564          59.606         50.1661 
       0.440253         54.3379         46.5098 
       0.455999         49.7289         43.3305 
       0.471626         47.1411         40.4087 
        0.48727         45.7642         37.6756 
       0.502856         42.6267         35.2203 
       0.518488         39.9824         33.0295 
       0.534347         37.6468         30.9929 
       0.550082         36.1884          29.115 
       0.565732         34.8042          27.397 
       0.581496         32.6387         25.8235 
       0.597222         30.9047         24.3804 
       0.612804         29.4741         23.0535 
       0.628434         28.8908         21.8167 
       0.644267         27.3193         20.6604 
       0.660051         25.9602         19.5946 
       0.675724         24.7603         18.6106 
       0.691403         24.2554         17.6932 
       0.707174         23.2573         16.8326 
       0.722871         22.4805         16.0326 
        0.73838         21.2975         15.2932 
       0.754018         20.2197         14.5948 
       0.769845         19.7061         13.9324 
        0.78569         19.0781         13.3106 
       0.801365         18.3614          12.733 
       0.817031         17.6934         12.1901 
       0.832809         17.1556         11.6756 
       0.848511         16.6123         11.1932 
       0.864097         16.0608         10.7416 
       0.879701         15.7894         10.3145 
       0.895507           15.19         9.90578 
       0.911279         14.5648         9.52012 
        0.92691         14.2724         9.15829 
       0.942635         13.9121         8.81335 
       0.958396           13.43         8.48552 
       0.974128         13.1017         8.17503 
       0.989692         12.5114         7.88322 
        1.00528         12.4256         7.60528 
        1.02113         11.9997         7.33643 
        1.03692         11.7254         7.08164 
        1.05264         11.4458         6.84016 
        1.06832         11.1929         6.61036 
        1.08405         10.8915         6.39056 
        1.09979         10.6171         6.18066 
        1.11537          10.349          5.9823 
        1.13105         10.1541          5.7915 
        1.14679         9.93158         5.60831 
        1.16256         9.69759         5.43273 
        1.17828         9.49435         5.26526 
        1.19395         9.30193         5.10545 
         1.2097         9.00677         4.95148 
        1.22537         8.84581         4.80462 
          1.241         8.61797         4.66419 
        1.25666         8.58155         4.52904 
        1.27241         8.39019         4.39863 
        1.28819         8.05204         4.27315 
        1.30392         8.00293         4.15294 
        1.31957         7.81362         4.03791 
        1.33529         7.70291         3.92683 
        1.35108         7.53252         3.81951 
        1.36674         7.35168         3.71697 
         1.3824         7.26955          3.6183 
        1.39811         7.13273          3.5229 
        1.41389         6.96123         3.43058 
        1.42964         6.87171         3.34173 
        1.44531         6.73852         3.25648 
        1.46101         6.66279         3.17402 
        1.47667         6.51712         3.09468 
        1.49229         6.35023         3.01826 
        1.50793         6.27701         2.94435 
        1.52367         6.15734         2.87244 
        1.53953         6.05147         2.80246 
        1.55526         6.00091         2.73537 
        1.57092         5.87831         2.67076 
        1.58662         5.78533         2.60809 
        1.60235          5.7072         2.54732 
        1.61809         5.61906         2.48845 
        1.63369         5.50731         2.43197 
        1.64941          5.4214         2.37685 
        1.66519         5.35813         2.32324 
        1.68085         5.26274         2.27167 
        1.69652         5.20635         2.22165 
        1.71228         5.14733         2.17285 
        1.72806         5.04779         2.12549 
        1.74368         4.99427         2.08001 
        1.75933         4.91821         2.03578 
        1.77505         4.82038         1.99263 
        1.79081          4.7872         1.95066 
         1.8065         4.73193         1.91007 
        1.82218         4.65383         1.87068 
        1.83797         4.56822         1.83214 
        1.85367          4.5091         1.79489 
        1.86928         4.48044         1.75891 
        1.88497         4.38826         1.72371 
        1.90073         4.34595         1.68935 
        1.91647         4.27806         1.65596 
        1.93218         4.23238         1.62355 
        1.94787         4.18114         1.59205 
        1.96363          4.1347         1.56126 
        1.97935         4.08765         1.53136 
        1.99499         4.03787          1.5024 
        2.01064         3.99213         1.47416 
         2.0264         3.93727         1.44646 
        2.04216         3.88885         1.41949 
        2.05781         3.84278         1.39338 
        2.07353         3.81348         1.36783 
        2.08928         3.74182         1.34287 
        2.10499         3.70409          1.3186 
        2.12065         3.70749           1.295 
        2.13633         3.64715         1.27196 
        2.15211         3.58285         1.24933 
        2.16785         3.54632         1.22732 
        2.18349         3.52199         1.20598 
        2.19916         3.48443          1.1851 
        2.21489         3.44577         1.16464 
        2.23063         3.39878         1.14466 
         2.2463         3.35845         1.12523 
        2.26194          3.3216          1.1063 
        2.27765         3.26554         1.08772 
        2.29341         3.24221         1.06951 
        2.30914         3.20905         1.05175 
        2.32486         3.19385         1.03441 
        2.34061         3.15751         1.01744 
        2.35635         3.12526         1.00085 
        2.37203          3.1085          0.9847 
        2.38768          3.0805        0.968936 
        2.40339         3.02617         0.95346 
        2.41914         2.99863        0.938286 
        2.43483          2.9672        0.923497 
         2.4505         2.94635        0.909051 
        2.46622         2.91564        0.894865 
        2.48195         2.89758        0.880981 
        2.49759         2.85998        0.867466 
        2.51328         2.83778        0.854199 
        2.52906          2.8089        0.841126 
        2.54479         2.78283        0.828376 
        2.56049          2.7561        0.815915 
        2.57618         2.73225        0.803721 
        2.59189         2.72755        0.791758 
        2.60758         2.69645        0.780057 
        2.62325         2.64905        0.768607 
        2.63898         2.62819        0.757347 
        2.65468         2.60626        0.746337 
        2.67044           2.603        0.735498 
        2.68618         2.57707          0.7249 
        2.70184          2.5514        0.714553 
        2.71755           2.521        0.704382 
        2.73329         2.49851        0.694394 
        2.74897         2.47987        0.684632 
        2.76462         2.45604        0.675079 
        2.78034         2.44798        0.665669 
        2.79607         2.41951        0.656429 
        2.81179         2.40018        0.647375 
        2.82749         2.37584        0.638501 
        2.84321         2.36212        0.629784 
        2.85893         2.33553        0.621233 
        2.87462         2.32744        0.612855 
        2.89033         2.30961        0.604624 
        2.90605         2.29223        0.596537 
        2.92176         2.26851        0.588602 
        2.93747         2.25124        0.580815 
        2.95318         2.23356        0.573168 
        2.96891         2.22403        0.565655 
        2.98456         2.20592         0.55831 
        3.00023         2.18975        0.551084 
        3.01596         2.16377        0.543964 
        3.03164         2.14969        0.536991 
        3.04738         2.14018        0.530119 
         3.0631         2.12246        0.523369 
        3.07883         2.10752        0.516737 
        3.09456         2.08616        0.510221 
        3.11026         2.07502        0.503827 
        3.12596         2.05771        0.497544 
        3.14163         2.05101        0.491382 
        3.15734         2.02892         0.48531 
        3.17308         2.02085        0.479326 
        3.18879         2.00701        0.473459 
        3.20447         1.98266          0.4677 
         3.2202           1.985        0.462018 
         3.2359         1.96413         0.45644 
        3.25157         1.94601        0.450968 
        3.26729          1.9327        0.445569 
        3.28304          1.9202        0.440248 
        3.29877         1.90315        0.435021 
        3.31446         1.89642         0.42989 
        3.33014         1.88047        0.424846 
        3.34585         1.86826        0.419875 
        3.36158         1.85391        0.414977 
        3.37727         1.85018        0.410172 
        3.39294         1.83287        0.405447 
        3.40867         1.82658         0.40078 
        3.42439           1.811        0.396189 
        3.44008         1.79683        0.391679 
        3.45578         1.78454        0.387235 
        3.47153         1.77691        0.382851 
        3.48724         1.76329        0.378542 
        3.50292         1.74611         0.37431 
        3.51859         1.74564        0.370144 
        3.53431         1.72624        0.366029 
        3.55007         1.72393        0.361966 
        3.56577         1.70915        0.357981 
        3.58146         1.70084        0.354058 
        3.59719         1.68891        0.350184 
        3.61292         1.67926         0.34637 
        3.62859         1.66757        0.342626 
        3.64429         1.65936        0.338931 
        3.66003         1.64754        0.335279 
        3.67578         1.63723        0.331683 
        3.69146         1.62574        0.328152 
        3.70712         1.61596        0.324679 
        3.72284         1.60625        0.321244 
        3.73853         1.59897        0.317865 
        3.75422         1.58855        0.314532 
        3.76993         1.57752        0.311245 
        3.78564         1.56605        0.308006 
        3.80137         1.55839        0.304807 
        3.81707         1.54739        0.301661 
        3.83279         1.54744        0.298557 
        3.84853         1.53409        0.295491 
        3.86424         1.52111        0.292474 
        3.87992         1.51532        0.289504 
        3.89561         1.50186        0.286575 
        3.91134         1.49873        0.283681 
        3.92704          1.4884         0.28083 
        3.94273         1.48245         0.27802 
        3.95845         1.46806        0.275244 
        3.97418         1.46375        0.272506 
        3.98988         1.45727        0.269808 
        4.00554         1.44539        0.267154 
        4.02125         1.43813        0.264529 
        4.03698         1.42782        0.261934 
        4.05268          1.4193         0.25938 
        4.06839         1.40782        0.256858 
         4.0841         1.39901        0.254371 
        4.09983         1.38856        0.251913 
        4.11555         1.38167        0.249489 
        4.13124          1.3711        0.247103 
        4.14693         1.36306        0.244746 
        4.16266         1.35743        0.242414 
        4.17839         1.34789        0.240114 
        4.19408         1.34093         0.23785 
        4.20977         1.33206        0.235613 
        4.22551         1.32667          0.2334 
        4.24123         1.31454        0.231218 
        4.25691         1.30647        0.229069 
        4.27259         1.29787        0.226947 
        4.28831         1.29648        0.224848 
        4.30404         1.28429        0.222773 
        4.31974         1.27642        0.220728 
        4.33543         1.27023        0.218711 
        4.35116         1.26303        0.216714 
        4.36688         1.25636        0.214743 
        4.38255         1.24933        0.212803 
        4.39825         1.24426        0.210884 
        4.41398         1.23613        0.208984 
         4.4297         1.22913        0.207109 
        4.44541         1.22203        0.205258 
        4.46111         1.21318        0.203431 
        4.47683         1.21079        0.201625 
        4.49251         1.20425        0.199844 
        4.50819          1.1979        0.198085 
         4.5239         1.19177        0.196345 
        4.53962         1.18443        0.194624 
        4.55535         1.18085        0.192922 
        4.57106         1.17229        0.191244 
        4.58678         1.17234        0.189585 
         4.6025         1.16296        0.187945 
        4.61821           1.161        0.186324 
        4.63391         1.15474        0.184725 
         4.6496         1.14524        0.183146 
        4.66532          1.1446        0.181582 
        4.68103         1.13774        0.180038 
        4.69673           1.135        0.178512 
        4.71241         1.12712        0.177006 
        4.72811          1.1252        0.175515 
        4.74384         1.11972        0.174039 
        4.75955         1.11701        0.172582 
        4.77525         1.10886        0.171143 
        4.79096         1.10382        0.169719 
        4.80669         1.10208         0.16831 
         4.8224         1.09673        0.166918 
        4.83809          1.0936        0.165544 
        4.85379         1.08877        0.164184 
         4.8695         1.08285        0.162839 
        4.88521         1.08096        0.161509 
        4.90093         1.07689        0.160193 
        4.91663         1.07204        0.158894 
        4.93234         1.06842        0.157608 
        4.94807         1.06286        0.156335 
        4.96377         1.06033        0.155078 
        4.97943         1.05847        0.153838 
        4.99514         1.05676        0.152608 
        5.01086         1.04847        0.151391 
        5.02654         1.04461         0.15019 
        5.04227         1.04194        0.148999 
          5.058         1.03969         0.14782 
        5.07371         1.03467        0.146656 
        5.08942         1.03269        0.145504 
        5.10513         1.03277        0.144365 
        5.12084         1.02627        0.143237 
        5.13656         1.02172        0.142121 
        5.15225         1.01644         0.14102 
        5.16796         1.01436        0.139928 
        5.18369         1.01303        0.138846 
         5.1994         1.01136        0.137779 
        5.21509         1.00599        0.136723 
        5.23079         1.00455        0.135677 
        5.24649         1.00073        0.134643 
        5.26217        0.998424         0.13362 
        5.27788        0.993455        0.132607 
        5.29359        0.992129        0.131603 
        5.30933        0.990107        0.130609 
        5.32504        0.986062        0.129627 
        5.34073        0.984623        0.128656 
        5.35646        0.980525        0.127693 
        5.37218        0.978051        0.126739 
        5.38789        0.978358        0.125797 
        5.40357        0.974455        0.124865 
        5.41929        0.973743        0.123941 
        5.43502        0.968661        0.123026 
         5.4507        0.964281        0.122123 
        5.46639        0.963806        0.121228 
        5.48212        0.959669         0.12034 
        5.49786        0.959506         0.11946 
        5.51353        0.958502        0.118594 
        5.52921        0.953592        0.117735 
        5.54495         0.95153        0.116882 
        5.56066        0.951027        0.116038 
        5.57637        0.950596        0.115203 
        5.59207        0.946524        0.114376 
        5.60778        0.945296        0.113558 
        5.62346        0.943025        0.112748 
        5.63916        0.941659        0.111946 
        5.65487        0.937467        0.111151 
         5.6706        0.936607        0.110363 
        5.68633        0.932758        0.109583 
        5.70203        0.933381        0.108811 
        5.71773        0.929794        0.108047 
        5.73344        0.926276         0.10729 
        5.74916        0.926579        0.106539 
        5.76486        0.922949        0.105797 
        5.78054        0.922226        0.105063 
        5.79626         0.92045        0.104334 
          5.812         0.91846        0.103611 
         5.8277        0.916071        0.102896 
        5.84339        0.917495        0.102189 
        5.85911        0.913221        0.101487 
        5.87484        0.912951        0.100792 
        5.89053        0.907605        0.100104 
        5.90623        0.908404       0.0994228 
        5.92195         0.90547       0.0987466 
        5.93767        0.904379        0.098077 
        5.95336        0.902024       0.0974148 
        5.96905        0.900534       0.0967589 
        5.98476        0.897842       0.0961081 
        6.00048        0.898317       0.0954631 
        6.01617        0.896136       0.0948248 
        6.03185         0.89322       0.0941932 
        6.04756        0.894062       0.0935658 
        6.06331        0.889915       0.0929428 
        6.07903         0.89062       0.0923267 
        6.09473        0.889193       0.0917168 
        6.11044        0.886531       0.0911119 
        6.12616         0.88484       0.0905125 
        6.14186        0.882431       0.0899191 
        6.15755        0.880892        0.089331 
        6.17326        0.879282       0.0887478 
        6.18898        0.877853       0.0881694 
        6.20467        0.876582       0.0875973 
        6.22036        0.873404       0.0870302 
         6.2361        0.872705       0.0864667 
         6.2518        0.872106       0.0859091 
        6.26748        0.870679       0.0853576 
        6.28319        0.868308       0.0848094 
        6.29893        0.866073       0.0842655 
        6.31463        0.865274       0.0837274 
        6.33033        0.865144       0.0831941 
        6.34604        0.863684       0.0826651 
        6.36177        0.861802       0.0821401 
        6.37747        0.859256       0.0816207 
