# k  (h/Mpc)    Pcb(k)  (Mpc/h)^3    Pcb_linear(k) (Mpc/h)^3   ShotnoiseSubtracted = true
      0.0200456         8255.92         8358.64 
      0.0350414         5703.74         5547.61 
      0.0492313         3734.45         3736.47 
      0.0637834         2933.15         2994.86 
      0.0800726         2306.06         2381.03 
       0.096163         1744.78         1677.97 
       0.111083         1343.38         1266.94 
       0.126058          1109.1         1101.36 
       0.142273         963.994         955.073 
       0.158546         782.191         748.767 
        0.17375         653.822         601.386 
       0.188953         589.788         532.565 
       0.204907         505.822         481.416 
       0.220756         451.997         410.451 
        0.23588         391.812         346.075 
         0.2514         345.041         306.126 
       0.267535         330.314         279.493 
       0.283568         287.926         249.355 
       0.299022         269.413          218.74 
       0.314451         260.866          195.62 
       0.330372         224.679         179.111 
       0.346141          207.12         163.892 
       0.361624         194.479         148.211 
       0.377134         177.817         134.429 
       0.392932         171.595         123.548 
       0.408854         161.764         114.154 
       0.424564         153.823         105.103 
       0.440253         138.691         96.6607 
       0.455999         129.094         89.4419 
       0.471626         125.818         83.2839 
        0.48727         120.362         77.5798 
       0.502856         109.596         72.2222 
       0.518488         107.713         67.3729 
       0.534347         100.364         63.0269 
       0.550082         97.6371          59.104 
       0.565732         95.3108         55.4708 
       0.581496         87.2213         52.0886 
       0.597222         85.0773         49.0243 
       0.612804          81.566         46.2507 
       0.628434         79.5625         43.6712 
       0.644267          74.997         41.2437 
       0.660051         72.6676         39.0048 
       0.675724         70.7317          36.955 
       0.691403         69.1568         35.0548 
       0.707174         66.3598         33.2758 
       0.722871         64.9192         31.6254 
        0.73838          62.743         30.1027 
       0.754018         58.9436         28.6674 
       0.769845         58.4422         27.3087 
        0.78569         56.5366         26.0358 
       0.801365         54.5314         24.8555 
       0.817031         52.6532         23.7485 
       0.832809         51.5403         22.7015 
       0.848511         50.3026         21.7219 
       0.864097         49.1902         20.8067 
       0.879701         48.0449         19.9432 
       0.895507         46.1884         19.1183 
       0.911279         45.2316         18.3417 
        0.92691         44.2255         17.6144 
       0.942635         43.0292         16.9225 
       0.958396         42.8398         16.2661 
       0.974128         41.6679         15.6456 
       0.989692         40.4092         15.0634 
        1.00528         39.6216         14.5099 
        1.02113         38.6063         13.9754 
        1.03692         38.3707         13.4696 
        1.05264         37.4339         12.9911 
        1.06832         36.4495         12.5364 
        1.08405         35.7425         12.1021 
        1.09979         35.3968         11.6881 
        1.11537         34.4002         11.2973 
        1.13105         33.5427          10.922 
        1.14679          33.107         10.5623 
        1.16256         32.5874         10.2179 
        1.17828         32.1866         9.88988 
        1.19395         31.2121         9.57731 
         1.2097         31.1862         9.27657 
        1.22537         30.3128         8.99012 
          1.241         29.9758         8.71656 
        1.25666         29.1373         8.45363 
        1.27241         29.0111         8.20024 
        1.28819         28.3223         7.95676 
        1.30392         27.9034         7.72381 
        1.31957         27.6764         7.50117 
        1.33529         27.1793         7.28643 
        1.35108         26.6487         7.07921 
        1.36674         26.2171         6.88147 
         1.3824           25.83         6.69142 
        1.39811         25.3332         6.50787 
        1.41389         24.9755         6.33047 
        1.42964         24.8688         6.15993 
        1.44531         24.2996         5.99647 
        1.46101         24.0578         5.83856 
        1.47667         23.7375         5.68677 
        1.49229         23.2281         5.54074 
        1.50793         23.1055         5.39964 
        1.52367         22.6116         5.26252 
        1.53953         22.5479         5.12921 
        1.55526         22.0943         5.00155 
        1.57092         21.8514         4.87873 
        1.58662         21.5504         4.75972 
        1.60235         21.2355         4.64442 
        1.61809          20.977         4.53285 
        1.63369         20.7395         4.42591 
        1.64941         20.4331         4.32164 
        1.66519         20.2297         4.22032 
        1.68085         19.8306         4.12295 
        1.69652         19.6384          4.0286 
        1.71228         19.5605         3.93665 
        1.72806         19.1872         3.84748 
        1.74368         18.9113         3.76194 
        1.75933         18.8079         3.67881 
        1.77505         18.5887         3.59779 
        1.79081         18.3263         3.51904 
         1.8065         18.1375         3.44298 
        1.82218         17.8961         3.36921 
        1.83797         17.8062         3.29708 
        1.85367         17.5504         3.22745 
        1.86928         17.4797         3.16023 
        1.88497         17.1752         3.09454 
        1.90073         17.0072         3.03047 
        1.91647         16.7643         2.96825 
        1.93218         16.7212          2.9079 
        1.94787         16.4915          2.8493 
        1.96363         16.2853         2.79208 
        1.97935         16.0772         2.73653 
        1.99499         15.9642         2.68279 
        2.01064         15.6965         2.63041 
         2.0264          15.609         2.57909 
        2.04216         15.5422         2.52915 
        2.05781         15.2789         2.48084 
        2.07353         15.1635         2.43361 
        2.08928          14.944          2.3875 
        2.10499         14.7526          2.3427 
        2.12065         14.6497         2.29917 
        2.13633         14.5449          2.2567 
        2.15211         14.3205         2.21502 
        2.16785         14.2963          2.1745 
        2.18349         14.1068         2.13525 
        2.19916         13.9331         2.09687 
        2.21489         13.7569          2.0593 
        2.23063         13.6773         2.02261 
         2.2463         13.5343         1.98698 
        2.26194         13.3786         1.95229 
        2.27765         13.2264         1.91825 
        2.29341         13.0828         1.88492 
        2.30914         12.9643         1.85244 
        2.32486          12.913         1.82074 
        2.34061          12.748         1.78973 
        2.35635         12.5834         1.75946 
        2.37203         12.5009         1.72999 
        2.38768         12.3623         1.70125 
        2.40339         12.3459         1.67305 
        2.41914         12.1964         1.64542 
        2.43483         12.0406         1.61851 
         2.4505         11.8867         1.59224 
        2.46622         11.8303         1.56645 
        2.48195         11.7121         1.54124 
        2.49759         11.5738          1.5167 
        2.51328         11.4898         1.49264 
        2.52906         11.3892         1.46894 
        2.54479         11.2941         1.44583 
        2.56049         11.1737         1.42327 
        2.57618         11.1336          1.4012 
        2.59189         10.9793         1.37956 
        2.60758         10.8475         1.35841 
        2.62325         10.7733         1.33773 
        2.63898         10.7392          1.3174 
        2.65468         10.5873         1.29753 
        2.67044         10.5132         1.27799 
        2.68618         10.4029         1.25888 
        2.70184         10.3407         1.24025 
        2.71755         10.2179         1.22194 
        2.73329         10.1531         1.20396 
        2.74897         10.0625         1.18641 
        2.76462         9.97219         1.16924 
        2.78034         9.88498         1.15233 
        2.79607         9.80081         1.13574 
        2.81179         9.75942          1.1195 
        2.82749         9.64474         1.10358 
        2.84321         9.57609         1.08796 
        2.85893         9.45983         1.07264 
        2.87462         9.41057         1.05764 
        2.89033         9.29979         1.04291 
        2.90605          9.2381         1.02844 
        2.92176         9.17368         1.01426 
        2.93747         9.10746         1.00034 
        2.95318         9.02788        0.986684 
        2.96891         8.92931        0.973273 
        2.98456         8.86003        0.960169 
        3.00023         8.80617        0.947284 
        3.01596         8.73921        0.934594 
        3.03164         8.65708        0.922171 
        3.04738         8.58308        0.909935 
         3.0631         8.48808        0.897923 
        3.07883          8.4399        0.886126 
        3.09456         8.34131        0.874541 
        3.11026         8.28186        0.863179 
        3.12596         8.23911        0.852018 
        3.14163         8.15624        0.841079 
        3.15734         8.10331        0.830304 
        3.17308         8.04695        0.819691 
        3.18879         7.97644        0.809291 
        3.20447          7.9229        0.799084 
         3.2202         7.84283        0.789021 
         3.2359         7.76466        0.779147 
        3.25157         7.72438        0.769464 
        3.26729         7.64932        0.759915 
        3.28304         7.57573        0.750508 
        3.29877         7.54416        0.741271 
        3.31446         7.47621        0.732208 
        3.33014         7.42176        0.723304 
        3.34585         7.32439        0.714532 
        3.36158         7.30571        0.705892 
        3.37727         7.24262         0.69742 
        3.39294          7.1901        0.689094 
        3.40867         7.15127        0.680873 
        3.42439         7.07574        0.672789 
        3.44008         7.01984        0.664851 
        3.45578         6.96374        0.657034 
        3.47153         6.92118        0.649324 
        3.48724         6.84891        0.641751 
        3.50292         6.79115        0.634315 
        3.51859         6.75525        0.626999 
        3.53431         6.68908        0.619775 
        3.55007         6.63077        0.612646 
        3.56577         6.56812        0.605656 
        3.58146         6.54785        0.598777 
        3.59719         6.47658        0.591988 
        3.61292         6.44795        0.585306 
        3.62859         6.40815        0.578752 
        3.64429         6.33909        0.572284 
        3.66003         6.29897        0.565895 
        3.67578         6.26295        0.559604 
        3.69146         6.21097        0.553432 
        3.70712          6.1635        0.547363 
        3.72284         6.11564        0.541362 
        3.73853         6.08288        0.535461 
        3.75422         6.04759        0.529645 
        3.76993         5.97938        0.523909 
        3.78564         5.94677         0.51826 
        3.80137         5.87899        0.512684 
        3.81707          5.8347        0.507201 
        3.83279         5.80219        0.501793 
        3.84853          5.7601        0.496455 
        3.86424         5.70524        0.491204 
        3.87992         5.69185        0.486036 
        3.89561         5.63171        0.480941 
        3.91134         5.58925        0.475909 
        3.92704         5.54133        0.470953 
        3.94273         5.50651        0.466073 
        3.95845         5.46605        0.461252 
        3.97418          5.4319        0.456497 
        3.98988         5.38874        0.451816 
        4.00554         5.34834        0.447212 
        4.02125         5.31904        0.442659 
        4.03698         5.27121        0.438161 
        4.05268         5.22601        0.433736 
        4.06839         5.16739        0.429368 
         4.0841         5.15611         0.42506 
        4.09983          5.0984        0.420806 
        4.11555         5.07691        0.416611 
        4.13124          5.0399        0.412483 
        4.14693         5.00165        0.408408 
        4.16266         4.96235        0.404378 
        4.17839         4.92794        0.400404 
        4.19408         4.90203        0.396493 
        4.20977         4.86346        0.392631 
        4.22551         4.83183        0.388811 
        4.24123          4.7848        0.385045 
        4.25691         4.75536        0.381339 
        4.27259         4.71154         0.37768 
        4.28831         4.68753        0.374062 
        4.30404         4.63736        0.370487 
        4.31974         4.61362        0.366966 
        4.33543         4.57142        0.363492 
        4.35116         4.54293        0.360055 
        4.36688         4.51761        0.356662 
        4.38255         4.49138        0.353326 
        4.39825         4.45574        0.350025 
        4.41398         4.40597        0.346759 
         4.4297         4.38464        0.343538 
        4.44541         4.36329        0.340358 
        4.46111         4.33357        0.337221 
        4.47683         4.30039         0.33412 
        4.49251         4.27243        0.331064 
        4.50819         4.24812        0.328047 
         4.5239         4.19883        0.325063 
        4.53962         4.18885        0.322111 
        4.55535           4.146        0.319195 
        4.57106         4.13263        0.316319 
        4.58678         4.09237        0.313477 
         4.6025          4.0723        0.310669 
        4.61821          4.0517        0.307896 
        4.63391         4.01689         0.30516 
         4.6496         3.98511        0.302458 
        4.66532         3.94452        0.299784 
        4.68103         3.93224        0.297143 
        4.69673         3.90402        0.294536 
        4.71241         3.88522        0.291963 
        4.72811         3.84874        0.289416 
        4.74384         3.82992        0.286896 
        4.75955         3.79572         0.28441 
        4.77525         3.77346        0.281954 
        4.79096         3.75765        0.279524 
        4.80669         3.73132        0.277121 
         4.8224         3.70378        0.274749 
        4.83809         3.67774        0.272407 
        4.85379         3.65897         0.27009 
         4.8695         3.62768        0.267799 
        4.88521         3.60582        0.265534 
        4.90093          3.5786        0.263295 
        4.91663         3.55729        0.261084 
        4.93234         3.53323        0.258896 
        4.94807         3.51017        0.256731 
        4.96377         3.49066        0.254594 
        4.97943         3.46365        0.252487 
        4.99514         3.45427        0.250397 
        5.01086         3.42131        0.248329 
        5.02654         3.40346         0.24629 
        5.04227         3.38593        0.244267 
          5.058         3.35733        0.242266 
        5.07371         3.33603        0.240291 
        5.08942         3.32109        0.238338 
        5.10513         3.30329        0.236406 
        5.12084         3.28487        0.234494 
        5.13656         3.25459        0.232603 
        5.15225         3.23776        0.230737 
        5.16796         3.21617        0.228887 
        5.18369         3.19606        0.227056 
         5.1994         3.17405        0.225248 
        5.21509         3.15804        0.223462 
        5.23079         3.13268        0.221692 
        5.24649         3.12468        0.219943 
        5.26217         3.09783        0.218214 
        5.27788         3.08075          0.2165 
        5.29359         3.05278        0.214805 
        5.30933          3.0449        0.213125 
        5.32504         3.02438        0.211466 
        5.34073         3.01383        0.209826 
        5.35646         2.99222          0.2082 
        5.37218         2.97029        0.206591 
        5.38789         2.95128        0.205001 
        5.40357         2.93384         0.20343 
        5.41929         2.91203        0.201871 
        5.43502         2.89982        0.200329 
         5.4507         2.87937        0.198806 
        5.46639         2.86215        0.197298 
        5.48212         2.85171        0.195803 
        5.49786         2.82498        0.194321 
        5.51353         2.81115        0.192862 
        5.52921         2.79364        0.191416 
        5.54495         2.78214         0.18998 
        5.56066         2.76569        0.188561 
        5.57637         2.74479        0.187156 
        5.59207         2.73302        0.185767 
        5.60778         2.71545        0.184391 
        5.62346          2.7092        0.183031 
        5.63916          2.6884        0.181683 
        5.65487          2.6698        0.180348 
         5.6706         2.65488        0.179024 
        5.68633         2.63758        0.177713 
        5.70203         2.62323        0.176418 
        5.71773          2.6052        0.175136 
        5.73344         2.59176        0.173866 
        5.74916         2.57566        0.172608 
        5.76486         2.56691        0.171363 
        5.78054         2.54792        0.170132 
        5.79626         2.53701         0.16891 
          5.812          2.5241        0.167699 
         5.8277         2.49906        0.166503 
        5.84339         2.49214        0.165318 
        5.85911         2.48198        0.164143 
        5.87484         2.46597        0.162979 
        5.89053          2.4503        0.161828 
        5.90623         2.43996        0.160688 
        5.92195         2.42523        0.159557 
        5.93767         2.41423        0.158438 
        5.95336         2.39461        0.157331 
        5.96905         2.38974        0.156234 
        5.98476         2.37004        0.155147 
        6.00048         2.35812        0.154069 
        6.01617         2.34666        0.153003 
        6.03185         2.33781        0.151949 
        6.04756         2.31964        0.150901 
        6.06331         2.31121        0.149862 
        6.07903         2.29563        0.148834 
        6.09473         2.28243        0.147816 
        6.11044          2.2688        0.146807 
        6.12616         2.26152        0.145808 
        6.14186         2.24667        0.144819 
        6.15755         2.23724        0.143839 
        6.17326         2.22203        0.142867 
        6.18898         2.21015        0.141904 
        6.20467         2.20305        0.140951 
        6.22036         2.19051        0.140007 
         6.2361         2.17759        0.139069 
         6.2518         2.16676        0.138141 
        6.26748         2.15622        0.137223 
        6.28319         2.14862        0.136311 
        6.29893         2.13498        0.135407 
        6.31463         2.12343        0.134512 
        6.33033         2.11461        0.133625 
        6.34604         2.10228        0.132746 
        6.36177         2.09055        0.131874 
        6.37747         2.08118        0.131011 
