# k  (h/Mpc)    Pcb(k)  (Mpc/h)^3    Pcb_linear(k) (Mpc/h)^3   ShotnoiseSubtracted = true
      0.0200456         19729.4         20023.6 
      0.0350414         13783.2         13289.6 
      0.0492313          8860.4         8950.93 
      0.0637834         6934.17         7174.37 
      0.0800726         5428.71         5703.89 
       0.096163         4250.76         4019.67 
       0.111083         3302.53         3035.03 
       0.126058         2694.65         2638.38 
       0.142273         2376.21         2287.93 
       0.158546         1934.09         1793.72 
        0.17375         1667.54         1440.66 
       0.188953         1551.88         1275.79 
       0.204907         1330.79         1153.26 
       0.220756         1198.94          983.26 
        0.23588          1056.3         829.044 
         0.2514         939.585         733.342 
       0.267535         908.916         669.542 
       0.283568         799.471         597.344 
       0.299022         758.156         524.003 
       0.314451         780.228         468.618 
       0.330372          670.87         429.072 
       0.346141         616.314         392.614 
       0.361624         588.631         355.048 
       0.377134         558.902         322.031 
       0.392932         532.565         295.968 
       0.408854         508.621         273.463 
       0.424564         493.558         251.781 
       0.440253         449.679         231.556 
       0.455999         428.706         214.263 
       0.471626         435.454         199.511 
        0.48727         408.623         185.847 
       0.502856         384.098         173.013 
       0.518488           377.3         161.396 
       0.534347         356.937         150.985 
       0.550082         340.097         141.587 
       0.565732         336.886         132.884 
       0.581496         325.664         124.781 
       0.597222         316.659         117.441 
       0.612804         307.235         110.796 
       0.628434         295.798         104.617 
       0.644267         284.039         98.8018 
       0.660051         280.508         93.4383 
       0.675724          273.78         88.5278 
       0.691403         268.076         83.9758 
       0.707174         257.734         79.7141 
       0.722871         253.737         75.7604 
        0.73838         248.921         72.1129 
       0.754018         239.805         68.6744 
       0.769845         239.497         65.4197 
        0.78569         232.148         62.3703 
       0.801365         224.771         59.5429 
       0.817031         223.446         56.8911 
       0.832809         217.901         54.3828 
       0.848511         212.997         52.0362 
       0.864097          206.61         49.8437 
       0.879701         206.426          47.775 
       0.895507         200.854         45.7991 
       0.911279         195.844         43.9386 
        0.92691         192.988         42.1965 
       0.942635         190.947         40.5389 
       0.958396          185.91         38.9664 
       0.974128         183.828           37.48 
       0.989692         177.067         36.0853 
        1.00528         176.915         34.7593 
        1.02113         174.187         33.4788 
        1.03692         170.109         32.2673 
        1.05264         166.609         31.1209 
        1.06832         166.186         30.0317 
        1.08405         161.826         28.9914 
        1.09979         160.035         27.9994 
        1.11537         158.165         27.0634 
        1.13105         154.612         26.1644 
        1.14679         153.286         25.3025 
        1.16256         150.226         24.4775 
        1.17828         148.791         23.6918 
        1.19395         145.096          22.943 
         1.2097         144.468         22.2226 
        1.22537         142.866         21.5364 
          1.241         138.377          20.881 
        1.25666         137.899         20.2512 
        1.27241         134.941         19.6442 
        1.28819         133.634         19.0609 
        1.30392         132.137         18.5028 
        1.31957         128.998         17.9695 
        1.33529         126.731         17.4551 
        1.35108         125.966         16.9587 
        1.36674         123.184          16.485 
         1.3824         122.441         16.0297 
        1.39811         120.863           15.59 
        1.41389          118.08          15.165 
        1.42964          116.41         14.7565 
        1.44531         115.634         14.3649 
        1.46101          113.13         13.9866 
        1.47667         112.862          13.623 
        1.49229         111.309         13.2732 
        1.50793          108.95         12.9352 
        1.52367         107.523         12.6067 
        1.53953         105.728         12.2873 
        1.55526         105.045         11.9815 
        1.57092          104.04         11.6873 
        1.58662         102.032         11.4022 
        1.60235         100.842          11.126 
        1.61809         99.8107         10.8587 
        1.63369         97.9103         10.6025 
        1.64941         97.6074         10.3527 
        1.66519         95.9646           10.11 
        1.68085         94.2118         9.87678 
        1.69652         93.4737         9.65076 
        1.71228          91.993         9.43048 
        1.72806         91.7082         9.21686 
        1.74368          90.287         9.01194 
        1.75933         89.2003         8.81281 
        1.77505         88.0797         8.61871 
        1.79081         86.6324         8.43008 
         1.8065         85.1594         8.24786 
        1.82218         84.4037         8.07114 
        1.83797         84.0501         7.89836 
        1.85367         82.5366         7.73154 
        1.86928         82.1104         7.57052 
        1.88497         80.3948         7.41316 
        1.90073         79.7834         7.25967 
        1.91647         78.5325         7.11062 
        1.93218         77.7556         6.96605 
        1.94787         76.3523         6.82568 
        1.96363         75.7545         6.68859 
        1.97935         75.0616         6.55552 
        1.99499         74.4616         6.42679 
        2.01064         72.8908         6.30131 
         2.0264         72.2183         6.17837 
        2.04216         71.1075         6.05874 
        2.05781         70.3347         5.94301 
        2.07353         69.7538         5.82986 
        2.08928         68.8481          5.7194 
        2.10499         67.9284         5.61207 
        2.12065         67.3642         5.50779 
        2.13633         66.4171         5.40606 
        2.15211          65.421         5.30621 
        2.16785         64.5487         5.20915 
        2.18349         63.8113         5.11511 
        2.19916         63.2712         5.02317 
        2.21489         62.4716         4.93317 
        2.23063         61.4055         4.84529 
         2.2463         60.9671         4.75994 
        2.26194         60.5815         4.67683 
        2.27765         59.4862         4.59527 
        2.29341          58.895         4.51543 
        2.30914         58.1831         4.43763 
        2.32486         57.6282          4.3617 
        2.34061         56.6446          4.2874 
        2.35635          56.176         4.21489 
        2.37203         55.3548         4.14429 
        2.38768         54.9775         4.07544 
        2.40339         54.3407         4.00789 
        2.41914         53.3695          3.9417 
        2.43483         53.2507         3.87723 
         2.4505         52.5405          3.8143 
        2.46622         52.0156         3.75253 
        2.48195         51.3756         3.69212 
        2.49759         50.8851         3.63335 
        2.51328         50.1762          3.5757 
        2.52906         49.7335         3.51892 
        2.54479         49.2011         3.46358 
        2.56049         48.3643         3.40953 
        2.57618          48.027         3.35666 
        2.59189         47.4032         3.30483 
        2.60758         46.8705         3.25416 
        2.62325          46.558         3.20461 
        2.63898         46.1201         3.15591 
        2.65468         45.4741         3.10832 
        2.67044         45.0419         3.06149 
        2.68618         44.6073         3.01573 
        2.70184         44.1306         2.97108 
        2.71755         43.3897         2.92722 
        2.73329         43.0073         2.88416 
        2.74897         42.5632         2.84211 
        2.76462         42.2408         2.80098 
        2.78034         41.8255         2.76048 
        2.79607          41.278         2.72074 
        2.81179         40.7705         2.68182 
        2.82749         40.4291          2.6437 
        2.84321         40.0631         2.60627 
        2.85893         39.5671         2.56957 
        2.87462          39.246         2.53363 
        2.89033         38.5769         2.49834 
        2.90605         38.1073         2.46369 
        2.92176         38.0887         2.42971 
        2.93747         37.5831         2.39638 
        2.95318         37.1526         2.36366 
        2.96891         36.7208         2.33153 
        2.98456         36.4237         2.30014 
        3.00023         35.9565         2.26928 
        3.01596         35.4347         2.23888 
        3.03164         35.1479         2.20911 
        3.04738         34.8945          2.1798 
         3.0631         34.6543         2.15103 
        3.07883          34.239         2.12277 
        3.09456         33.8576         2.09501 
        3.11026         33.5144          2.0678 
        3.12596         33.2098         2.04106 
        3.14163          32.799         2.01485 
        3.15734         32.5105         1.98904 
        3.17308         32.2255         1.96362 
        3.18879         31.9114          1.9387 
        3.20447         31.4598         1.91425 
         3.2202         31.1786         1.89015 
         3.2359         30.9641         1.86649 
        3.25157         30.5894          1.8433 
        3.26729         30.3629         1.82042 
        3.28304         30.0319         1.79789 
        3.29877          29.633         1.77576 
        3.31446         29.3593         1.75405 
        3.33014         29.0622         1.73272 
        3.34585         28.7457          1.7117 
        3.36158         28.5336         1.69101 
        3.37727         28.2203         1.67071 
        3.39294         27.9563         1.65077 
        3.40867         27.6797         1.63107 
        3.42439          27.427         1.61171 
        3.44008         27.1785         1.59269 
        3.45578         26.9186         1.57396 
        3.47153         26.6803         1.55549 
        3.48724         26.3574         1.53735 
        3.50292          26.208         1.51954 
        3.51859         25.8882         1.50201 
        3.53431         25.6652         1.48471 
        3.55007         25.3752         1.46763 
        3.56577         25.1414         1.45088 
        3.58146         24.8722         1.43441 
        3.59719          24.691         1.41814 
        3.61292         24.4407         1.40214 
        3.62859         24.1952         1.38643 
        3.64429         23.9798         1.37094 
        3.66003         23.7462         1.35563 
        3.67578         23.5074         1.34056 
        3.69146         23.2893         1.32578 
        3.70712         23.1131         1.31124 
        3.72284          22.947         1.29687 
        3.73853         22.7629         1.28273 
        3.75422         22.4706          1.2688 
        3.76993         22.3113         1.25506 
        3.78564         22.1005         1.24152 
        3.80137         21.8663         1.22817 
        3.81707         21.7074         1.21503 
        3.83279         21.4599         1.20208 
        3.84853         21.2521         1.18929 
        3.86424         21.0694         1.17671 
        3.87992         20.8954         1.16433 
        3.89561         20.6599         1.15212 
        3.91134         20.4665         1.14007 
        3.92704         20.2759          1.1282 
        3.94273         20.1251         1.11651 
        3.95845          19.967         1.10496 
        3.97418         19.7844         1.09357 
        3.98988          19.539         1.08235 
        4.00554         19.3652         1.07132 
        4.02125         19.2549         1.06042 
        4.03698          19.021         1.04964 
        4.05268          18.879         1.03904 
        4.06839         18.6772         1.02858 
         4.0841         18.5158         1.01826 
        4.09983         18.3836         1.00807 
        4.11555         18.2084        0.998015 
        4.13124         18.1022        0.988128 
        4.14693         17.8945        0.978366 
        4.16266          17.774        0.968712 
        4.17839         17.6468        0.959193 
        4.19408         17.4677        0.949822 
        4.20977         17.3301        0.940571 
        4.22551         17.1767         0.93142 
        4.24123         17.0321        0.922399 
        4.25691         16.9041        0.913521 
        4.27259         16.6911        0.904756 
        4.28831         16.6184        0.896087 
        4.30404         16.4562        0.887523 
        4.31974         16.3257        0.879088 
        4.33543         16.1567        0.870767 
        4.35116         16.0478        0.862532 
        4.36688         15.8861        0.854406 
        4.38255         15.7603        0.846414 
        4.39825         15.6378        0.838506 
        4.41398         15.5206        0.830682 
         4.4297          15.358        0.822966 
        4.44541         15.2714        0.815348 
        4.46111         15.0907        0.807832 
        4.47683         14.9954        0.800404 
        4.49251         14.8536        0.793083 
        4.50819          14.722        0.785855 
         4.5239         14.6662        0.778707 
        4.53962         14.4642        0.771637 
        4.55535         14.3753        0.764651 
        4.57106         14.2799        0.757761 
        4.58678         14.1394        0.750953 
         4.6025         14.0169        0.744226 
        4.61821         13.8894        0.737583 
        4.63391         13.7835        0.731028 
         4.6496         13.6555        0.724555 
        4.66532         13.5514         0.71815 
        4.68103         13.4765        0.711824 
        4.69673         13.3606        0.705579 
        4.71241         13.2449        0.699415 
        4.72811         13.1416        0.693314 
        4.74384         13.0383        0.687278 
        4.75955         12.9346        0.681321 
        4.77525         12.8183        0.675438 
        4.79096         12.7202        0.669617 
        4.80669         12.6153         0.66386 
         4.8224         12.5067        0.658178 
        4.83809         12.4073        0.652567 
        4.85379         12.3031        0.647017 
         4.8695         12.2291        0.641528 
        4.88521         12.1286        0.636103 
        4.90093         12.0425         0.63074 
        4.91663         11.9232        0.625443 
        4.93234         11.8522          0.6202 
        4.94807         11.7551        0.615014 
        4.96377         11.6744        0.609896 
        4.97943         11.5638        0.604847 
        4.99514         11.4655        0.599841 
        5.01086         11.3842        0.594887 
        5.02654          11.307        0.590002 
        5.04227         11.2166        0.585157 
          5.058         11.1288        0.580363 
        5.07371         11.0621        0.575632 
        5.08942         10.9848        0.570952 
        5.10513         10.8682        0.566324 
        5.12084         10.8038        0.561744 
        5.13656         10.7205        0.557215 
        5.15225         10.6382        0.552743 
        5.16796         10.5635        0.548313 
        5.18369         10.4507        0.543927 
         5.1994         10.4029        0.539596 
        5.21509         10.3215        0.535316 
        5.23079         10.2352        0.531077 
        5.24649         10.1605        0.526887 
        5.26217         10.0922        0.522744 
        5.27788         10.0344         0.51864 
        5.29359          9.9366        0.514578 
        5.30933         9.86541        0.510554 
        5.32504         9.79811        0.506579 
        5.34073         9.71926        0.502651 
        5.35646         9.65898        0.498756 
        5.37218         9.58387        0.494901 
        5.38789         9.49834        0.491092 
        5.40357         9.41927        0.487328 
        5.41929         9.38312        0.483594 
        5.43502          9.3047        0.479899 
         5.4507         9.22417        0.476251 
        5.46639         9.15491         0.47264 
        5.48212         9.09789        0.469058 
        5.49786         9.02607        0.465508 
        5.51353         8.98578        0.462012 
        5.52921         8.90868        0.458548 
        5.54495         8.84476        0.455109 
        5.56066         8.77313        0.451709 
        5.57637         8.71867        0.448344 
        5.59207         8.64301        0.445015 
        5.60778         8.60622        0.441719 
        5.62346         8.52306        0.438461 
        5.63916         8.46826        0.435232 
        5.65487         8.41874        0.432033 
         5.6706         8.34753        0.428863 
        5.68633         8.28791        0.425723 
        5.70203         8.22195        0.422621 
        5.71773         8.16279         0.41955 
        5.73344         8.12448        0.416507 
        5.74916         8.05614        0.413492 
        5.76486         8.00471         0.41051 
        5.78054         7.95278        0.407562 
        5.79626         7.89271        0.404634 
          5.812         7.84267        0.401732 
         5.8277         7.76178        0.398867 
        5.84339         7.71981        0.396029 
        5.85911         7.66963        0.393213 
        5.87484         7.62678        0.390425 
        5.89053         7.58202        0.387669 
        5.90623         7.52157        0.384938 
        5.92195         7.45361        0.382229 
        5.93767         7.41234        0.379547 
        5.95336         7.34777        0.376895 
        5.96905         7.29831        0.374269 
        5.98476          7.2719        0.371664 
        6.00048         7.20851        0.369082 
        6.01617         7.16927        0.366529 
        6.03185         7.10331        0.364002 
        6.04756         7.05833        0.361493 
        6.06331         7.01852        0.359002 
        6.07903         6.98336         0.35654 
        6.09473         6.91552        0.354103 
        6.11044         6.86819        0.351686 
        6.12616           6.831        0.349292 
        6.14186         6.79729        0.346922 
        6.15755         6.74792        0.344574 
        6.17326         6.69052        0.342246 
        6.18898         6.65253        0.339939 
        6.20467         6.60453        0.337656 
        6.22036         6.57341        0.335394 
         6.2361         6.53103        0.333147 
         6.2518         6.49101        0.330924 
        6.26748         6.44651        0.328726 
        6.28319         6.41111        0.326541 
        6.29893         6.36151        0.324375 
        6.31463         6.30946        0.322231 
        6.33033         6.26635        0.320108 
        6.34604          6.2369        0.318001 
        6.36177         6.20143        0.315912 
        6.37747         6.15849        0.313845 
