# k  (h/Mpc)    Pcb(k)  (Mpc/h)^3    Pcb_linear(k) (Mpc/h)^3   ShotnoiseSubtracted = true
      0.0200456         2350.91         2381.22 
      0.0350414         1569.01         1580.41 
      0.0492313         1069.53         1064.45 
      0.0637834         867.777          853.18 
      0.0800726         685.638          678.31 
       0.096163         475.492         478.021 
       0.111083         359.123         360.928 
       0.126058         317.679         313.758 
       0.142273         276.676         272.082 
       0.158546         219.362          213.31 
        0.17375         172.986         171.324 
       0.188953         156.841         151.718 
       0.204907         146.037         137.146 
       0.220756         122.292          116.93 
        0.23588         103.878         98.5904 
         0.2514         90.7816         87.2095 
       0.267535         83.9194         79.6224 
       0.283568         75.3566         71.0365 
       0.299022         67.4597         62.3148 
       0.314451         59.3396         55.7284 
       0.330372         54.9682         51.0254 
       0.346141         49.9632         46.6899 
       0.361624         45.9651         42.2225 
       0.377134         42.6186         38.2962 
       0.392932         37.6124         35.1967 
       0.408854         36.1143         32.5204 
       0.424564          33.665         29.9419 
       0.440253         30.8626         27.5368 
       0.455999         28.8325         25.4803 
       0.471626         26.9765          23.726 
        0.48727         25.4165          22.101 
       0.502856         23.6926         20.5748 
       0.518488         22.4958         19.1933 
       0.534347         21.4955         17.9552 
       0.550082         19.5292         16.8376 
       0.565732          18.071         15.8026 
       0.581496         17.6348         14.8391 
       0.597222         16.9224         13.9661 
       0.612804         15.7113          13.176 
       0.628434         15.0869         12.4411 
       0.644267         14.5349         11.7496 
       0.660051           13.68         11.1117 
       0.675724         12.9214         10.5278 
       0.691403         12.4785         9.98646 
       0.707174          11.897         9.47965 
       0.722871         11.3987         9.00947 
        0.73838         10.8838          8.5757 
       0.754018         10.4951         8.16681 
       0.769845         10.0246         7.77975 
        0.78569         9.66267         7.41711 
       0.801365         9.24281         7.08087 
       0.817031         8.92133         6.76552 
       0.832809         8.68141         6.46723 
       0.848511         8.13288         6.18817 
       0.864097         7.90932         5.92744 
       0.879701          7.6467         5.68143 
       0.895507         7.27378         5.44645 
       0.911279         7.14537          5.2252 
        0.92691         6.89489         5.01803 
       0.942635          6.5729          4.8209 
       0.958396         6.37231         4.63391 
       0.974128         6.18547         4.45714 
       0.989692         6.07313         4.29129 
        1.00528         5.84183         4.13359 
        1.02113         5.59612         3.98132 
        1.03692         5.45119         3.83724 
        1.05264         5.30977         3.70091 
        1.06832         5.15542         3.57138 
        1.08405         4.95262         3.44767 
        1.09979         4.83294         3.32971 
        1.11537          4.7281          3.2184 
        1.13105         4.58015         3.11149 
        1.14679         4.47521         3.00899 
        1.16256         4.31437         2.91088 
        1.17828         4.24463         2.81744 
        1.19395         4.08644          2.7284 
         1.2097         3.97959         2.64272 
        1.22537         3.86488         2.56112 
          1.241         3.78798         2.48318 
        1.25666         3.73357         2.40828 
        1.27241         3.59522          2.3361 
        1.28819          3.5071         2.26673 
        1.30392         3.44739         2.20037 
        1.31957         3.36292         2.13694 
        1.33529         3.27868         2.07577 
        1.35108         3.19401         2.01673 
        1.36674         3.14911          1.9604 
         1.3824          3.0236         1.90626 
        1.39811         2.97384         1.85397 
        1.41389         2.92309         1.80343 
        1.42964         2.85737         1.75485 
        1.44531         2.79378         1.70828 
        1.46101         2.72956          1.6633 
        1.47667         2.66346         1.62005 
        1.49229         2.63346         1.57845 
        1.50793         2.55488         1.53826 
        1.52367         2.51957         1.49919 
        1.53953          2.4477         1.46122 
        1.55526         2.40531         1.42485 
        1.57092         2.36014         1.38986 
        1.58662         2.30494         1.35595 
        1.60235         2.26738         1.32311 
        1.61809         2.22214         1.29132 
        1.63369           2.182         1.26086 
        1.64941         2.13592         1.23115 
        1.66519         2.10463         1.20229 
        1.68085         2.05309         1.17455 
        1.69652         2.01346         1.14767 
        1.71228         1.98379         1.12148 
        1.72806         1.94166         1.09607 
        1.74368         1.90383         1.07171 
        1.75933         1.87401         1.04802 
        1.77505         1.84845         1.02494 
        1.79081         1.80663         1.00251 
         1.8065         1.77777         0.98084 
        1.82218         1.75485        0.959825 
        1.83797         1.73228        0.939277 
        1.85367         1.69159         0.91944 
        1.86928          1.6679         0.90029 
        1.88497         1.63936        0.881578 
        1.90073          1.6051        0.863324 
        1.91647         1.57786          0.8456 
        1.93218         1.56394        0.828407 
        1.94787         1.54115        0.811714 
        1.96363         1.50558        0.795411 
        1.97935         1.48275        0.779586 
        1.99499         1.45232        0.764278 
        2.01064         1.43872        0.749356 
         2.0264         1.41763        0.734735 
        2.04216         1.39709        0.720509 
        2.05781         1.36966        0.706746 
        2.07353         1.35771        0.693291 
        2.08928         1.33749        0.680154 
        2.10499         1.31114         0.66739 
        2.12065         1.30267         0.65499 
        2.13633         1.27751        0.642891 
        2.15211           1.259        0.631018 
        2.16785         1.23992        0.619475 
        2.18349         1.22289        0.608292 
        2.19916          1.2012        0.597358 
        2.21489         1.18783        0.586655 
        2.23063         1.16621        0.576205 
         2.2463         1.15437        0.566055 
        2.26194         1.13491        0.556172 
        2.27765          1.1232        0.546473 
        2.29341          1.1074        0.536978 
        2.30914         1.08904        0.527726 
        2.32486         1.08352        0.518696 
        2.34061         1.06289         0.50986 
        2.35635         1.04924        0.501237 
        2.37203         1.03875        0.492841 
        2.38768          1.0253        0.484653 
        2.40339         1.01198         0.47662 
        2.41914        0.998616        0.468749 
        2.43483        0.987282        0.461083 
         2.4505        0.971346        0.453599 
        2.46622        0.962229        0.446254 
        2.48195        0.948776         0.43907 
        2.49759        0.938834        0.432081 
        2.51328        0.924149        0.425225 
        2.52906        0.915428        0.418473 
        2.54479        0.903848        0.411891 
        2.56049         0.89381        0.405463 
        2.57618        0.883956        0.399176 
        2.59189        0.874489        0.393012 
        2.60758        0.860119        0.386987 
        2.62325        0.851613        0.381094 
        2.63898        0.842861        0.375303 
        2.65468        0.833244        0.369643 
        2.67044          0.8261        0.364075 
        2.68618        0.811514        0.358633 
        2.70184        0.805375        0.353323 
        2.71755        0.794404        0.348107 
        2.73329        0.786265        0.342987 
        2.74897        0.777556        0.337985 
        2.76462        0.770454        0.333094 
        2.78034        0.761499        0.328279 
        2.79607        0.751416        0.323552 
        2.81179        0.745844        0.318924 
        2.82749        0.735376         0.31439 
        2.84321        0.730306        0.309939 
        2.85893        0.721941        0.305575 
        2.87462         0.71579        0.301301 
        2.89033        0.703378        0.297105 
        2.90605        0.698318        0.292984 
        2.92176        0.692399        0.288942 
        2.93747        0.684889        0.284979 
        2.95318        0.678197        0.281088 
        2.96891        0.671613        0.277267 
        2.98456        0.666225        0.273534 
        3.00023        0.658058        0.269864 
        3.01596        0.653254        0.266248 
        3.03164        0.649204        0.262709 
        3.04738          0.6385        0.259223 
         3.0631        0.632534        0.255802 
        3.07883        0.627966        0.252441 
        3.09456        0.623413         0.24914 
        3.11026        0.616307        0.245904 
        3.12596        0.609141        0.242724 
        3.14163        0.605632        0.239608 
        3.15734        0.598643        0.236538 
        3.17308        0.592752        0.233515 
        3.18879        0.588313        0.230552 
        3.20447        0.583681        0.227644 
         3.2202        0.577795        0.224777 
         3.2359        0.572574        0.221964 
        3.25157        0.568366        0.219206 
        3.26729         0.56121        0.216486 
        3.28304        0.559189        0.213806 
        3.29877        0.551203        0.211174 
        3.31446        0.547646        0.208592 
        3.33014        0.545364        0.206056 
        3.34585        0.540102        0.203557 
        3.36158        0.533167        0.201095 
        3.37727         0.53068        0.198682 
        3.39294        0.525508         0.19631 
        3.40867        0.520614        0.193968 
        3.42439        0.518268        0.191665 
        3.44008        0.513319        0.189404 
        3.45578        0.510334        0.187177 
        3.47153        0.505843         0.18498 
        3.48724         0.50103        0.182823 
        3.50292         0.49798        0.180704 
        3.51859        0.495016         0.17862 
        3.53431        0.489767        0.176562 
        3.55007        0.487485        0.174531 
        3.56577        0.483282         0.17254 
        3.58146         0.48118         0.17058 
        3.59719        0.474868        0.168646 
        3.61292        0.473693        0.166743 
        3.62859        0.468831        0.164876 
        3.64429        0.465589        0.163033 
        3.66003        0.462346        0.161213 
        3.67578        0.459254        0.159421 
        3.69146        0.455976        0.157662 
        3.70712        0.452064        0.155934 
        3.72284        0.449813        0.154224 
        3.73853        0.446209        0.152543 
        3.75422          0.4431        0.150886 
        3.76993        0.441094        0.149252 
        3.78564        0.437426        0.147643 
        3.80137        0.433118        0.146054 
        3.81707        0.431693        0.144492 
        3.83279        0.427791        0.142952 
        3.84853        0.425077        0.141431 
        3.86424        0.421998        0.139935 
        3.87992        0.420089        0.138463 
        3.89561        0.416633        0.137011 
        3.91134        0.413254        0.135578 
        3.92704        0.410373        0.134166 
        3.94273        0.407674        0.132775 
        3.95845        0.405215        0.131402 
        3.97418        0.401388        0.130048 
        3.98988         0.39904        0.128714 
        4.00554        0.397207        0.127402 
        4.02125        0.392842        0.126105 
        4.03698        0.389286        0.124824 
        4.05268         0.38604        0.123563 
        4.06839        0.381826        0.122319 
         4.0841        0.379786        0.121092 
        4.09983        0.375969         0.11988 
        4.11555         0.37431        0.118685 
        4.13124        0.369711        0.117509 
        4.14693        0.367322        0.116348 
        4.16266        0.363798          0.1152 
        4.17839         0.36171        0.114068 
        4.19408        0.359219        0.112953 
        4.20977        0.354873        0.111853 
        4.22551        0.353178        0.110765 
        4.24123        0.350578        0.109692 
        4.25691        0.348228        0.108636 
        4.27259        0.346264        0.107594 
        4.28831        0.343459        0.106563 
        4.30404        0.340589        0.105545 
        4.31974        0.338657        0.104542 
        4.33543        0.335918        0.103552 
        4.35116        0.334714        0.102573 
        4.36688         0.33231        0.101606 
        4.38255        0.330166        0.100656 
        4.39825        0.329054       0.0997157 
        4.41398        0.326456       0.0987853 
         4.4297        0.324069       0.0978676 
        4.44541        0.322548       0.0969617 
        4.46111        0.322115       0.0960678 
        4.47683        0.319419       0.0951845 
        4.49251        0.318246       0.0943139 
        4.50819        0.316961       0.0934544 
         4.5239        0.315369       0.0926043 
        4.53962        0.314673       0.0917635 
        4.55535        0.312206       0.0909327 
        4.57106        0.311828       0.0901133 
        4.58678        0.309471       0.0893038 
         4.6025        0.309089       0.0885039 
        4.61821        0.307044       0.0877138 
        4.63391        0.306741       0.0869343 
         4.6496        0.304553       0.0861645 
        4.66532        0.304437       0.0854028 
        4.68103         0.30294       0.0846505 
        4.69673        0.302364       0.0839079 
        4.71241        0.300922       0.0831749 
        4.72811        0.300797       0.0824494 
        4.74384        0.299382       0.0817315 
        4.75955        0.299421       0.0810231 
        4.77525        0.298267       0.0803235 
        4.79096        0.298573       0.0796312 
        4.80669        0.297866       0.0789467 
         4.8224        0.297054       0.0782709 
        4.83809        0.295658       0.0776036 
        4.85379        0.296482       0.0769437 
         4.8695        0.295915       0.0762908 
        4.88521        0.294752       0.0756458 
        4.90093        0.295028        0.075008 
        4.91663        0.294621        0.074378 
        4.93234        0.294159       0.0737546 
        4.94807        0.294213       0.0731378 
        4.96377        0.293892       0.0725292 
        4.97943        0.294471       0.0719287 
        4.99514        0.294731       0.0713334 
        5.01086        0.294161       0.0707444 
        5.02654        0.294967       0.0701634 
        5.04227        0.294406       0.0695872 
          5.058        0.294348       0.0690171 
        5.07371        0.294005       0.0684545 
        5.08942        0.295414        0.067898 
        5.10513        0.295292       0.0673475 
        5.12084        0.295703       0.0668029 
        5.13656        0.296198       0.0662643 
        5.15225        0.296965       0.0657325 
        5.16796        0.296964       0.0652057 
        5.18369         0.29861       0.0646841 
         5.1994        0.298815       0.0641691 
        5.21509        0.299647       0.0636601 
        5.23079        0.299432        0.063156 
        5.24649        0.300503       0.0626577 
        5.26217        0.301278        0.062165 
        5.27788        0.301271       0.0616769 
        5.29359         0.30245       0.0611939 
        5.30933        0.302907       0.0607154 
        5.32504        0.304635       0.0602427 
        5.34073        0.306076       0.0597755 
        5.35646        0.305923       0.0593123 
        5.37218        0.308379       0.0588539 
        5.38789        0.308618        0.058401 
        5.40357        0.310139       0.0579533 
        5.41929          0.3102       0.0575093 
        5.43502         0.31215       0.0570699 
         5.4507        0.313058       0.0566361 
        5.46639        0.314155       0.0562066 
        5.48212         0.31611       0.0557806 
        5.49786        0.316777       0.0553584 
        5.51353        0.318387       0.0549427 
        5.52921        0.320485       0.0545308 
        5.54495        0.321625       0.0541218 
        5.56066        0.321384       0.0537175 
        5.57637        0.323989       0.0533173 
        5.59207        0.326067       0.0529215 
        5.60778         0.32697       0.0525295 
        5.62346        0.328485        0.052142 
        5.63916        0.330961        0.051758 
        5.65487        0.331706       0.0513777 
         5.6706        0.334233       0.0510007 
        5.68633        0.335653       0.0506273 
        5.70203        0.337094       0.0502583 
        5.71773        0.339198       0.0498931 
        5.73344        0.340167       0.0495313 
        5.74916        0.342187       0.0491727 
        5.76486        0.345025       0.0488181 
        5.78054        0.346549       0.0484675 
        5.79626        0.346539       0.0481193 
          5.812            0.35       0.0477742 
         5.8277        0.350761       0.0474335 
        5.84339        0.353814        0.047096 
        5.85911        0.355155       0.0467612 
        5.87484        0.356421       0.0464296 
        5.89053        0.358714       0.0461018 
        5.90623        0.361528       0.0457771 
        5.92195        0.362332       0.0454549 
        5.93767        0.364253       0.0451359 
        5.95336         0.36589       0.0448205 
        5.96905        0.369395       0.0445082 
        5.98476        0.370114       0.0441985 
        6.00048        0.372014       0.0438915 
        6.01617        0.375371       0.0435878 
        6.03185         0.37688       0.0432874 
        6.04756        0.379017        0.042989 
        6.06331        0.380813       0.0426928 
        6.07903        0.383854          0.0424 
        6.09473        0.383783       0.0421101 
        6.11044        0.386417       0.0418227 
        6.12616        0.388783        0.041538 
        6.14186         0.38942       0.0412562 
        6.15755        0.392274        0.040977 
        6.17326        0.395216       0.0407002 
        6.18898        0.396334       0.0404257 
        6.20467        0.398777       0.0401543 
        6.22036        0.400291       0.0398853 
         6.2361        0.402788       0.0396181 
         6.2518        0.405492       0.0393537 
        6.26748        0.405916       0.0390923 
        6.28319        0.408648       0.0388325 
        6.29893        0.411481       0.0385748 
        6.31463        0.412036       0.0383199 
        6.33033        0.413903       0.0380674 
        6.34604        0.414427       0.0378169 
        6.36177        0.419251       0.0375684 
        6.37747        0.421037       0.0373226 
