# k  (h/Mpc)    Pcb(k)  (Mpc/h)^3    Pcb_linear(k) (Mpc/h)^3   ShotnoiseSubtracted = true
      0.0200456         10716.2         10887.7 
      0.0350414          7048.6         7226.12 
      0.0492313         4859.51         4866.99 
      0.0637834         4019.01            3901 
      0.0800726         3172.86         3101.44 
       0.096163         2160.82         2185.66 
       0.111083         1644.38         1650.27 
       0.126058         1482.71          1434.6 
       0.142273         1302.88         1244.04 
       0.158546         1073.06         975.318 
        0.17375         832.677         783.345 
       0.188953          788.19           693.7 
       0.204907         743.621         627.075 
       0.220756         629.008         534.639 
        0.23588         544.303         450.786 
         0.2514         468.939         398.749 
       0.267535         451.866         364.058 
       0.283568         409.291         324.801 
       0.299022         377.943         284.922 
       0.314451         348.468         254.807 
       0.330372         320.334         233.304 
       0.346141         287.173         213.481 
       0.361624         275.616         193.054 
       0.377134         254.821         175.102 
       0.392932         236.889          160.93 
       0.408854         226.162         148.693 
       0.424564         215.087         136.904 
       0.440253         205.391         125.907 
       0.455999         192.053         116.504 
       0.471626         178.367         108.483 
        0.48727         171.427         101.053 
       0.502856         164.973         94.0741 
       0.518488         161.592         87.7576 
       0.534347         152.789         82.0966 
       0.550082         141.879         76.9867 
       0.565732         137.524         72.2543 
       0.581496         130.965         67.8488 
       0.597222         126.837         63.8574 
       0.612804          121.62         60.2445 
       0.628434         117.625         56.8846 
       0.644267         113.439         53.7226 
       0.660051         111.617         50.8063 
       0.675724         108.019         48.1362 
       0.691403          104.46         45.6611 
       0.707174         100.112         43.3439 
       0.722871         98.7067         41.1941 
        0.73838         96.4695         39.2107 
       0.754018          92.439         37.3411 
       0.769845         90.1086         35.5714 
        0.78569              88         33.9133 
       0.801365         85.1702         32.3759 
       0.817031         82.0148          30.934 
       0.832809          81.028         29.5702 
       0.848511         78.1002         28.2942 
       0.864097         76.3634         27.1021 
       0.879701         74.8023         25.9773 
       0.895507         73.2315         24.9028 
       0.911279         71.6503         23.8912 
        0.92691         70.3666          22.944 
       0.942635         68.0886         22.0427 
       0.958396         67.7927         21.1877 
       0.974128          65.822         20.3794 
       0.989692         64.3177         19.6211 
        1.00528         62.7499         18.9001 
        1.02113         61.9605         18.2038 
        1.03692         59.8124          17.545 
        1.05264         59.7358         16.9217 
        1.06832         57.7779         16.3295 
        1.08405         56.9621         15.7638 
        1.09979         56.6695         15.2244 
        1.11537         54.5635         14.7155 
        1.13105          54.755         14.2267 
        1.14679         53.4763          13.758 
        1.16256         52.5507         13.3094 
        1.17828         51.4359         12.8822 
        1.19395         50.5764         12.4751 
         1.2097         49.4753         12.0833 
        1.22537         49.5706         11.7102 
          1.241         48.2563         11.3539 
        1.25666         47.1754         11.0114 
        1.27241         46.5497         10.6813 
        1.28819         45.7143         10.3642 
        1.30392         45.1273         10.0608 
        1.31957         44.6177         9.77075 
        1.33529         43.6002         9.49105 
        1.35108         43.3633         9.22112 
        1.36674         42.8636         8.96356 
         1.3824         41.7486         8.71601 
        1.39811          41.355         8.47693 
        1.41389         40.8407         8.24585 
        1.42964         40.2341         8.02371 
        1.44531         39.4481          7.8108 
        1.46101         38.8347          7.6051 
        1.47667         38.7096         7.40738 
        1.49229         38.1233         7.21717 
        1.50793         37.6831         7.03339 
        1.52367         36.8636         6.85477 
        1.53953         36.5993         6.68113 
        1.55526         36.1626         6.51484 
        1.57092         35.7472         6.35486 
        1.58662         35.2043         6.19984 
        1.60235         34.8102         6.04965 
        1.61809         34.2957         5.90433 
        1.63369         33.7405         5.76504 
        1.64941         33.4449         5.62921 
        1.66519         32.7619         5.49724 
        1.68085         32.6285         5.37041 
        1.69652         32.0762         5.24752 
        1.71228         31.8369         5.12774 
        1.72806         31.4564         5.01159 
        1.74368         30.8952         4.90017 
        1.75933         30.6129         4.79189 
        1.77505         30.3498         4.68635 
        1.79081         29.8981         4.58378 
         1.8065          29.632          4.4847 
        1.82218         29.2594         4.38861 
        1.83797         28.7842         4.29466 
        1.85367          28.472         4.20396 
        1.86928         28.1176          4.1164 
        1.88497         28.0443         4.03084 
        1.90073         27.5752         3.94738 
        1.91647         27.2545         3.86634 
        1.93218         27.0672         3.78773 
        1.94787         26.6588          3.7114 
        1.96363         26.4451         3.63686 
        1.97935         26.0131         3.56451 
        1.99499         25.8547         3.49451 
        2.01064         25.5765         3.42628 
         2.0264         25.1602         3.35943 
        2.04216         24.9796         3.29439 
        2.05781          24.617         3.23146 
        2.07353         24.3887         3.16994 
        2.08928         24.3264         3.10987 
        2.10499         23.9306         3.05151 
        2.12065         23.5897         2.99481 
        2.13633         23.4643          2.9395 
        2.15211         23.1885         2.88521 
        2.16785         22.8376         2.83243 
        2.18349         22.6665          2.7813 
        2.19916         22.5119          2.7313 
        2.21489         22.1828         2.68237 
        2.23063         21.9277         2.63459 
         2.2463         21.7146         2.58818 
        2.26194         21.5609         2.54299 
        2.27765         21.3537         2.49864 
        2.29341         21.1319         2.45523 
        2.30914         20.9438         2.41293 
        2.32486         20.6574         2.37164 
        2.34061          20.512         2.33124 
        2.35635         20.2837         2.29181 
        2.37203         20.1767         2.25342 
        2.38768         19.8629         2.21598 
        2.40339          19.742         2.17925 
        2.41914         19.5313         2.14327 
        2.43483         19.3263         2.10821 
         2.4505         19.1686         2.07399 
        2.46622         18.9554         2.04041 
        2.48195         18.7724         2.00756 
        2.49759         18.5945         1.97561 
        2.51328         18.3324         1.94426 
        2.52906         18.2814         1.91338 
        2.54479          18.034         1.88329 
        2.56049         17.8539          1.8539 
        2.57618         17.6637         1.82516 
        2.59189         17.5691         1.79697 
        2.60758         17.4028         1.76942 
        2.62325         17.1925         1.74248 
        2.63898         17.0945           1.716 
        2.65468         16.8983         1.69012 
        2.67044         16.7437         1.66466 
        2.68618         16.5431         1.63978 
        2.70184         16.4535          1.6155 
        2.71755         16.3349         1.59165 
        2.73329         16.1193         1.56824 
        2.74897         15.9498         1.54537 
        2.76462         15.8291         1.52301 
        2.78034          15.727         1.50099 
        2.79607         15.5934         1.47938 
        2.81179         15.3808         1.45822 
        2.82749          15.288         1.43749 
        2.84321         15.1684         1.41714 
        2.85893         14.9306         1.39718 
        2.87462         14.8674         1.37764 
        2.89033         14.7962         1.35845 
        2.90605         14.6191         1.33961 
        2.92176         14.4361         1.32113 
        2.93747         14.3479         1.30301 
        2.95318         14.2103         1.28522 
        2.96891         14.1038         1.26775 
        2.98456         14.0036         1.25068 
        3.00023         13.7644          1.2339 
        3.01596          13.761         1.21737 
        3.03164         13.6157         1.20119 
        3.04738         13.4699         1.18525 
         3.0631         13.3608          1.1696 
        3.07883         13.2238         1.15424 
        3.09456         13.0836         1.13915 
        3.11026         12.9841         1.12435 
        3.12596         12.8843         1.10981 
        3.14163         12.7816         1.09556 
        3.15734         12.6552         1.08153 
        3.17308         12.5391          1.0677 
        3.18879         12.4552         1.05415 
        3.20447         12.3641         1.04086 
         3.2202         12.2146         1.02775 
         3.2359         12.1008         1.01489 
        3.25157         12.0007         1.00228 
        3.26729         11.9366        0.989838 
        3.28304         11.8112        0.977585 
        3.29877         11.6761        0.965553 
        3.31446         11.6029        0.953749 
        3.33014         11.4907         0.94215 
        3.34585         11.3932        0.930725 
        3.36158         11.2911         0.91947 
        3.37727         11.1898        0.908435 
        3.39294         11.0955         0.89759 
        3.40867          10.973        0.886881 
        3.42439         10.9098        0.876351 
        3.44008          10.802        0.866011 
        3.45578         10.7447        0.855829 
        3.47153         10.6721        0.845787 
        3.48724         10.5434        0.835922 
        3.50292         10.5066        0.826236 
        3.51859         10.3785        0.816706 
        3.53431         10.3144        0.807297 
        3.55007         10.2293        0.798011 
        3.56577         10.1352        0.788906 
        3.58146         10.0836        0.779946 
        3.59719         9.95939        0.771103 
        3.61292         9.88237          0.7624 
        3.62859         9.80172        0.753862 
        3.64429         9.73291        0.745437 
        3.66003         9.65225        0.737114 
        3.67578         9.60225         0.72892 
        3.69146         9.47947        0.720881 
        3.70712         9.40639        0.712976 
        3.72284          9.3579         0.70516 
        3.73853         9.23684        0.697473 
        3.75422         9.16506        0.689897 
        3.76993         9.11034        0.682426 
        3.78564         9.02289        0.675067 
        3.80137         8.96135        0.667804 
        3.81707         8.92447        0.660663 
        3.83279         8.79519        0.653618 
        3.84853         8.76075        0.646665 
        3.86424         8.63668        0.639825 
        3.87992         8.60264        0.633093 
        3.89561         8.52727        0.626457 
        3.91134         8.44787        0.619902 
        3.92704         8.37675        0.613447 
        3.94273         8.30514         0.60709 
        3.95845         8.25459         0.60081 
        3.97418         8.20899        0.594618 
        3.98988         8.12809        0.588519 
        4.00554         8.08089        0.582523 
        4.02125         8.00827        0.576592 
        4.03698         7.92243        0.570733 
        4.05268          7.8761        0.564969 
        4.06839           7.824        0.559279 
         4.0841         7.71389        0.553669 
        4.09983         7.67848        0.548127 
        4.11555         7.63258        0.542662 
        4.13124         7.56407        0.537286 
        4.14693         7.50221        0.531978 
        4.16266         7.44419        0.526729 
        4.17839         7.39238        0.521553 
        4.19408         7.33434        0.516457 
        4.20977         7.26312        0.511427 
        4.22551         7.22607        0.506451 
        4.24123         7.15074        0.501546 
        4.25691         7.12587        0.496719 
        4.27259         7.04243        0.491953 
        4.28831          6.9894         0.48724 
        4.30404         6.93173        0.482583 
        4.31974         6.89479        0.477997 
        4.33543          6.8425        0.473472 
        4.35116         6.78213        0.468994 
        4.36688         6.72592        0.464576 
        4.38255         6.66061         0.46023 
        4.39825         6.62391         0.45593 
        4.41398         6.56848        0.451676 
         4.4297         6.52876        0.447481 
        4.44541         6.47102        0.443339 
        4.46111         6.43165        0.439252 
        4.47683         6.38214        0.435213 
        4.49251         6.34039        0.431232 
        4.50819         6.26537        0.427302 
         4.5239         6.23011        0.423415 
        4.53962         6.19387        0.419571 
        4.55535         6.12362        0.415772 
        4.57106         6.09209        0.412026 
        4.58678          6.0566        0.408324 
         4.6025         5.99843        0.404667 
        4.61821         5.94766        0.401054 
        4.63391         5.92126         0.39749 
         4.6496         5.87865        0.393971 
        4.66532         5.82237        0.390488 
        4.68103         5.79089        0.387048 
        4.69673         5.74181        0.383653 
        4.71241         5.70667        0.380301 
        4.72811         5.63624        0.376984 
        4.74384         5.61923        0.373701 
        4.75955         5.56748        0.370463 
        4.77525         5.53466        0.367264 
        4.79096          5.5011        0.364098 
        4.80669         5.43768        0.360968 
         4.8224         5.40351        0.357878 
        4.83809         5.37382        0.354828 
        4.85379          5.3309         0.35181 
         4.8695         5.29647        0.348825 
        4.88521         5.25809        0.345876 
        4.90093         5.20465        0.342959 
        4.91663         5.17489        0.340079 
        4.93234         5.12913        0.337229 
        4.94807         5.11221        0.334409 
        4.96377         5.06832        0.331626 
        4.97943         5.04266         0.32888 
        4.99514         4.98588        0.326158 
        5.01086         4.95379        0.323465 
        5.02654         4.92822        0.320809 
        5.04227         4.89429        0.318174 
          5.058         4.86355        0.315567 
        5.07371         4.81888        0.312995 
        5.08942         4.78796         0.31045 
        5.10513         4.75517        0.307934 
        5.12084         4.72045        0.305443 
        5.13656         4.69574        0.302981 
        5.15225         4.65208        0.300549 
        5.16796         4.62857         0.29814 
        5.18369         4.59512        0.295755 
         5.1994         4.55403        0.293401 
        5.21509         4.54084        0.291073 
        5.23079         4.50243        0.288768 
        5.24649         4.47927         0.28649 
        5.26217         4.44496        0.284237 
        5.27788         4.41566        0.282006 
        5.29359         4.38692        0.279797 
        5.30933         4.35583        0.277609 
        5.32504          4.3312        0.275448 
        5.34073         4.29078        0.273312 
        5.35646         4.26081        0.271194 
        5.37218         4.23797        0.269098 
        5.38789         4.21586        0.267027 
        5.40357         4.18117         0.26498 
        5.41929         4.15651         0.26295 
        5.43502         4.12126        0.260941 
         5.4507         4.08887        0.258957 
        5.46639         4.07004        0.256994 
        5.48212         4.03828        0.255046 
        5.49786         4.02096        0.253116 
        5.51353         3.98094        0.251215 
        5.52921         3.96439        0.249331 
        5.54495         3.93326        0.247462 
        5.56066         3.90932        0.245613 
        5.57637         3.89066        0.243783 
        5.59207         3.86517        0.241973 
        5.60778         3.83608        0.240181 
        5.62346         3.80991        0.238409 
        5.63916         3.78617        0.236654 
        5.65487         3.76122        0.234914 
         5.6706         3.74343        0.233191 
        5.68633         3.71193        0.231483 
        5.70203           3.692        0.229796 
        5.71773         3.67339        0.228127 
        5.73344         3.64203        0.226472 
        5.74916         3.62451        0.224833 
        5.76486         3.59832        0.223211 
        5.78054         3.58149        0.221608 
        5.79626         3.55044        0.220016 
          5.812         3.53714        0.218438 
         5.8277         3.51064         0.21688 
        5.84339         3.48791        0.215337 
        5.85911         3.47374        0.213806 
        5.87484         3.45041         0.21229 
        5.89053         3.42878        0.210792 
        5.90623         3.40842        0.209307 
        5.92195         3.38856        0.207834 
        5.93767         3.36248        0.206375 
        5.95336         3.34807        0.204933 
        5.96905         3.32219        0.203505 
        5.98476         3.29555        0.202089 
        6.00048         3.28535        0.200685 
        6.01617         3.26453        0.199297 
        6.03185         3.23595        0.197923 
        6.04756          3.2169        0.196559 
        6.06331         3.20144        0.195204 
        6.07903         3.18199        0.193866 
        6.09473         3.16487         0.19254 
        6.11044         3.14375        0.191226 
        6.12616          3.1256        0.189924 
        6.14186         3.11446        0.188636 
        6.15755         3.08754        0.187359 
        6.17326         3.07619        0.186094 
        6.18898         3.05853        0.184839 
        6.20467          3.0428        0.183598 
        6.22036         3.01803        0.182368 
         6.2361          2.9999        0.181146 
         6.2518         2.98803        0.179937 
        6.26748         2.96708        0.178742 
        6.28319         2.94537        0.177554 
        6.29893         2.92941        0.176376 
        6.31463         2.91976         0.17521 
        6.33033         2.90227        0.174056 
        6.34604         2.88085         0.17291 
        6.36177         2.86341        0.171774 
        6.37747         2.85151        0.170651 
