# k  (h/Mpc)    Pcb(k)  (Mpc/h)^3    Pcb_linear(k) (Mpc/h)^3   ShotnoiseSubtracted = true
      0.0200456         899.099         910.109 
      0.0350414         602.918         604.036 
      0.0492313         409.149         406.835 
      0.0637834         329.979         326.087 
      0.0800726         260.658         259.252 
       0.096163         182.328         182.701 
       0.111083         137.682         137.948 
       0.126058          120.68         119.919 
       0.142273         104.681         103.991 
       0.158546         82.5638         81.5276 
        0.17375         65.6213         65.4803 
       0.188953          58.701         57.9869 
       0.204907         54.0602         52.4177 
       0.220756         45.4808         44.6909 
        0.23588         38.5083         37.6815 
         0.2514         33.8058         33.3317 
       0.267535         30.9625         30.4319 
       0.283568         27.6968         27.1503 
       0.299022         24.5613         23.8169 
       0.314451         21.6061         21.2995 
       0.330372         19.9492          19.502 
       0.346141         18.2168          17.845 
       0.361624         16.5991         16.1375 
       0.377134         15.2427         14.6369 
       0.392932         13.5579         13.4522 
       0.408854         12.9021         12.4294 
       0.424564         11.8511         11.4439 
       0.440253         10.8901         10.5246 
       0.455999         10.1572         9.73864 
       0.471626         9.51151         9.06814 
        0.48727          8.8374         8.44707 
       0.502856         8.19169         7.86372 
       0.518488         7.76701         7.33572 
       0.534347          7.3666         6.86252 
       0.550082         6.72197         6.43538 
       0.565732         6.19105         6.03979 
       0.581496         6.00137         5.67153 
       0.597222         5.70305         5.33789 
       0.612804         5.31096         5.03588 
       0.628434         5.09181         4.75502 
       0.644267         4.81424         4.49071 
       0.660051         4.52141         4.24693 
       0.675724         4.28739         4.02374 
       0.691403         4.11637         3.81685 
       0.707174         3.88322         3.62315 
       0.722871         3.69629         3.44344 
        0.73838         3.53429         3.27765 
       0.754018         3.41123         3.12137 
       0.769845         3.21836         2.97344 
        0.78569         3.08966         2.83484 
       0.801365         2.94075         2.70633 
       0.817031         2.82771          2.5858 
       0.832809         2.71115         2.47179 
       0.848511         2.56314         2.36514 
       0.864097         2.45402         2.26548 
       0.879701         2.36264         2.17146 
       0.895507         2.25852         2.08165 
       0.911279         2.20891         1.99708 
        0.92691         2.11514          1.9179 
       0.942635         2.02025         1.84256 
       0.958396         1.93798         1.77109 
       0.974128         1.87371         1.70353 
       0.989692         1.82257         1.64014 
        1.00528          1.7391         1.57987 
        1.02113          1.6692         1.52167 
        1.03692         1.63153          1.4666 
        1.05264         1.56804          1.4145 
        1.06832         1.52342         1.36499 
        1.08405         1.44595         1.31771 
        1.09979          1.4119         1.27262 
        1.11537         1.36817         1.23008 
        1.13105          1.3287         1.18922 
        1.14679         1.29045         1.15004 
        1.16256         1.23649         1.11255 
        1.17828         1.20369         1.07683 
        1.19395         1.16849          1.0428 
         1.2097         1.11556         1.01006 
        1.22537         1.09036        0.978866 
          1.241         1.06241        0.949079 
        1.25666         1.04785         0.92045 
        1.27241        0.994402        0.892862 
        1.28819        0.971585         0.86635 
        1.30392        0.949402        0.840986 
        1.31957        0.924035        0.816744 
        1.33529        0.892126        0.793364 
        1.35108        0.868935          0.7708 
        1.36674        0.836935         0.74927 
         1.3824         0.82026        0.728577 
        1.39811        0.796641        0.708592 
        1.41389         0.78004        0.689276 
        1.42964        0.760465        0.670708 
        1.44531        0.737094         0.65291 
        1.46101        0.720483        0.635716 
        1.47667        0.693116        0.619188 
        1.49229        0.686244        0.603289 
        1.50793        0.664055        0.587926 
        1.52367        0.650057        0.572996 
        1.53953        0.628869         0.55848 
        1.55526        0.616029         0.54458 
        1.57092         0.59995        0.531208 
        1.58662        0.588209        0.518249 
        1.60235         0.57245        0.505695 
        1.61809        0.555966        0.493547 
        1.63369        0.552119        0.481904 
        1.64941        0.532872         0.47055 
        1.66519        0.521461        0.459519 
        1.68085        0.506146        0.448917 
        1.69652         0.49613        0.438644 
        1.71228        0.487938        0.428632 
        1.72806        0.472204        0.418922 
        1.74368         0.46646        0.409609 
        1.75933        0.453183        0.400557 
        1.77505        0.444441        0.391735 
        1.79081        0.435041        0.383162 
         1.8065        0.422145        0.374879 
        1.82218        0.416315        0.366847 
        1.83797        0.407217        0.358994 
        1.85367        0.402321        0.351412 
        1.86928        0.391731        0.344093 
        1.88497        0.381785        0.336941 
        1.90073        0.372556        0.329965 
        1.91647        0.368604         0.32319 
        1.93218        0.359358        0.316619 
        1.94787        0.352185        0.310239 
        1.96363        0.343868        0.304008 
        1.97935        0.337399         0.29796 
        1.99499        0.331015        0.292109 
        2.01064        0.323768        0.286406 
         2.0264        0.317544        0.280817 
        2.04216        0.312781         0.27538 
        2.05781        0.305631         0.27012 
        2.07353        0.298955        0.264977 
        2.08928        0.292051        0.259957 
        2.10499        0.288731        0.255078 
        2.12065        0.284303        0.250339 
        2.13633        0.278733        0.245715 
        2.15211        0.272887        0.241177 
        2.16785        0.266599        0.236765 
        2.18349        0.262202         0.23249 
        2.19916        0.257993        0.228312 
        2.21489        0.252487        0.224221 
        2.23063        0.248271        0.220227 
         2.2463        0.244718        0.216347 
        2.26194        0.237398         0.21257 
        2.27765        0.234481        0.208863 
        2.29341        0.231336        0.205234 
        2.30914        0.228106        0.201698 
        2.32486        0.223375        0.198247 
        2.34061         0.21936         0.19487 
        2.35635        0.214038        0.191574 
        2.37203        0.211079        0.188365 
        2.38768        0.207561        0.185236 
        2.40339        0.204873        0.182165 
        2.41914        0.201599        0.179157 
        2.43483        0.197731        0.176227 
         2.4505        0.193506        0.173366 
        2.46622        0.190947        0.170559 
        2.48195        0.188377        0.167813 
        2.49759        0.184973        0.165142 
        2.51328        0.181334        0.162522 
        2.52906        0.178918        0.159941 
        2.54479        0.175427        0.157426 
        2.56049        0.172538        0.154969 
        2.57618        0.169947        0.152566 
        2.59189        0.167802         0.15021 
        2.60758        0.165423        0.147907 
        2.62325        0.162325        0.145655 
        2.63898        0.159881        0.143442 
        2.65468        0.157006        0.141278 
        2.67044        0.154791         0.13915 
        2.68618        0.152093         0.13707 
        2.70184        0.149883        0.135041 
        2.71755        0.147182        0.133047 
        2.73329         0.14538         0.13109 
        2.74897        0.143421        0.129179 
        2.76462        0.141189        0.127309 
        2.78034        0.138991        0.125469 
        2.79607        0.136857        0.123663 
        2.81179        0.135425        0.121893 
        2.82749        0.132706        0.120161 
        2.84321        0.131249         0.11846 
        2.85893        0.129241        0.116791 
        2.87462        0.126909        0.115158 
        2.89033        0.125403        0.113554 
        2.90605         0.12367        0.111979 
        2.92176         0.12192        0.110434 
        2.93747        0.120055         0.10892 
        2.95318        0.118642        0.107432 
        2.96891        0.117018        0.105972 
        2.98456         0.11518        0.104545 
        3.00023        0.114004        0.103143 
        3.01596        0.112174        0.101761 
        3.03164        0.111043        0.100408 
        3.04738        0.108778       0.0990758 
         3.0631        0.107853        0.097768 
        3.07883        0.105926       0.0964835 
        3.09456        0.104856        0.095222 
        3.11026        0.103777       0.0939849 
        3.12596        0.101874       0.0927697 
        3.14163        0.100747       0.0915786 
        3.15734        0.099897       0.0904055 
        3.17308       0.0983712       0.0892499 
        3.18879       0.0973827       0.0881175 
        3.20447       0.0954766       0.0870062 
         3.2202       0.0948186       0.0859104 
         3.2359       0.0936469       0.0848353 
        3.25157       0.0924148        0.083781 
        3.26729       0.0911004       0.0827413 
        3.28304       0.0905027       0.0817171 
        3.29877       0.0892296       0.0807113 
        3.31446       0.0881629       0.0797245 
        3.33014       0.0872754        0.078755 
        3.34585       0.0868247       0.0777999 
        3.36158       0.0854105       0.0768592 
        3.37727       0.0846458       0.0759367 
        3.39294       0.0833689       0.0750302 
        3.40867       0.0824585        0.074135 
        3.42439        0.081745       0.0732548 
        3.44008       0.0804879       0.0723905 
        3.45578       0.0801215       0.0715394 
        3.47153       0.0789619       0.0706999 
        3.48724       0.0783572       0.0698753 
        3.50292       0.0775123       0.0690657 
        3.51859       0.0765775       0.0682691 
        3.53431        0.075603       0.0674825 
        3.55007       0.0751361       0.0667063 
        3.56577       0.0741183       0.0659452 
        3.58146       0.0735761       0.0651963 
        3.59719       0.0729202       0.0644571 
        3.61292       0.0723515       0.0637295 
        3.62859       0.0715234       0.0630158 
        3.64429       0.0707625       0.0623116 
        3.66003       0.0703101       0.0616159 
        3.67578       0.0694993        0.060931 
        3.69146       0.0687654        0.060259 
        3.70712       0.0684028       0.0595982 
        3.72284       0.0677398       0.0589448 
        3.73853         0.06723       0.0583023 
        3.75422       0.0667026        0.057669 
        3.76993       0.0659197       0.0570445 
        3.78564        0.065246       0.0564294 
        3.80137       0.0648665       0.0558222 
        3.81707       0.0642829       0.0552253 
        3.83279       0.0638471       0.0546364 
        3.84853       0.0630527       0.0540552 
        3.86424       0.0625585       0.0534834 
        3.87992       0.0620921       0.0529207 
        3.89561       0.0614912        0.052366 
        3.91134       0.0612455       0.0518181 
        3.92704       0.0605026       0.0512785 
        3.94273        0.059779       0.0507471 
        3.95845       0.0592028       0.0502222 
        3.97418       0.0590736       0.0497045 
        3.98988       0.0582304       0.0491948 
        4.00554       0.0578414       0.0486935 
        4.02125       0.0571226       0.0481977 
        4.03698       0.0563308        0.047708 
        4.05268       0.0557006       0.0472262 
        4.06839       0.0549281       0.0467505 
         4.0841       0.0541294       0.0462816 
        4.09983        0.053469       0.0458183 
        4.11555       0.0526315       0.0453615 
        4.13124       0.0518291       0.0449122 
        4.14693       0.0514651       0.0444684 
        4.16266       0.0507819       0.0440296 
        4.17839        0.050165        0.043597 
        4.19408       0.0494825       0.0431711 
        4.20977       0.0490368       0.0427506 
        4.22551       0.0485292       0.0423346 
        4.24123       0.0478741       0.0419246 
        4.25691       0.0474182       0.0415211 
        4.27259       0.0469236       0.0411227 
        4.28831       0.0464697       0.0407287 
        4.30404        0.046029       0.0403395 
        4.31974       0.0457515       0.0399561 
        4.33543       0.0453058       0.0395779 
        4.35116       0.0448831       0.0392036 
        4.36688       0.0444507       0.0388342 
        4.38255       0.0440304        0.038471 
        4.39825       0.0439286       0.0381116 
        4.41398       0.0436242        0.037756 
         4.4297        0.043318       0.0374052 
        4.44541       0.0431243        0.037059 
        4.46111       0.0428365       0.0367174 
        4.47683       0.0425279       0.0363797 
        4.49251       0.0423394        0.036047 
        4.50819       0.0421019       0.0357185 
         4.5239       0.0419872       0.0353936 
        4.53962       0.0418524       0.0350722 
        4.55535       0.0417793       0.0347547 
        4.57106       0.0415306       0.0344415 
        4.58678       0.0414547       0.0341321 
         4.6025       0.0415413       0.0338264 
        4.61821       0.0415033       0.0335244 
        4.63391       0.0414242       0.0332265 
         4.6496       0.0412873       0.0329323 
        4.66532         0.04121       0.0326411 
        4.68103       0.0413793       0.0323536 
        4.69673       0.0412038       0.0320698 
        4.71241        0.041372       0.0317896 
        4.72811       0.0413347       0.0315123 
        4.74384       0.0414268        0.031238 
        4.75955       0.0417336       0.0309672 
        4.77525       0.0418267       0.0306998 
        4.79096       0.0417548       0.0304352 
        4.80669       0.0418824       0.0301736 
         4.8224       0.0422363       0.0299153 
        4.83809       0.0422858       0.0296603 
        4.85379       0.0424046       0.0294081 
         4.8695       0.0426585       0.0291585 
        4.88521       0.0429897        0.028912 
        4.90093       0.0431444       0.0286682 
        4.91663       0.0432973       0.0284275 
        4.93234        0.043593       0.0281892 
        4.94807       0.0440605       0.0279535 
        4.96377       0.0444481       0.0277208 
        4.97943        0.044867       0.0274913 
        4.99514       0.0449618       0.0272638 
        5.01086       0.0455173       0.0270387 
        5.02654       0.0458192       0.0268166 
        5.04227        0.046309       0.0265964 
          5.058       0.0468169       0.0263785 
        5.07371       0.0472902       0.0261635 
        5.08942       0.0476389       0.0259508 
        5.10513       0.0481783       0.0257404 
        5.12084       0.0485366       0.0255322 
        5.13656       0.0491106       0.0253264 
        5.15225       0.0499968       0.0251231 
        5.16796       0.0505779       0.0249218 
        5.18369       0.0510074       0.0247224 
         5.1994       0.0519428       0.0245256 
        5.21509       0.0523863        0.024331 
        5.23079       0.0532272       0.0241384 
        5.24649       0.0538885       0.0239479 
        5.26217       0.0549424       0.0237596 
        5.27788       0.0554631       0.0235731 
        5.29359       0.0563091       0.0233885 
        5.30933       0.0570923       0.0232056 
        5.32504       0.0581417       0.0230249 
        5.34073       0.0587576       0.0228463 
        5.35646       0.0598653       0.0226693 
        5.37218       0.0608683       0.0224941 
        5.38789       0.0617655        0.022321 
        5.40357       0.0626621       0.0221499 
        5.41929       0.0638945       0.0219802 
        5.43502         0.06499       0.0218123 
         5.4507       0.0661397       0.0216464 
        5.46639       0.0672846       0.0214823 
        5.48212       0.0684012       0.0213195 
        5.49786       0.0697189       0.0211581 
        5.51353       0.0709707       0.0209992 
        5.52921       0.0719846       0.0208418 
        5.54495       0.0736532       0.0206855 
        5.56066       0.0749564        0.020531 
        5.57637       0.0764812        0.020378 
        5.59207       0.0783029       0.0202267 
        5.60778       0.0796219       0.0200769 
        5.62346       0.0815548       0.0199288 
        5.63916       0.0826391        0.019782 
        5.65487        0.084334       0.0196367 
         5.6706       0.0862716       0.0194926 
        5.68633       0.0874372       0.0193499 
        5.70203       0.0893038       0.0192089 
        5.71773       0.0915498       0.0190693 
        5.73344       0.0930773        0.018931 
        5.74916        0.095762       0.0187939 
        5.76486       0.0972748       0.0186584 
        5.78054       0.0993609       0.0185244 
        5.79626        0.101049       0.0183913 
          5.812         0.10329       0.0182594 
         5.8277        0.105605       0.0181292 
        5.84339        0.107655       0.0180002 
        5.85911         0.11042       0.0178722 
        5.87484        0.112508       0.0177455 
        5.89053        0.115792       0.0176202 
        5.90623        0.118272       0.0174961 
        5.92195        0.120046        0.017373 
        5.93767        0.122686       0.0172511 
        5.95336        0.126428       0.0171305 
        5.96905        0.128097       0.0170112 
        5.98476        0.130722       0.0168928 
        6.00048        0.133745       0.0167754 
        6.01617        0.137094       0.0166594 
        6.03185        0.140406       0.0165445 
        6.04756        0.143462       0.0164305 
        6.06331        0.145732       0.0163173 
        6.07903        0.149745       0.0162054 
        6.09473        0.152837       0.0160946 
        6.11044         0.15619       0.0159847 
        6.12616        0.159021       0.0158759 
        6.14186        0.162359       0.0157682 
        6.15755        0.165472       0.0156615 
        6.17326         0.17073       0.0155557 
        6.18898        0.173514       0.0154508 
        6.20467        0.178011       0.0153471 
        6.22036        0.180331       0.0152443 
         6.2361        0.184748       0.0151421 
         6.2518        0.189556       0.0150411 
        6.26748        0.191752       0.0149412 
        6.28319        0.197683       0.0148419 
        6.29893        0.202634       0.0147434 
        6.31463        0.207027        0.014646 
        6.33033        0.211025       0.0145494 
        6.34604        0.213487       0.0144537 
        6.36177        0.218858       0.0143587 
        6.37747        0.223788       0.0142648 
