# k  (h/Mpc)    Pcb(k)  (Mpc/h)^3    Pcb_linear(k) (Mpc/h)^3   ShotnoiseSubtracted = true
      0.0200456         19042.4         19402.1 
      0.0350414         12407.4         12877.1 
      0.0492313         8600.61          8673.1 
      0.0637834         7200.42         6951.68 
      0.0800726         5673.71         5526.85 
       0.096163         3841.36          3894.9 
       0.111083         2955.25         2940.83 
       0.126058         2672.51         2556.49 
       0.142273         2350.84         2216.92 
       0.158546         2002.68         1738.04 
        0.17375         1554.77         1395.94 
       0.188953         1497.35         1236.19 
       0.204907         1410.24         1117.46 
       0.220756         1209.58          952.74 
        0.23588         1065.46         803.311 
         0.2514         914.333          710.58 
       0.267535          901.14          648.76 
       0.283568         815.444         578.803 
       0.299022         765.721         507.739 
       0.314451         722.876         454.073 
       0.330372          662.13         415.753 
       0.346141         611.235         380.428 
       0.361624         588.047         344.027 
       0.377134         542.803         312.036 
       0.392932         517.734         286.781 
       0.408854          501.03         264.975 
       0.424564         465.723         243.966 
       0.440253         457.219         224.369 
       0.455999         430.566         207.613 
       0.471626         410.705         193.319 
        0.48727         392.061         180.078 
       0.502856          380.46         167.642 
       0.518488         375.932         156.386 
       0.534347         350.985         146.298 
       0.550082         335.038         137.192 
       0.565732         332.733         128.759 
       0.581496         311.609         120.908 
       0.597222         306.395         113.795 
       0.612804         298.204         107.357 
       0.628434         286.344          101.37 
       0.644267         278.118          95.735 
       0.660051         271.169          90.538 
       0.675724         266.399         85.7799 
       0.691403         257.636         81.3693 
       0.707174         248.922         77.2398 
       0.722871         244.297         73.4088 
        0.73838         240.933         69.8745 
       0.754018         234.548         66.5428 
       0.769845         227.565         63.3891 
        0.78569         226.248         60.4343 
       0.801365         217.707         57.6947 
       0.817031         210.439         55.1252 
       0.832809         209.666         52.6948 
       0.848511         203.116          50.421 
       0.864097         200.112         48.2965 
       0.879701         196.789         46.2921 
       0.895507         192.261         44.3775 
       0.911279         185.953         42.5747 
        0.92691         185.525         40.8867 
       0.942635         180.146         39.2805 
       0.958396         178.205         37.7569 
       0.974128         174.166         36.3166 
       0.989692         170.898         34.9652 
        1.00528         168.504         33.6804 
        1.02113          166.06         32.4397 
        1.03692         162.734         31.2657 
        1.05264         159.208         30.1549 
        1.06832         156.244         29.0995 
        1.08405         154.037         28.0915 
        1.09979         150.949         27.1303 
        1.11537         149.095         26.2234 
        1.13105         145.358         25.3523 
        1.14679         145.124         24.5171 
        1.16256         142.979         23.7177 
        1.17828         140.405         22.9564 
        1.19395         137.697         22.2309 
         1.2097         137.163         21.5328 
        1.22537         134.325         20.8679 
          1.241         132.704         20.2329 
        1.25666         130.703         19.6226 
        1.27241         127.934         19.0344 
        1.28819         126.886         18.4692 
        1.30392         123.629         17.9285 
        1.31957         123.539         17.4117 
        1.33529          120.41         16.9133 
        1.35108          119.15         16.4323 
        1.36674         117.775         15.9733 
         1.3824         116.616         15.5321 
        1.39811         115.258         15.1061 
        1.41389         113.214         14.6943 
        1.42964         111.157         14.2985 
        1.44531         109.441          13.919 
        1.46101         107.622         13.5525 
        1.47667          106.56         13.2001 
        1.49229         104.978         12.8612 
        1.50793          103.74         12.5337 
        1.52367         102.672         12.2154 
        1.53953         100.628         11.9059 
        1.55526         99.5941         11.6096 
        1.57092         98.6632         11.3245 
        1.58662         97.1854         11.0483 
        1.60235         96.0363         10.7806 
        1.61809         94.3929         10.5217 
        1.63369         93.1326         10.2734 
        1.64941         92.3716         10.0314 
        1.66519         90.8434         9.79622 
        1.68085         90.3912         9.57021 
        1.69652         88.4929          9.3512 
        1.71228         87.8834         9.13776 
        1.72806         86.9016         8.93077 
        1.74368          85.651         8.73222 
        1.75933         84.6918         8.53926 
        1.77505         83.8022         8.35119 
        1.79081         82.5784         8.16841 
         1.8065         81.4078         7.99185 
        1.82218         80.0383         7.82062 
        1.83797         78.9743         7.65319 
        1.85367           78.55         7.49156 
        1.86928          77.187         7.33553 
        1.88497         76.2869         7.18306 
        1.90073         75.3808         7.03433 
        1.91647         74.6977         6.88991 
        1.93218         73.8702         6.74983 
        1.94787         72.9065         6.61381 
        1.96363         71.9184         6.48098 
        1.97935         70.7543         6.35204 
        1.99499          70.373         6.22731 
        2.01064         69.4564         6.10572 
         2.0264          68.615         5.98659 
        2.04216         67.8195         5.87068 
        2.05781         66.7473         5.75854 
        2.07353          65.783         5.64891 
        2.08928         64.9393         5.54187 
        2.10499         63.9858         5.43787 
        2.12065         63.7589         5.33683 
        2.13633         62.9914         5.23825 
        2.15211         62.4045         5.14151 
        2.16785         61.3241         5.04746 
        2.18349         60.6795         4.95634 
        2.19916         59.9461         4.86725 
        2.21489         59.3452         4.78004 
        2.23063         58.7354          4.6949 
         2.2463         57.5421         4.61219 
        2.26194         57.6617         4.53167 
        2.27765         56.8478         4.45264 
        2.29341         55.8681         4.37527 
        2.30914         55.4952         4.29989 
        2.32486         54.7955         4.22631 
        2.34061         54.1618         4.15432 
        2.35635          53.264         4.08406 
        2.37203         52.5479         4.01565 
        2.38768           51.99         3.94894 
        2.40339         51.6381         3.88348 
        2.41914         51.1151         3.81935 
        2.43483         50.7933         3.75688 
         2.4505         50.1793          3.6959 
        2.46622         49.2753         3.63606 
        2.48195         49.1061         3.57752 
        2.49759         48.1688         3.52058 
        2.51328         47.7124         3.46471 
        2.52906         47.3608          3.4097 
        2.54479         46.8799         3.35607 
        2.56049         46.0906          3.3037 
        2.57618         45.8929         3.25247 
        2.59189         45.1409         3.20225 
        2.60758         44.8612         3.15316 
        2.62325         44.2249         3.10514 
        2.63898         43.9507         3.05795 
        2.65468         43.4753         3.01184 
        2.67044         42.7464         2.96647 
        2.68618         42.4535         2.92213 
        2.70184         41.8989         2.87886 
        2.71755         41.5555         2.83636 
        2.73329         41.0061         2.79464 
        2.74897         40.6434         2.75389 
        2.76462         40.1706         2.71404 
        2.78034         39.7577          2.6748 
        2.79607          39.372         2.63629 
        2.81179         38.9452         2.59858 
        2.82749         38.4349         2.56164 
        2.84321         38.1361         2.52537 
        2.85893         37.6922         2.48981 
        2.87462         37.2508         2.45499 
        2.89033          36.916          2.4208 
        2.90605         36.3708         2.38722 
        2.92176          36.095         2.35429 
        2.93747         35.7747           2.322 
        2.95318         35.3905         2.29029 
        2.96891         34.9429         2.25916 
        2.98456         34.6012         2.22875 
        3.00023         34.2156         2.19884 
        3.01596         33.9675         2.16938 
        3.03164         33.6364         2.14054 
        3.04738         33.4223         2.11214 
         3.0631          32.945         2.08426 
        3.07883         32.5378         2.05688 
        3.09456         32.2601         2.02999 
        3.11026         31.9147         2.00361 
        3.12596         31.6703         1.97771 
        3.14163         31.1811         1.95231 
        3.15734         30.9039          1.9273 
        3.17308         30.8073         1.90267 
        3.18879         30.4617         1.87853 
        3.20447         30.0219         1.85484 
         3.2202         29.7031         1.83148 
         3.2359         29.5663         1.80856 
        3.25157         29.2278         1.78608 
        3.26729          28.754         1.76392 
        3.28304         28.6018         1.74208 
        3.29877         28.3306         1.72064 
        3.31446         28.0062          1.6996 
        3.33014         27.8385         1.67893 
        3.34585         27.4423         1.65857 
        3.36158         27.2323         1.63852 
        3.37727         26.9194         1.61885 
        3.39294          26.737         1.59953 
        3.40867         26.4032         1.58044 
        3.42439         26.1632         1.56168 
        3.44008         26.0217         1.54325 
        3.45578         25.6279         1.52511 
        3.47153           25.41         1.50721 
        3.48724         25.1468         1.48963 
        3.50292         24.9299         1.47237 
        3.51859         24.6695         1.45539 
        3.53431         24.5384         1.43862 
        3.55007         24.2026         1.42207 
        3.56577         24.0459         1.40585 
        3.58146         23.8068         1.38988 
        3.59719         23.5521         1.37412 
        3.61292         23.3507         1.35861 
        3.62859          23.098          1.3434 
        3.64429          22.929         1.32839 
        3.66003         22.5848         1.31356 
        3.67578         22.4091         1.29895 
        3.69146         22.2302         1.28463 
        3.70712         22.1004         1.27054 
        3.72284         21.9503         1.25661 
        3.73853         21.6667         1.24291 
        3.75422         21.5004         1.22941 
        3.76993         21.1759          1.2161 
        3.78564         21.0534         1.20299 
        3.80137         20.9084         1.19004 
        3.81707         20.7557         1.17732 
        3.83279         20.4556         1.16476 
        3.84853         20.3119         1.15237 
        3.86424         20.1289         1.14018 
        3.87992         19.8815         1.12819 
        3.89561         19.7894         1.11636 
        3.91134         19.5606         1.10468 
        3.92704         19.4121         1.09318 
        3.94273         19.2082         1.08185 
        3.95845         18.9959         1.07066 
        3.97418         18.8756         1.05962 
        3.98988         18.6391         1.04876 
        4.00554         18.5678         1.03807 
        4.02125         18.3678          1.0275 
        4.03698         18.2279         1.01706 
        4.05268         17.9998         1.00679 
        4.06839         17.8954        0.996649 
         4.0841         17.7891        0.986651 
        4.09983         17.5982        0.976775 
        4.11555         17.4377        0.967037 
        4.13124         17.2604        0.957457 
        4.14693         17.0506        0.947998 
        4.16266         16.9267        0.938644 
        4.17839         16.8047         0.92942 
        4.19408         16.6235         0.92034 
        4.20977         16.5058        0.911376 
        4.22551         16.4162        0.902509 
        4.24123         16.2186        0.893768 
        4.25691         16.0562        0.885166 
        4.27259         15.9319        0.876673 
        4.28831         15.8278        0.868273 
        4.30404         15.7078        0.859975 
        4.31974         15.5463        0.851802 
        4.33543         15.4105        0.843738 
        4.35116         15.2905        0.835759 
        4.36688         15.1474        0.827886 
        4.38255          14.999        0.820142 
        4.39825         14.9397        0.812479 
        4.41398         14.7928        0.804898 
         4.4297         14.6562        0.797422 
        4.44541         14.5271         0.79004 
        4.46111         14.4175        0.782757 
        4.47683         14.2702        0.775559 
        4.49251         14.2145        0.768466 
        4.50819         14.0512        0.761463 
         4.5239         13.9362        0.754536 
        4.53962         13.7972        0.747686 
        4.55535         13.6994        0.740916 
        4.57106          13.576         0.73424 
        4.58678         13.5298        0.727644 
         4.6025         13.3897        0.721126 
        4.61821         13.2621        0.714689 
        4.63391         13.1418        0.708337 
         4.6496         13.0205        0.702065 
        4.66532         12.9205        0.695859 
        4.68103         12.8422        0.689729 
        4.69673         12.7201        0.683678 
        4.71241         12.6428        0.677706 
        4.72811         12.5159        0.671794 
        4.74384         12.4214        0.665945 
        4.75955         12.3203        0.660173 
        4.77525         12.2556        0.654473 
        4.79096         12.1384        0.648832 
        4.80669         12.0727        0.643254 
         4.8224         11.9327        0.637748 
        4.83809         11.8415        0.632311 
        4.85379         11.7639        0.626934 
         4.8695         11.6362        0.621615 
        4.88521         11.5836        0.616359 
        4.90093         11.4645        0.611162 
        4.91663         11.4033        0.606029 
        4.93234         11.3133         0.60095 
        4.94807         11.2032        0.595924 
        4.96377         11.1268        0.590965 
        4.97943         11.0489        0.586073 
        4.99514         10.9514        0.581222 
        5.01086         10.8757        0.576422 
        5.02654         10.7901        0.571689 
        5.04227         10.7185        0.566994 
          5.058         10.6062        0.562349 
        5.07371         10.5383        0.557764 
        5.08942         10.4716         0.55323 
        5.10513         10.3713        0.548745 
        5.12084         10.3112        0.544307 
        5.13656         10.2326        0.539919 
        5.15225          10.162        0.535586 
        5.16796         10.0807        0.531293 
        5.18369         10.0112        0.527043 
         5.1994         9.93735        0.522847 
        5.21509         9.85103          0.5187 
        5.23079         9.76618        0.514592 
        5.24649         9.69684        0.510532 
        5.26217         9.62763        0.506518 
        5.27788         9.54922        0.502541 
        5.29359         9.48841        0.498606 
        5.30933         9.42876        0.494707 
        5.32504         9.37556        0.490855 
        5.34073         9.29485        0.487049 
        5.35646         9.20618        0.483274 
        5.37218         9.14199        0.479539 
        5.38789         9.07345        0.475849 
        5.40357         9.02073        0.472201 
        5.41929         8.94813        0.468584 
        5.43502         8.87188        0.465003 
         5.4507         8.84033        0.461468 
        5.46639         8.75237        0.457969 
        5.48212         8.69277        0.454498 
        5.49786         8.64381        0.451058 
        5.51353         8.56695        0.447671 
        5.52921         8.50437        0.444315 
        5.54495         8.45871        0.440983 
        5.56066         8.36854        0.437688 
        5.57637         8.31816        0.434427 
        5.59207         8.25619        0.431202 
        5.60778         8.20523        0.428008 
        5.62346         8.13993        0.424851 
        5.63916         8.08036        0.421722 
        5.65487         8.01818        0.418623 
         5.6706         7.95281        0.415551 
        5.68633         7.92034        0.412509 
        5.70203          7.8591        0.409503 
        5.71773         7.80262        0.406527 
        5.73344          7.7391        0.403579 
        5.74916         7.69687        0.400657 
        5.76486         7.65311        0.397768 
        5.78054         7.60405        0.394911 
        5.79626          7.5303        0.392074 
          5.812         7.48168        0.389263 
         5.8277         7.44071        0.386486 
        5.84339         7.37468        0.383736 
        5.85911         7.32874        0.381008 
        5.87484         7.28554        0.378306 
        5.89053         7.23598        0.375636 
        5.90623         7.18712         0.37299 
        5.92195          7.1435        0.370365 
        5.93767         7.09469        0.367766 
        5.95336          7.0456        0.365196 
        5.96905         6.99215        0.362651 
        5.98476         6.94285        0.360127 
        6.00048         6.90221        0.357626 
        6.01617         6.84626        0.355152 
        6.03185         6.79591        0.352704 
        6.04756         6.75245        0.350273 
        6.06331         6.73077        0.347859 
        6.07903         6.68293        0.345473 
        6.09473          6.6409        0.343112 
        6.11044         6.57561         0.34077 
        6.12616         6.54914         0.33845 
        6.14186         6.49611        0.336154 
        6.15755         6.44176        0.333879 
        6.17326         6.40402        0.331623 
        6.18898         6.38441        0.329387 
        6.20467         6.32814        0.327175 
        6.22036         6.28349        0.324984 
         6.2361         6.24631        0.322806 
         6.2518         6.20428        0.320652 
        6.26748         6.17318        0.318522 
        6.28319         6.12772        0.316406 
        6.29893         6.09003        0.314306 
        6.31463         6.03664        0.312229 
        6.33033         5.99797        0.310172 
        6.34604         5.96787        0.308131 
        6.36177         5.92671        0.306106 
        6.37747         5.88821        0.304103 
