# k  (h/Mpc)    Pcb(k)  (Mpc/h)^3    Pcb_linear(k) (Mpc/h)^3   ShotnoiseSubtracted = true
      0.0200456         3118.42         3154.48 
      0.0350414         2136.54         2093.62 
      0.0492313          1415.2         1410.11 
      0.0637834          1117.2         1130.24 
      0.0800726         880.236          898.58 
       0.096163         649.525          633.25 
       0.111083         496.311         478.133 
       0.126058         415.735         415.645 
       0.142273         358.718         360.436 
       0.158546         288.012         282.579 
        0.17375         237.045         226.958 
       0.188953         209.949         200.986 
       0.204907         181.811         181.682 
       0.220756         160.711         154.901 
        0.23588         137.227         130.606 
         0.2514           121.3         115.529 
       0.267535         112.997         105.478 
       0.283568         99.5993         94.1044 
       0.299022         90.2782         82.5505 
       0.314451          83.934         73.8252 
       0.330372         74.4406         67.5951 
       0.346141         68.1885         61.8517 
       0.361624         62.4619         55.9336 
       0.377134         56.6154         50.7322 
       0.392932         54.3078         46.6262 
       0.408854         49.7457         43.0809 
       0.424564          47.223         39.6651 
       0.440253         42.8019         36.4789 
       0.455999         38.8701         33.7546 
       0.471626         36.8187         31.4306 
        0.48727         35.5607          29.278 
       0.502856          33.025         27.2561 
       0.518488         30.8197          25.426 
       0.534347         28.8923         23.7858 
       0.550082         27.6994         22.3053 
       0.565732          26.528         20.9342 
       0.581496         24.7376         19.6578 
       0.597222         23.4044         18.5014 
       0.612804         22.1541         17.4546 
       0.628434         21.6956         16.4811 
       0.644267         20.4355          15.565 
       0.660051         19.3467         14.7201 
       0.675724         18.3962         13.9465 
       0.691403         17.9533         13.2294 
       0.707174         17.1163          12.558 
       0.722871         16.5232         11.9351 
        0.73838          15.626         11.3605 
       0.754018         14.7321         10.8188 
       0.769845         14.3569         10.3061 
        0.78569         13.8741         9.82569 
       0.801365         13.2949         9.38026 
       0.817031         12.7394          8.9625 
       0.832809         12.3247         8.56736 
       0.848511         11.8952         8.19768 
       0.864097         11.4696         7.85227 
       0.879701         11.2491         7.52638 
       0.895507         10.7924         7.21509 
       0.911279         10.3201           6.922 
        0.92691         10.0835         6.64755 
       0.942635         9.78581         6.38641 
       0.958396         9.44378          6.1387 
       0.974128         9.18552         5.90452 
       0.989692         8.72262         5.68481 
        1.00528         8.64137         5.47591 
        1.02113         8.32519         5.27419 
        1.03692           8.128         5.08332 
        1.05264            7.91         4.90272 
        1.06832         7.71736         4.73113 
        1.08405         7.48583         4.56724 
        1.09979         7.27766         4.41097 
        1.11537         7.06786         4.26352 
        1.13105         6.92258         4.12189 
        1.14679         6.75682         3.98611 
        1.16256         6.58895         3.85614 
        1.17828         6.42994         3.73236 
        1.19395         6.27695          3.6144 
         1.2097         6.06868          3.5009 
        1.22537         5.94537          3.3928 
          1.241         5.77141         3.28956 
        1.25666         5.73046         3.19033 
        1.27241         5.59726          3.0947 
        1.28819         5.35837         3.00281 
        1.30392         5.31804          2.9149 
        1.31957         5.16059         2.83088 
        1.33529         5.07887         2.74984 
        1.35108         4.96283         2.67163 
        1.36674         4.82531         2.59701 
         1.3824         4.75882         2.52529 
        1.39811         4.66358         2.45602 
        1.41389         4.54442         2.38907 
        1.42964         4.46532         2.32471 
        1.44531         4.37063         2.26302 
        1.46101         4.32618         2.20342 
        1.47667         4.21967         2.14614 
        1.49229         4.08419         2.09103 
        1.50793         4.03332         2.03778 
        1.52367         3.94653         1.98603 
        1.53953         3.88046         1.93572 
        1.55526         3.83088         1.88754 
        1.57092         3.74749         1.84119 
        1.58662         3.67769         1.79628 
        1.60235         3.62878         1.75276 
        1.61809         3.56052         1.71066 
        1.63369         3.48374          1.6703 
        1.64941         3.41399         1.63095 
        1.66519          3.3797         1.59271 
        1.68085         3.30811         1.55597 
        1.69652         3.26088         1.52036 
        1.71228          3.2263         1.48566 
        1.72806         3.15875         1.45201 
        1.74368         3.11002         1.41972 
        1.75933         3.05634         1.38835 
        1.77505         2.99415         1.35777 
        1.79081         2.95773         1.32806 
         1.8065           2.925         1.29935 
        1.82218         2.87288         1.27151 
        1.83797         2.81032         1.24429 
        1.85367         2.77323         1.21801 
        1.86928           2.743         1.19264 
        1.88497         2.68879         1.16785 
        1.90073         2.65759         1.14367 
        1.91647          2.6056         1.12019 
        1.93218          2.5744         1.09742 
        1.94787         2.54405          1.0753 
        1.96363         2.50953         1.05371 
        1.97935         2.47467         1.03274 
        1.99499         2.44041         1.01246 
        2.01064         2.40415        0.992696 
         2.0264         2.37452        0.973327 
        2.04216         2.33446        0.954481 
        2.05781         2.30675         0.93625 
        2.07353         2.28234        0.918425 
        2.08928         2.24285        0.901023 
        2.10499         2.20674        0.884114 
        2.12065         2.20383        0.867687 
        2.13633         2.16947        0.851659 
        2.15211         2.12452         0.83593 
        2.16785         2.10306        0.820639 
        2.18349         2.08222        0.805824 
        2.19916         2.05622         0.79134 
        2.21489         2.03756        0.777161 
        2.23063          2.0005        0.763318 
         2.2463         1.97354        0.749871 
        2.26194         1.94893        0.736779 
        2.27765         1.91082         0.72393 
        2.29341         1.89513        0.711352 
        2.30914         1.87454        0.699096 
        2.32486         1.86242        0.687133 
        2.34061         1.83877        0.675429 
        2.35635         1.81543        0.664005 
        2.37203         1.80655        0.652883 
        2.38768         1.78418        0.642036 
        2.40339         1.74831        0.631395 
        2.41914         1.73464        0.620968 
        2.43483         1.71215        0.610811 
         2.4505         1.69256        0.600897 
        2.46622         1.67723        0.591167 
        2.48195         1.66351         0.58165 
        2.49759         1.63739        0.572391 
        2.51328         1.62672        0.563309 
        2.52906         1.60509        0.554364 
        2.54479         1.58835        0.545646 
        2.56049         1.57242         0.53713 
        2.57618         1.55589        0.528802 
        2.59189         1.54643        0.520636 
        2.60758          1.5321        0.512654 
        2.62325         1.50124        0.504848 
        2.63898         1.48887        0.497176 
        2.65468         1.47186        0.489678 
        2.67044         1.46598        0.482302 
        2.68618         1.45156        0.475093 
        2.70184         1.43604        0.468058 
        2.71755         1.41705        0.461148 
        2.73329         1.40261        0.454365 
        2.74897         1.39159         0.44774 
        2.76462         1.37831        0.441261 
        2.78034         1.36689        0.434881 
        2.79607         1.35142         0.42862 
        2.81179         1.33847        0.422489 
        2.82749         1.32368        0.416483 
        2.84321         1.31278        0.410587 
        2.85893         1.29707        0.404805 
        2.87462         1.29266        0.399143 
        2.89033         1.28114        0.393584 
        2.90605         1.26818        0.388125 
        2.92176         1.25418        0.382771 
        2.93747         1.24492        0.377521 
        2.95318         1.23333        0.372366 
        2.96891          1.2253        0.367305 
        2.98456         1.21266         0.36236 
        3.00023         1.20341        0.357497 
        3.01596         1.18756        0.352708 
        3.03164         1.17985        0.348019 
        3.04738         1.17298        0.343402 
         3.0631         1.16176        0.338869 
        3.07883         1.15191        0.334417 
        3.09456         1.14072        0.330044 
        3.11026          1.1322        0.325756 
        3.12596         1.12189        0.321544 
        3.14163         1.11588        0.317416 
        3.15734         1.10324         0.31335 
        3.17308         1.09554        0.309344 
        3.18879         1.09011        0.305419 
        3.20447         1.07658        0.301568 
         3.2202         1.07148         0.29777 
         3.2359         1.06377        0.294044 
        3.25157         1.05129        0.290389 
        3.26729         1.04437        0.286786 
        3.28304         1.03677        0.283235 
        3.29877         1.02602        0.279749 
        3.31446         1.01995        0.276329 
        3.33014         1.01456        0.272969 
        3.34585         1.00348        0.269658 
        3.36158        0.996673        0.266398 
        3.37727        0.993218        0.263201 
        3.39294        0.983811        0.260058 
        3.40867        0.979335        0.256956 
        3.42439         0.96901        0.253905 
        3.44008        0.960997        0.250909 
        3.45578        0.955409        0.247959 
        3.47153        0.949449         0.24505 
        3.48724        0.941515        0.242191 
        3.50292        0.933115        0.239385 
        3.51859        0.929803        0.236624 
        3.53431        0.921677        0.233898 
        3.55007        0.917219        0.231207 
        3.56577         0.91076        0.228569 
        3.58146        0.904911        0.225973 
        3.59719        0.898874        0.223411 
        3.61292         0.89227         0.22089 
        3.62859        0.886419        0.218416 
        3.64429         0.88142        0.215975 
        3.66003        0.875012        0.213564 
        3.67578        0.868632         0.21119 
        3.69146        0.861611        0.208861 
        3.70712        0.858531         0.20657 
        3.72284        0.851209        0.204306 
        3.73853        0.844214        0.202079 
        3.75422        0.842111        0.199884 
        3.76993        0.835006        0.197719 
        3.78564        0.827541        0.195587 
        3.80137         0.82314        0.193483 
        3.81707        0.815817        0.191414 
        3.83279        0.815645        0.189373 
        3.84853        0.808415        0.187358 
        3.86424        0.801916        0.185376 
        3.87992        0.798458        0.183426 
        3.89561        0.792234        0.181503 
        3.91134        0.786809        0.179604 
        3.92704        0.784435        0.177734 
        3.94273        0.779201        0.175892 
        3.95845        0.771369        0.174073 
        3.97418        0.766624        0.172278 
        3.98988        0.763436        0.170512 
        4.00554        0.758295        0.168774 
        4.02125        0.752852        0.167056 
        4.03698        0.747061        0.165358 
        4.05268        0.740814        0.163688 
        4.06839        0.734176         0.16204 
         4.0841        0.731317        0.160414 
        4.09983        0.726978        0.158809 
        4.11555        0.720052        0.157225 
        4.13124        0.714414        0.155668 
        4.14693        0.709914         0.15413 
        4.16266        0.706031        0.152609 
        4.17839         0.70019        0.151109 
        4.19408        0.695394        0.149633 
        4.20977        0.691957        0.148176 
        4.22551        0.686169        0.146734 
        4.24123        0.681606        0.145313 
        4.25691        0.677117        0.143914 
        4.27259        0.672482        0.142533 
        4.28831        0.670414        0.141168 
        4.30404        0.663837        0.139819 
        4.31974        0.659754         0.13849 
        4.33543        0.655886        0.137179 
        4.35116        0.651951        0.135882 
        4.36688        0.648782        0.134601 
        4.38255        0.645674        0.133342 
        4.39825        0.641494        0.132097 
        4.41398        0.637852        0.130864 
         4.4297        0.636436        0.129648 
        4.44541        0.630877        0.128448 
        4.46111        0.627692        0.127264 
        4.47683        0.624732        0.126094 
        4.49251        0.621065        0.124941 
        4.50819        0.618837        0.123802 
         4.5239        0.615078        0.122676 
        4.53962        0.611351        0.121562 
        4.55535        0.609668        0.120462 
        4.57106        0.605673        0.119376 
        4.58678        0.605341        0.118304 
         4.6025        0.602444        0.117244 
        4.61821        0.600151        0.116197 
        4.63391        0.597952        0.115165 
         4.6496        0.592384        0.114145 
        4.66532        0.592587        0.113136 
        4.68103        0.589471        0.112139 
        4.69673        0.587784        0.111156 
        4.71241        0.584411        0.110185 
        4.72811        0.584135        0.109223 
        4.74384         0.58294        0.108272 
        4.75955        0.579502        0.107334 
        4.77525        0.576636        0.106407 
        4.79096        0.575701         0.10549 
        4.80669        0.573704        0.104583 
         4.8224        0.571927        0.103688 
        4.83809        0.571767        0.102804 
        4.85379        0.569323         0.10193 
         4.8695        0.566502        0.101065 
        4.88521        0.565265         0.10021 
        4.90093        0.565017       0.0993655 
        4.91663        0.563023        0.098531 
        4.93234        0.560216       0.0977051 
        4.94807        0.558436       0.0968881 
        4.96377        0.558724       0.0960818 
        4.97943        0.558727       0.0952863 
        4.99514        0.557937       0.0944977 
        5.01086        0.555065       0.0937174 
        5.02654        0.553274       0.0929477 
        5.04227        0.552515       0.0921844 
          5.058        0.553223       0.0914292 
        5.07371        0.551647       0.0906839 
        5.08942        0.550013       0.0899467 
        5.10513        0.550468       0.0892175 
        5.12084        0.548159        0.088496 
        5.13656        0.547792       0.0877825 
        5.15225        0.546137        0.087078 
        5.16796         0.54638       0.0863801 
        5.18369        0.546933       0.0856891 
         5.1994        0.545446       0.0850069 
        5.21509        0.544044       0.0843326 
        5.23079         0.54511       0.0836648 
        5.24649        0.544502       0.0830046 
        5.26217        0.544662        0.082352 
        5.27788         0.54238       0.0817054 
        5.29359        0.544226       0.0810656 
        5.30933        0.543717       0.0804317 
        5.32504        0.543279       0.0798055 
        5.34073        0.542932       0.0791866 
        5.35646        0.541758        0.078573 
        5.37218        0.541616       0.0779657 
        5.38789        0.542208       0.0773657 
        5.40357        0.542088       0.0767727 
        5.41929        0.543311       0.0761845 
        5.43502        0.541496       0.0756024 
         5.4507         0.54077       0.0750276 
        5.46639        0.541993       0.0744588 
        5.48212        0.541298       0.0738944 
        5.49786        0.542517       0.0733351 
        5.51353        0.544566       0.0727844 
        5.52921        0.541496       0.0722387 
        5.54495        0.542047        0.071697 
        5.56066        0.544267       0.0711613 
        5.57637        0.545014       0.0706312 
        5.59207        0.543676       0.0701068 
        5.60778        0.544452       0.0695876 
        5.62346        0.545827       0.0690742 
        5.63916        0.545917       0.0685656 
        5.65487         0.54586       0.0680617 
         5.6706        0.543386       0.0675622 
        5.68633         0.54594       0.0670676 
        5.70203        0.545398       0.0665788 
        5.71773        0.546427        0.066095 
        5.73344        0.547131       0.0656157 
        5.74916        0.547164       0.0651407 
        5.76486        0.547825       0.0646709 
        5.78054          0.5489       0.0642065 
        5.79626        0.549399       0.0637453 
          5.812        0.548871       0.0632881 
         5.8277        0.550363       0.0628367 
        5.84339        0.551394       0.0623896 
        5.85911        0.550201        0.061946 
        5.87484        0.551706       0.0615068 
        5.89053         0.55145       0.0610726 
        5.90623        0.551969       0.0606424 
        5.92195        0.552536       0.0602156 
        5.93767        0.554684       0.0597931 
        5.95336        0.553365       0.0593752 
        5.96905        0.554986       0.0589615 
        5.98476        0.554615       0.0585511 
        6.00048        0.556506       0.0581445 
        6.01617        0.554692       0.0577422 
        6.03185        0.556807       0.0573442 
        6.04756        0.558068       0.0569489 
        6.06331        0.559171       0.0565565 
        6.07903        0.558671       0.0561686 
        6.09473        0.559275       0.0557846 
        6.11044        0.560071       0.0554039 
        6.12616        0.560974       0.0550267 
        6.14186        0.560245       0.0546534 
        6.15755        0.561866       0.0542836 
        6.17326        0.562972       0.0539168 
        6.18898        0.562729       0.0535533 
        6.20467        0.562816       0.0531937 
        6.22036        0.562451       0.0528374 
         6.2361        0.565056       0.0524833 
         6.2518        0.565383       0.0521331 
        6.26748         0.56518       0.0517868 
        6.28319        0.566413       0.0514427 
        6.29893        0.565175       0.0511013 
        6.31463        0.568343       0.0507637 
        6.33033        0.566381       0.0504291 
        6.34604        0.569063       0.0500973 
        6.36177        0.569272       0.0497681 
        6.37747        0.568496       0.0494425 
