# k  (h/Mpc)    Pcb(k)  (Mpc/h)^3    Pcb_linear(k) (Mpc/h)^3   ShotnoiseSubtracted = true
      0.0200456         13954.8         14194.1 
      0.0350414         9142.32         9420.55 
      0.0492313         6318.42         6345.01 
      0.0637834         5252.71         5085.66 
      0.0800726         4143.93         4043.29 
       0.096163         2813.69          2849.4 
       0.111083         2149.76         2151.43 
       0.126058         1942.55         1870.26 
       0.142273         1708.26         1621.84 
       0.158546         1426.61          1271.5 
        0.17375         1105.88         1021.23 
       0.188953         1055.88         904.364 
       0.204907         995.888         817.506 
       0.220756         847.417         696.999 
        0.23588         738.549         587.681 
         0.2514          634.46         519.841 
       0.267535         618.038         474.616 
       0.283568         559.561         423.437 
       0.299022         520.734         371.448 
       0.314451           486.3         332.187 
       0.330372         446.095         304.154 
       0.346141         403.109         278.311 
       0.361624         388.377         251.681 
       0.377134         357.927         228.277 
       0.392932         338.087         209.801 
       0.408854         323.648         193.849 
       0.424564         305.346         178.479 
       0.440253         295.717         164.142 
       0.455999         276.929         151.884 
       0.471626         259.596         141.427 
        0.48727         249.046         131.741 
       0.502856         240.683         122.643 
       0.518488         237.387         114.408 
       0.534347         222.894         107.028 
       0.550082         209.321         100.366 
       0.565732         205.098         94.1966 
       0.581496         193.823         88.4533 
       0.597222         189.089         83.2497 
       0.612804         182.738         78.5397 
       0.628434         175.278         74.1593 
       0.644267         169.508         70.0372 
       0.660051         167.163         66.2352 
       0.675724         162.761         62.7543 
       0.691403         157.905         59.5276 
       0.707174         151.609         56.5066 
       0.722871         149.392         53.7039 
        0.73838         146.122         51.1183 
       0.754018          142.11         48.6809 
       0.769845         137.342         46.3738 
        0.78569         135.499         44.2121 
       0.801365         130.583         42.2079 
       0.817031         126.451         40.3281 
       0.832809         125.048         38.5501 
       0.848511         121.013         36.8867 
       0.864097         119.309         35.3325 
       0.879701          116.49         33.8661 
       0.895507          113.39         32.4654 
       0.911279         110.585         31.1465 
        0.92691         109.861         29.9116 
       0.942635         106.566         28.7366 
       0.958396         106.235          27.622 
       0.974128         103.309         26.5682 
       0.989692         100.901         25.5796 
        1.00528         98.7734         24.6397 
        1.02113         97.8237          23.732 
        1.03692         94.6364         22.8732 
        1.05264         93.4518         22.0605 
        1.06832         91.4206         21.2884 
        1.08405         89.9398          20.551 
        1.09979         89.4819         19.8478 
        1.11537          86.695         19.1843 
        1.13105         86.0762          18.547 
        1.14679         85.0342         17.9361 
        1.16256         83.7757         17.3513 
        1.17828         82.0485         16.7943 
        1.19395         80.3206         16.2635 
         1.2097         78.9098         15.7528 
        1.22537         78.6176         15.2664 
          1.241         77.0394         14.8018 
        1.25666         75.4252         14.3553 
        1.27241         74.1911         13.9251 
        1.28819          73.161         13.5116 
        1.30392         71.8978          13.116 
        1.31957         71.2923         12.7379 
        1.33529         69.6308         12.3733 
        1.35108         68.9484         12.0214 
        1.36674         68.3425         11.6856 
         1.3824         66.8411         11.3629 
        1.39811         65.9618         11.0512 
        1.41389         65.2134           10.75 
        1.42964         63.9724         10.4604 
        1.44531         62.8581         10.1828 
        1.46101         61.9726         9.91463 
        1.47667          61.974         9.65686 
        1.49229         60.7439         9.40889 
        1.50793         60.4102         9.16929 
        1.52367         59.1042         8.93644 
        1.53953         58.2157         8.71006 
        1.55526         57.7695         8.49328 
        1.57092          57.461         8.28472 
        1.58662         55.9774         8.08261 
        1.60235          55.774         7.88682 
        1.61809         54.9143         7.69737 
        1.63369         54.2406         7.51577 
        1.64941           53.88          7.3387 
        1.66519         52.3925         7.16665 
        1.68085         52.3407         7.00131 
        1.69652         51.2621         6.84109 
        1.71228          50.998         6.68494 
        1.72806         50.4815         6.53351 
        1.74368         49.7496         6.38826 
        1.75933         49.0135         6.24709 
        1.77505         48.6509         6.10951 
        1.79081         48.0435         5.97579 
         1.8065         47.4057         5.84662 
        1.82218         46.9106         5.72135 
        1.83797         46.3259         5.59887 
        1.85367         45.9742         5.48062 
        1.86928         45.2453         5.36648 
        1.88497         44.8619         5.25493 
        1.90073         44.1169         5.14613 
        1.91647         43.9572         5.04048 
        1.93218         43.5309         4.93799 
        1.94787         42.8235         4.83849 
        1.96363         42.3829         4.74131 
        1.97935         41.9483         4.64698 
        1.99499         41.4265         4.55573 
        2.01064         41.0316         4.46678 
         2.0264           40.16         4.37963 
        2.04216         40.1055         4.29483 
        2.05781         39.5398         4.21279 
        2.07353         38.9746         4.13259 
        2.08928         38.7825         4.05428 
        2.10499         38.2074          3.9782 
        2.12065         37.8184         3.90428 
        2.13633         37.4727         3.83217 
        2.15211         37.2532         3.76139 
        2.16785         36.7346         3.69259 
        2.18349         36.3085         3.62592 
        2.19916         35.8922         3.56075 
        2.21489         35.6501         3.49695 
        2.23063          35.137         3.43466 
         2.2463         34.7236         3.37416 
        2.26194         34.2337         3.31525 
        2.27765         34.0508         3.25743 
        2.29341         33.5586         3.20083 
        2.30914         33.1886         3.14569 
        2.32486         32.5958         3.09186 
        2.34061         32.5844         3.03919 
        2.35635         32.0731         2.98779 
        2.37203          31.769         2.93774 
        2.38768         31.4642         2.88894 
        2.40339         31.1927         2.84105 
        2.41914         30.8756         2.79414 
        2.43483         30.4982         2.74843 
         2.4505         30.2872         2.70382 
        2.46622         29.8523         2.66004 
        2.48195         29.6058         2.61722 
        2.49759         29.2571         2.57556 
        2.51328         28.9531         2.53469 
        2.52906         28.6514         2.49444 
        2.54479         28.2756         2.45521 
        2.56049         27.9477          2.4169 
        2.57618         27.7713         2.37942 
        2.59189         27.4258         2.34268 
        2.60758         27.3205         2.30676 
        2.62325         26.9199         2.27164 
        2.63898         26.6189         2.23712 
        2.65468         26.2942         2.20338 
        2.67044         26.1055         2.17019 
        2.68618         25.8855         2.13775 
        2.70184         25.5823          2.1061 
        2.71755         25.4107           2.075 
        2.73329         25.1301         2.04448 
        2.74897         24.8028         2.01467 
        2.76462         24.5339         1.98552 
        2.78034         24.4231         1.95681 
        2.79607         24.1999         1.92864 
        2.81179         23.9815         1.90105 
        2.82749         23.6358         1.87403 
        2.84321         23.4315         1.84749 
        2.85893         23.1896         1.82148 
        2.87462         22.9502           1.796 
        2.89033          22.742         1.77099 
        2.90605         22.5745         1.74643 
        2.92176         22.4002         1.72234 
        2.93747         22.1595         1.69871 
        2.95318         21.9087         1.67552 
        2.96891         21.6893         1.65274 
        2.98456          21.457         1.63049 
        3.00023         21.2055         1.60861 
        3.01596         21.0294         1.58706 
        3.03164         20.9225         1.56596 
        3.04738         20.6177         1.54519 
         3.0631         20.4468         1.52479 
        3.07883         20.3089         1.50476 
        3.09456         20.0499         1.48508 
        3.11026         19.9033         1.46579 
        3.12596         19.6867         1.44684 
        3.14163         19.5028         1.42826 
        3.15734         19.3852         1.40996 
        3.17308         19.1028         1.39194 
        3.18879         19.0397         1.37428 
        3.20447         18.8312         1.35695 
         3.2202         18.5944         1.33986 
         3.2359         18.4271         1.32309 
        3.25157         18.2986         1.30665 
        3.26729         18.1705         1.29043 
        3.28304         17.9279         1.27446 
        3.29877         17.8136         1.25877 
        3.31446         17.5559         1.24338 
        3.33014         17.4082         1.22826 
        3.34585         17.3129         1.21337 
        3.36158         17.1086          1.1987 
        3.37727         16.9463         1.18431 
        3.39294         16.8192         1.17017 
        3.40867         16.6549         1.15621 
        3.42439         16.4859         1.14248 
        3.44008         16.3926           1.129 
        3.45578         16.1787         1.11573 
        3.47153         16.0138         1.10264 
        3.48724         15.9209         1.08978 
        3.50292         15.8554         1.07715 
        3.51859         15.6272         1.06472 
        3.53431         15.4921         1.05246 
        3.55007         15.3116         1.04035 
        3.56577         15.2034         1.02848 
        3.58146         15.0549          1.0168 
        3.59719         14.9228         1.00527 
        3.61292         14.8116        0.993926 
        3.62859         14.6511        0.982795 
        3.64429         14.5469        0.971812 
        3.66003         14.4403        0.960962 
        3.67578         14.2969         0.95028 
        3.69146         14.1919        0.939799 
        3.70712         14.0746        0.929494 
        3.72284         13.8903        0.919303 
        3.73853         13.8154        0.909282 
        3.75422         13.6974        0.899405 
        3.76993         13.5407        0.889666 
        3.78564          13.425        0.880072 
        3.80137         13.3154        0.870604 
        3.81707         13.2126        0.861293 
        3.83279         13.0678         0.85211 
        3.84853         12.9264        0.843045 
        3.86424         12.8393        0.834128 
        3.87992         12.7508        0.825352 
        3.89561         12.6046        0.816701 
        3.91134         12.5449        0.808155 
        3.92704         12.3969         0.79974 
        3.94273         12.3012        0.791452 
        3.95845         12.2063        0.783265 
        3.97418         12.1233        0.775192 
        3.98988         12.0072        0.767242 
        4.00554          11.879        0.759424 
        4.02125          11.804        0.751692 
        4.03698          11.697        0.744054 
        4.05268         11.5627        0.736539 
        4.06839         11.4719        0.729122 
         4.0841         11.4276        0.721808 
        4.09983         11.2732        0.714583 
        4.11555         11.2262        0.707459 
        4.13124         11.1052         0.70045 
        4.14693         10.9951         0.69353 
        4.16266         10.9098        0.686687 
        4.17839         10.8244        0.679939 
        4.19408         10.7284        0.673296 
        4.20977          10.664        0.666738 
        4.22551         10.5417        0.660251 
        4.24123         10.4508        0.653857 
        4.25691         10.3569        0.647564 
        4.27259         10.2999         0.64135 
        4.28831         10.1943        0.635205 
        4.30404         10.1108        0.629134 
        4.31974         10.0462        0.623155 
        4.33543         9.97557        0.617256 
        4.35116         9.86893        0.611419 
        4.36688         9.80309        0.605659 
        4.38255         9.71755        0.599994 
        4.39825         9.64576        0.594388 
        4.41398         9.54163        0.588842 
         4.4297         9.46299        0.583372 
        4.44541         9.40653        0.577972 
        4.46111          9.3372        0.572644 
        4.47683         9.23486        0.567379 
        4.49251         9.18233        0.562189 
        4.50819         9.14531        0.557066 
         4.5239         9.03569        0.551998 
        4.53962         8.96811        0.546987 
        4.55535         8.87983        0.542035 
        4.57106         8.82012         0.53715 
        4.58678         8.73069        0.532325 
         4.6025         8.67537        0.527556 
        4.61821         8.60104        0.522847 
        4.63391         8.52429        0.518201 
         4.6496         8.47237        0.513612 
        4.66532         8.38212        0.509071 
        4.68103         8.31139        0.504587 
        4.69673          8.2664        0.500161 
        4.71241         8.18555        0.495791 
        4.72811         8.14274        0.491467 
        4.74384         8.07647        0.487187 
        4.75955         7.98719        0.482965 
        4.77525         7.95582        0.478795 
        4.79096         7.88007        0.474668 
        4.80669         7.82875        0.470588 
         4.8224         7.78991        0.466559 
        4.83809         7.71134        0.462582 
        4.85379         7.63105        0.458648 
         4.8695         7.60924        0.454757 
        4.88521          7.5312        0.450912 
        4.90093         7.46523         0.44711 
        4.91663         7.40775        0.443355 
        4.93234         7.36395        0.439639 
        4.94807         7.30635        0.435962 
        4.96377         7.25472        0.432334 
        4.97943         7.19415        0.428755 
        4.99514         7.14042        0.425207 
        5.01086          7.0999        0.421695 
        5.02654         7.03518        0.418232 
        5.04227         6.98798        0.414797 
          5.058          6.9376        0.411399 
        5.07371         6.87951        0.408045 
        5.08942         6.84292        0.404728 
        5.10513         6.78301        0.401447 
        5.12084         6.72863        0.398201 
        5.13656         6.67573         0.39499 
        5.15225         6.62669         0.39182 
        5.16796         6.58535         0.38868 
        5.18369         6.52331        0.385571 
         5.1994         6.49587        0.382501 
        5.21509         6.43398        0.379467 
        5.23079           6.393        0.376462 
        5.24649         6.33061        0.373492 
        5.26217         6.29045        0.370555 
        5.27788         6.24101        0.367646 
        5.29359          6.1997        0.364767 
        5.30933         6.16427        0.361914 
        5.32504         6.11527        0.359096 
        5.34073         6.07676        0.356312 
        5.35646         6.02543        0.353551 
        5.37218          5.9988        0.350818 
        5.38789         5.94776        0.348118 
        5.40357          5.9117         0.34545 
        5.41929         5.85949        0.342803 
        5.43502         5.82297        0.340184 
         5.4507         5.78352        0.337598 
        5.46639         5.75227        0.335038 
        5.48212         5.71107        0.332499 
        5.49786         5.66021        0.329982 
        5.51353         5.62092        0.327504 
        5.52921         5.58933        0.325049 
        5.54495         5.55483        0.322611 
        5.56066         5.51044        0.320201 
        5.57637          5.4697        0.317815 
        5.59207         5.43091        0.315456 
        5.60778          5.4025         0.31312 
        5.62346         5.36025         0.31081 
        5.63916         5.32221        0.308521 
        5.65487         5.27573        0.306254 
         5.6706         5.23616        0.304006 
        5.68633         5.21915         0.30178 
        5.70203         5.16993        0.299581 
        5.71773         5.14714        0.297404 
        5.73344         5.10395        0.295248 
        5.74916         5.07202         0.29311 
        5.76486         5.03505        0.290996 
        5.78054         5.00845        0.288906 
        5.79626         4.97669        0.286831 
          5.812         4.94062        0.284774 
         5.8277         4.90737        0.282743 
        5.84339         4.86887        0.280731 
        5.85911          4.8328        0.278735 
        5.87484         4.80666        0.276759 
        5.89053         4.77311        0.274805 
        5.90623         4.73491         0.27287 
        5.92195         4.70973        0.270949 
        5.93767          4.6776        0.269048 
        5.95336         4.64709        0.267168 
        5.96905         4.61881        0.265306 
        5.98476         4.60499        0.263459 
        6.00048         4.55933         0.26163 
        6.01617         4.53294         0.25982 
        6.03185         4.49871        0.258029 
        6.04756         4.48108         0.25625 
        6.06331         4.44967        0.254484 
        6.07903         4.41756        0.252739 
        6.09473         4.39191        0.251011 
        6.11044          4.3593        0.249298 
        6.12616         4.33396        0.247601 
        6.14186         4.30245        0.245921 
        6.15755         4.27678        0.244257 
        6.17326         4.24992        0.242607 
        6.18898         4.22529        0.240971 
        6.20467         4.20109        0.239353 
        6.22036         4.17736        0.237749 
         6.2361         4.14297        0.236157 
         6.2518            4.13        0.234581 
        6.26748         4.09597        0.233022 
        6.28319          4.0673        0.231474 
        6.29893         4.03785        0.229938 
        6.31463         4.02088        0.228419 
        6.33033         3.99793        0.226913 
        6.34604         3.96821         0.22542 
        6.36177         3.94636        0.223939 
        6.37747         3.92217        0.222474 
