#  k  (h/Mpc)          P(k)  (Mpc/h)^3     P_linear(k) (Mpc/h)^3
      0.0200456         28245.3         24581.8 
      0.0350414         19188.7         17560.5 
      0.0492313         13157.1         12723.5 
      0.0637834         10346.8         10596.7 
      0.0800726         7696.63         8311.79 
       0.096163         5798.97         5977.58 
       0.111083         5151.79         4810.34 
       0.126058         4465.74         4279.77 
       0.142273         3803.63         3574.37 
       0.158546         3236.36         2806.43 
        0.17375         2744.18         2391.74 
       0.188953         2488.18          2172.7 
       0.204907         2178.91         1900.14 
       0.220756          2043.4         1598.69 
        0.23588         1830.33          1402.5 
         0.2514         1678.96         1279.75 
       0.267535         1588.02         1149.04 
       0.283568         1485.21         1008.19 
       0.299022         1353.55         902.637 
       0.314451         1302.89         828.026 
       0.330372         1191.49         756.632 
       0.346141         1160.01         684.083 
       0.361624         1103.06         622.881 
       0.377134         1052.98         574.665 
       0.392932         963.898         531.015 
       0.408854         951.067         488.237 
       0.424564         885.207         450.126 
       0.440253         889.173         417.945 
       0.455999         847.844         389.278 
       0.471626         823.221         362.511 
        0.48727         786.625         337.876 
       0.502856         761.348         316.068 
       0.518488         735.621          296.42 
       0.534347         711.111         277.979 
       0.550082         694.456         261.026 
       0.565732         675.503         245.672 
       0.581496         650.744         231.573 
       0.597222         638.022         218.579 
       0.612804         622.659         206.622 
       0.628434         612.414         195.526 
       0.644267         585.021         185.167 
       0.660051         573.481           175.6 
       0.675724         564.787         166.762 
       0.691403          543.32         158.525 
       0.707174         535.742         150.797 
       0.722871         528.148         143.616 
        0.73838         509.383         136.979 
       0.754018          506.18         130.712 
       0.769845         495.012         124.769 
        0.78569         480.422         119.191 
       0.801365         468.241          114.01 
       0.817031         459.689         109.142 
       0.832809         451.784         104.529 
       0.848511         441.928         100.204 
       0.864097         436.755         96.1556 
       0.879701         429.715         92.3279 
       0.895507         420.606         88.6644 
       0.911279         405.313         85.2082 
        0.92691         403.915         81.9658 
       0.942635         393.712         78.8749 
       0.958396         388.611         75.9376 
       0.974128         381.399         73.1558 
       0.989692          371.93         70.5414 
        1.00528          366.49         68.0514 
        1.02113         362.598          65.643 
        1.03692         350.527         63.3606 
        1.05264         345.177         61.1977 
        1.06832         337.629         59.1395 
        1.08405          334.32         57.1708 
        1.09979         327.754          55.291 
        1.11537         319.629         53.5146 
        1.13105         320.272         51.8061 
        1.14679         308.363         50.1658 
        1.16256          307.31         48.5936 
        1.17828         298.719         47.0942 
        1.19395         296.353         45.6634 
         1.2097         292.833          44.285 
        1.22537         286.651         42.9704 
          1.241         278.216         41.7133 
        1.25666         276.278         40.5035 
        1.27241         272.968         39.3362 
        1.28819         269.245         38.2131 
        1.30392         265.371         37.1373 
        1.31957         261.784         36.1078 
        1.33529         253.661         35.1138 
        1.35108         253.762         34.1533 
        1.36674         249.403         33.2357 
         1.3824         247.307         32.3528 
        1.39811         239.588         31.4991 
        1.41389         237.726          30.673 
        1.42964          232.43         29.8781 
        1.44531          228.34         29.1153 
        1.46101         226.227         28.3776 
        1.47667          222.47         27.6677 
        1.49229         218.434          26.984 
        1.50793         217.119         26.3228 
        1.52367         212.474         25.6795 
        1.53953          209.55         25.0534 
        1.55526         206.327         24.4533 
        1.57092          204.08         23.8753 
        1.58662         200.338         23.3147 
        1.60235          197.47         22.7711 
        1.61809         195.698         22.2445 
        1.63369         191.865         21.7393 
        1.64941         188.738         21.2463 
        1.66519         185.791         20.7668 
        1.68085         183.827         20.3055 
        1.69652         180.753         19.8581 
        1.71228         178.055         19.4217 
        1.72806         176.771         18.9981 
        1.74368         173.252         18.5915 
        1.75933         169.863         18.1959 
        1.77505         168.322           17.81 
        1.79081         166.034         17.4346 
         1.8065         164.457         17.0717 
        1.82218         161.772         16.7195 
        1.83797         159.288         16.3748 
        1.85367         156.318         16.0417 
        1.86928         155.123           15.72 
        1.88497         153.195         15.4053 
        1.90073         151.148         15.0981 
        1.91647         148.352         14.7995 
        1.93218         146.094         14.5097 
        1.94787         144.757         14.2281 
        1.96363          142.79         13.9528 
        1.97935         140.554         13.6854 
        1.99499         139.494         13.4265 
        2.01064         136.698          13.174 
         2.0264         134.935         12.9264 
        2.04216           132.7         12.6853 
        2.05781         130.941         12.4518 
        2.07353         129.379         12.2234 
        2.08928         128.224         12.0003 
        2.10499         126.444         11.7833 
        2.12065         124.374         11.5724 
        2.13633         122.799         11.3664 
        2.15211         121.744         11.1641 
        2.16785         118.956         10.9673 
        2.18349         117.649         10.7766 
        2.19916         117.033         10.5899 
        2.21489         114.592         10.4071 
        2.23063         113.173         10.2284 
         2.2463         111.547         10.0548 
        2.26194         110.504         9.88559 
        2.27765          108.89         9.71944 
        2.29341         107.088         9.55669 
        2.30914         105.929         9.39799 
        2.32486         104.694           9.243 
        2.34061         104.034         9.09125 
        2.35635         102.054         8.94304 
        2.37203         100.947         8.79865 
        2.38768          99.509         8.65775 
        2.40339         98.2178         8.51943 
        2.41914         96.8282         8.38381 
        2.43483         95.9641         8.25163 
         2.4505         94.2928         8.12252 
        2.46622         93.6053         7.99573 
        2.48195         91.9607         7.87164 
        2.49759         91.0746         7.75085 
        2.51328         89.9848         7.63228 
        2.52906         88.9212         7.51545 
        2.54479         87.8841         7.40149 
        2.56049         86.8074         7.29012 
        2.57618         86.0028         7.18114 
        2.59189         84.4173         7.07423 
        2.60758         84.0004         6.96966 
        2.62325         82.5134         6.86734 
        2.63898         81.6854         6.76671 
        2.65468         80.5579         6.66831 
        2.67044         79.3542         6.57145 
        2.68618         78.6653         6.47674 
        2.70184         78.0193         6.38427 
        2.71755         76.6578         6.29338 
        2.73329         76.1042         6.20412 
        2.74897         75.3775         6.11689 
        2.76462         74.1388         6.03152 
        2.78034         73.3005         5.94743 
        2.79607         72.2389         5.86486 
        2.81179         71.5828         5.78395 
        2.82749         70.6699         5.70466 
        2.84321         70.1215         5.62677 
        2.85893         68.8828         5.55035 
        2.87462         68.3851         5.47549 
        2.89033         67.7704         5.40193 
        2.90605         66.7546         5.32967 
        2.92176         66.1706         5.25877 
        2.93747         65.1343         5.18919 
        2.95318         64.5024         5.12086 
        2.96891         63.9506         5.05372 
        2.98456         62.9692         4.98809 
        3.00023         62.3874         4.92353 
        3.01596         61.7592         4.85991 
        3.03164         61.0794         4.79759 
        3.04738         60.4587         4.73619 
         3.0631         59.5174         4.67588 
        3.07883         59.2256         4.61663 
        3.09456         58.5984          4.5584 
        3.11026         57.6628         4.50127 
        3.12596         56.9741         4.44513 
        3.14163          56.626         4.39007 
        3.15734         56.1245         4.33582 
        3.17308         55.3209         4.28236 
        3.18879         54.6083         4.22994 
        3.20447         53.9339         4.17847 
         3.2202         53.4246         4.12771 
         3.2359         52.9156         4.07787 
        3.25157         52.1641         4.02898 
        3.26729         51.6925         3.98074 
        3.28304         51.0706          3.9332 
        3.29877         50.4467          3.8865 
        3.31446         49.8869         3.84065 
        3.33014         49.3706         3.79559 
        3.34585         48.7816         3.75118 
        3.36158         48.4683         3.70741 
        3.37727         47.9251         3.66448 
        3.39294         47.3286         3.62227 
        3.40867         46.7956         3.58057 
        3.42439         46.3872         3.53955 
        3.44008         45.8474         3.49926 
        3.45578         45.3494         3.45956 
        3.47153         44.9869         3.42039 
        3.48724         44.4856         3.38189 
        3.50292         44.0077         3.34408 
        3.51859         43.4546         3.30686 
        3.53431         43.0932         3.27009 
        3.55007         42.6118          3.2338 
        3.56577         42.1818         3.19819 
        3.58146         41.7156         3.16314 
        3.59719         41.2777         3.12853 
        3.61292         40.7612         3.09445 
        3.62859         40.4431         3.06101 
        3.64429         39.9968           3.028 
        3.66003         39.7779         2.99537 
        3.67578         39.1726         2.96324 
        3.69146         38.9155          2.9317 
        3.70712           38.53         2.90067 
        3.72284         38.0625         2.86998 
        3.73853         37.6796         2.83979 
        3.75422         37.3509         2.81002 
        3.76993         36.8768         2.78065 
        3.78564         36.5545         2.75171 
        3.80137         36.2321         2.72314 
        3.81707         35.9032         2.69503 
        3.83279         35.4968          2.6673 
        3.84853         35.1969         2.63991 
        3.86424         34.9269         2.61296 
        3.87992         34.5556         2.58642 
        3.89561         34.1648         2.56026 
        3.91134         33.8358          2.5344 
        3.92704         33.5467         2.50892 
        3.94273         33.2966         2.48383 
        3.95845          32.896         2.45903 
        3.97418         32.5283         2.43456 
        3.98988         32.2756         2.41046 
        4.00554         31.9692         2.38675 
        4.02125         31.6491          2.3633 
        4.03698         31.3668         2.34012 
        4.05268         31.1403          2.3173 
        4.06839         30.8026         2.29477 
         4.0841         30.4481         2.27255 
        4.09983         30.1735         2.25059 
        4.11555         29.8968         2.22894 
        4.13124         29.5923         2.20762 
        4.14693         29.3078         2.18656 
        4.16266         28.9503         2.16574 
        4.17839         28.7205         2.14519 
        4.19408         28.5778         2.12496 
        4.20977         28.3012         2.10498 
        4.22551         28.0502         2.08521 
        4.24123         27.7561         2.06571 
        4.25691         27.4372         2.04652 
        4.27259          27.143         2.02756 
        4.28831         26.9249         2.00881 
        4.30404         26.6969         1.99027 
        4.31974         26.4535         1.97201 
        4.33543         26.2577         1.95399 
        4.35116         25.9652         1.93615 
        4.36688         25.8112         1.91854 
        4.38255         25.4976         1.90121 
        4.39825         25.2758         1.88406 
        4.41398         25.0125         1.86709 
         4.4297          24.811         1.85034 
        4.44541         24.5597         1.83381 
        4.46111         24.3789         1.81748 
        4.47683         24.1519         1.80135 
        4.49251         23.9564         1.78544 
        4.50819         23.7798         1.76973 
         4.5239         23.5556         1.75419 
        4.53962         23.3434         1.73881 
        4.55535         23.1147         1.72361 
        4.57106         22.9326         1.70861 
        4.58678         22.6923         1.69379 
         4.6025          22.561         1.67914 
        4.61821         22.3345         1.66467 
        4.63391         22.1264         1.65038 
         4.6496         21.9225         1.63627 
        4.66532         21.7254          1.6223 
        4.68103         21.4988          1.6085 
        4.69673         21.3749         1.59488 
        4.71241         21.2689         1.58143 
        4.72811         21.0068          1.5681 
        4.74384         20.8325         1.55492 
        4.75955         20.6597         1.54191 
        4.77525          20.433         1.52905 
        4.79096         20.2537         1.51632 
        4.80669         20.1284         1.50374 
         4.8224         19.9308         1.49131 
        4.83809         19.8082         1.47903 
        4.85379         19.5878         1.46688 
         4.8695         19.4613         1.45486 
        4.88521          19.294         1.44298 
        4.90093         19.0621         1.43123 
        4.91663         19.0093         1.41963 
        4.93234         18.8016         1.40813 
        4.94807          18.602         1.39676 
        4.96377          18.459         1.38554 
        4.97943         18.3569         1.37446 
        4.99514         18.1579         1.36347 
        5.01086         18.0521          1.3526 
        5.02654         17.8891         1.34187 
        5.04227         17.7496         1.33123 
          5.058         17.5767          1.3207 
        5.07371         17.4331          1.3103 
        5.08942         17.2847         1.30001 
        5.10513         17.1627         1.28983 
        5.12084         16.9909         1.27976 
        5.13656         16.8492         1.26979 
        5.15225         16.7468         1.25995 
        5.16796         16.5768          1.2502 
        5.18369         16.4449         1.24054 
         5.1994         16.3273           1.231 
        5.21509         16.1897         1.22157 
        5.23079          16.042         1.21222 
        5.24649         15.8817         1.20299 
        5.26217         15.7844         1.19385 
        5.27788         15.6668          1.1848 
        5.29359         15.5406         1.17584 
        5.30933         15.4115         1.16695 
        5.32504           15.29         1.15818 
        5.34073         15.1524          1.1495 
        5.35646          15.046          1.1409 
        5.37218         14.9525         1.13238 
        5.38789         14.8185         1.12397 
        5.40357         14.6873         1.11564 
        5.41929          14.613         1.10739 
        5.43502         14.4494         1.09921 
         5.4507         14.3528         1.09114 
        5.46639         14.2555         1.08315 
        5.48212         14.1223         1.07522 
        5.49786         14.0048         1.06736 
        5.51353         13.9175         1.05962 
        5.52921         13.7824         1.05194 
        5.54495         13.6752         1.04432 
        5.56066         13.5708         1.03679 
        5.57637         13.4604         1.02933 
        5.59207         13.3837         1.02194 
        5.60778         13.2474         1.01463 
        5.62346          13.159          1.0074 
        5.63916         13.0599         1.00024 
        5.65487         12.9607        0.993134 
         5.6706         12.8526        0.986094 
        5.68633         12.7624         0.97912 
        5.70203         12.6364        0.972227 
        5.71773         12.5537        0.965402 
        5.73344         12.4729        0.958639 
        5.74916         12.3906        0.951934 
        5.76486         12.2631        0.945303 
        5.78054         12.1619        0.938744 
        5.79626         12.0795         0.93223 
          5.812         11.9863        0.925771 
         5.8277         11.9087        0.919392 
        5.84339         11.8079        0.913073 
        5.85911         11.6977        0.906801 
        5.87484         11.6268        0.900589 
        5.89053         11.5324        0.894448 
        5.90623         11.4665        0.888361 
        5.92195           11.37         0.88232 
        5.93767         11.2813        0.876339 
        5.95336         11.1788        0.870423 
        5.96905          11.126        0.864563 
        5.98476         11.0294         0.85875 
        6.00048         10.9478        0.852988 
        6.01617         10.8621        0.847286 
        6.03185         10.8019        0.841644 
        6.04756         10.6939        0.836039 
        6.06331         10.6288        0.830473 
        6.07903         10.5564         0.82497 
        6.09473         10.4753        0.819521 
        6.11044          10.384        0.814117 
        6.12616         10.3205        0.808763 
        6.14186         10.2401        0.803462 
        6.15755          10.167        0.798209 
        6.17326         10.1012        0.792998 
        6.18898         10.0039        0.787832 
        6.20467          9.9427        0.782721 
        6.22036         9.87708        0.777655 
         6.2361         9.80398        0.772621 
         6.2518         9.73538        0.767639 
        6.26748         9.68902        0.762713 
        6.28319         9.59112        0.757816 
        6.29893         9.51405        0.752957 
        6.31463         9.45477         0.74815 
        6.33033         9.39259        0.743386 
        6.34604         9.30977         0.73866 
        6.36177         9.27256         0.73397 
        6.37747         9.18796         0.72933 
