# k  (h/Mpc)    Pcb(k)  (Mpc/h)^3    Pcb_linear(k) (Mpc/h)^3   ShotnoiseSubtracted = true
      0.0200456         23270.4         23838.9 
      0.0350414         16495.9           17330 
      0.0492313           12301         12591.7 
      0.0637834         10668.6         10467.4 
      0.0800726         8413.61         8307.68 
       0.096163         5827.74         6027.94 
       0.111083          4695.1         4808.04 
       0.126058         4319.38          4260.9 
       0.142273         3741.52         3609.92 
       0.158546         3295.19         2851.08 
        0.17375         2639.01         2402.03 
       0.188953         2583.15         2174.99 
       0.204907         2426.19         1924.42 
       0.220756         2107.06         1628.18 
        0.23588          1888.2         1416.37 
         0.2514         1645.76         1286.76 
       0.267535          1648.2          1164.3 
       0.283568         1494.35         1026.75 
       0.299022         1415.92         914.784 
       0.314451         1349.02         836.051 
       0.330372         1235.92         766.983 
       0.346141          1192.2         696.154 
       0.361624         1145.34         632.708 
       0.377134          1067.8         582.192 
       0.392932         1022.79          538.69 
       0.408854         1006.27         496.569 
       0.424564         928.143         457.694 
       0.440253         910.853         424.336 
       0.455999         883.356         395.329 
       0.471626         851.365         368.672 
        0.48727         816.027         343.736 
       0.502856         791.546         321.335 
       0.518488         785.074         301.347 
       0.534347         736.504         282.766 
       0.550082         720.235         265.633 
       0.565732         714.646         249.958 
       0.581496         676.576         235.602 
       0.597222          662.09         222.437 
       0.612804         651.252          210.33 
       0.628434           633.1         199.046 
       0.644267         616.415         188.496 
       0.660051         599.564         178.773 
       0.675724         592.615         169.795 
       0.691403         573.294         161.426 
       0.707174         554.494         153.573 
       0.722871         546.877         146.275 
        0.73838          536.38         139.528 
       0.754018         525.718         133.157 
       0.769845         516.429         127.114 
        0.78569         506.497         121.441 
       0.801365          493.47          116.17 
       0.817031         481.171         111.217 
       0.832809         476.429         106.523 
       0.848511         466.013         102.122 
       0.864097         451.351         98.0017 
       0.879701         445.253         94.1055 
       0.895507         443.167         90.3761 
       0.911279         430.892         86.8576 
        0.92691         424.627         83.5563 
       0.942635         413.511         80.4092 
       0.958396           403.1         77.4183 
       0.974128         397.626         74.5855 
       0.989692         395.228         71.9231 
        1.00528          383.25         69.3873 
        1.02113         381.317         66.9345 
        1.03692         370.561         64.6098 
        1.05264         367.607         62.4067 
        1.06832         357.386         60.3102 
        1.08405         352.986         58.3047 
        1.09979         347.307         56.3897 
        1.11537         340.558           54.58 
        1.13105         335.225         52.8392 
        1.14679         326.056         51.1679 
        1.16256         319.766         49.5659 
        1.17828         319.346          48.038 
        1.19395         311.451         46.5799 
         1.2097         305.664         45.1752 
        1.22537         299.667         43.8353 
          1.241         296.276         42.5541 
        1.25666         291.879          41.321 
        1.27241         287.165         40.1312 
        1.28819         282.228         38.9864 
        1.30392         276.163         37.8897 
        1.31957         274.731         36.8402 
        1.33529         269.921         35.8268 
        1.35108          264.04         34.8475 
        1.36674         259.533          33.912 
         1.3824         257.782         33.0118 
        1.39811          253.13         32.1414 
        1.41389           250.3         31.2991 
        1.42964         247.178         30.4885 
        1.44531         243.376         29.7107 
        1.46101         238.639         28.9584 
        1.47667         235.882         28.2345 
        1.49229         233.172         27.5373 
        1.50793          227.16          26.863 
        1.52367         226.013         26.2069 
        1.53953         222.145         25.5684 
        1.55526         218.062         24.9564 
        1.57092         216.118         24.3669 
        1.58662         213.586         23.7951 
        1.60235         209.687         23.2406 
        1.61809         207.222         22.7036 
        1.63369         204.594         22.1883 
        1.64941         200.476         21.6854 
        1.66519         198.776         21.1962 
        1.68085         195.958         20.7257 
        1.69652         193.012         20.2693 
        1.71228         188.397         19.8242 
        1.72806         186.587          19.392 
        1.74368         183.756         18.9772 
        1.75933         180.914         18.5736 
        1.77505         179.599         18.1799 
        1.79081         177.441          17.797 
         1.8065         173.867         17.4267 
        1.82218          172.18         17.0673 
        1.83797         170.657         16.7156 
        1.85367         167.697         16.3758 
        1.86928         164.819         16.0475 
        1.88497         162.848         15.7264 
        1.90073           160.9         15.4129 
        1.91647         159.569         15.1083 
        1.93218          157.15         14.8126 
        1.94787         153.504         14.5252 
        1.96363         151.635         14.2443 
        1.97935         150.724         13.9714 
        1.99499         148.346         13.7073 
        2.01064         146.435         13.4496 
         2.0264         145.052         13.1969 
        2.04216         142.919         12.9508 
        2.05781         141.036         12.7126 
        2.07353         139.607         12.4795 
        2.08928         137.144         12.2518 
        2.10499           135.9         12.0303 
        2.12065         133.526          11.815 
        2.13633         131.953         11.6048 
        2.15211         129.888         11.3984 
        2.16785         128.684         11.1976 
        2.18349         127.409         11.0028 
        2.19916         125.493         10.8123 
        2.21489         124.359         10.6257 
        2.23063         122.096         10.4434 
         2.2463         120.709         10.2661 
        2.26194         118.824         10.0934 
        2.27765         117.761         9.92386 
        2.29341         116.333         9.75774 
        2.30914          115.15         9.59576 
        2.32486         113.307         9.43755 
        2.34061         112.051         9.28265 
        2.35635         110.623         9.13137 
        2.37203         109.514         8.98398 
        2.38768         107.767         8.84016 
        2.40339         106.701         8.69896 
        2.41914         105.231         8.56053 
        2.43483         104.053         8.42559 
         2.4505         102.971          8.2938 
        2.46622         101.751         8.16437 
        2.48195         100.191          8.0377 
        2.49759         99.0447         7.91439 
        2.51328         98.3501         7.79335 
        2.52906         96.9083         7.67408 
        2.54479         95.8958         7.55775 
        2.56049         94.5619         7.44406 
        2.57618         93.6843          7.3328 
        2.59189         92.7191         7.22366 
        2.60758         91.4883         7.11691 
        2.62325          90.134         7.01244 
        2.63898         89.0825         6.90971 
        2.65468         88.0969         6.80926 
        2.67044         87.4372         6.71037 
        2.68618         86.3732         6.61368 
        2.70184         85.6891         6.51928 
        2.71755         84.1821         6.42648 
        2.73329          83.564         6.33535 
        2.74897         82.6277         6.24629 
        2.76462         81.4956         6.15913 
        2.78034         80.7697         6.07328 
        2.79607         79.4524         5.98898 
        2.81179         78.7297         5.90637 
        2.82749         77.9435         5.82541 
        2.84321         77.0641         5.74589 
        2.85893         76.2836         5.66787 
        2.87462         75.4109         5.59143 
        2.89033         74.4176         5.51633 
        2.90605         73.6078         5.44255 
        2.92176         72.6795         5.37015 
        2.93747         72.2086         5.29911 
        2.95318         71.1627         5.22934 
        2.96891         70.6775          5.1608 
        2.98456         69.8941         5.09378 
        3.00023         69.0419         5.02786 
        3.01596         68.1108          4.9629 
        3.03164         67.5572         4.89927 
        3.04738          66.628         4.83658 
         3.0631         65.9299           4.775 
        3.07883         65.5136         4.71449 
        3.09456         64.9583         4.65504 
        3.11026         64.0195         4.59671 
        3.12596         63.2433         4.53938 
        3.14163         62.8714         4.48316 
        3.15734          61.872         4.42776 
        3.17308         61.2619         4.37317 
        3.18879         60.7837         4.31964 
        3.20447         60.0407         4.26709 
         3.2202         59.5524         4.21525 
         3.2359         58.7597         4.16437 
        3.25157         58.2379         4.11444 
        3.26729         57.7297         4.06518 
        3.28304         57.2566         4.01663 
        3.29877         56.5763         3.96894 
        3.31446         55.7012         3.92213 
        3.33014         55.4557         3.87611 
        3.34585         54.6596         3.83076 
        3.36158         54.2844         3.78607 
        3.37727           53.83         3.74223 
        3.39294         52.9936         3.69913 
        3.40867         52.6118         3.65655 
        3.42439          52.167         3.61466 
        3.44008         51.5476         3.57351 
        3.45578         50.9978         3.53297 
        3.47153         50.4928         3.49297 
        3.48724         50.0974         3.45366 
        3.50292         49.7006         3.41504 
        3.51859         49.0689         3.37704 
        3.53431         48.7781         3.33949 
        3.55007         48.2039         3.30242 
        3.56577         47.8482         3.26607 
        3.58146         47.3048         3.23027 
        3.59719         46.7321         3.19493 
        3.61292         46.3341         3.16013 
        3.62859         45.8403         3.12598 
        3.64429         45.3994         3.09226 
        3.66003         45.0848         3.05895 
        3.67578         44.5903         3.02613 
        3.69146         44.1354         2.99392 
        3.70712         43.6519         2.96224 
        3.72284         43.3182         2.93089 
        3.73853         42.8713         2.90006 
        3.75422         42.4125         2.86966 
        3.76993         41.9513         2.83967 
        3.78564         41.6377         2.81011 
        3.80137         41.2436         2.78093 
        3.81707         40.8042         2.75223 
        3.83279          40.441          2.7239 
        3.84853         40.1981         2.69593 
        3.86424         39.6995         2.66841 
        3.87992         39.3212         2.64131 
        3.89561         39.0385         2.61459 
        3.91134         38.5876         2.58818 
        3.92704         38.1966         2.56217 
        3.94273         37.8765         2.53654 
        3.95845         37.6654         2.51121 
        3.97418         37.2944         2.48623 
        3.98988         36.9853         2.46161 
        4.00554          36.604          2.4374 
        4.02125         36.3203         2.41345 
        4.03698          35.908         2.38977 
        4.05268         35.6594         2.36647 
        4.06839         35.2998         2.34347 
         4.0841         34.9757         2.32077 
        4.09983         34.7129         2.29835 
        4.11555         34.3977         2.27623 
        4.13124         34.1462         2.25446 
        4.14693          33.834         2.23296 
        4.16266         33.5258         2.21168 
        4.17839          33.163          2.1907 
        4.19408         32.8694         2.17004 
        4.20977         32.6367         2.14963 
        4.22551         32.3299         2.12944 
        4.24123         32.0795         2.10953 
        4.25691         31.7918         2.08993 
        4.27259         31.4847         2.07057 
        4.28831         31.2152         2.05141 
        4.30404           30.97         2.03248 
        4.31974         30.7091         2.01383 
        4.33543         30.3502         1.99543 
        4.35116         30.2067         1.97721 
        4.36688         29.8959         1.95922 
        4.38255         29.6384         1.94153 
        4.39825         29.4434         1.92401 
        4.41398         29.2122         1.90668 
         4.4297         28.8865         1.88958 
        4.44541         28.7021         1.87269 
        4.46111         28.3964         1.85602 
        4.47683         28.1759         1.83954 
        4.49251         27.9113         1.82329 
        4.50819         27.7297         1.80725 
         4.5239         27.5348         1.79137 
        4.53962         27.2595         1.77567 
        4.55535         27.0735         1.76014 
        4.57106         26.8106         1.74483 
        4.58678         26.6589         1.72969 
         4.6025         26.3269         1.71473 
        4.61821         26.1992         1.69994 
        4.63391         25.9462         1.68536 
         4.6496         25.7241         1.67094 
        4.66532         25.5253         1.65668 
        4.68103         25.3152         1.64259 
        4.69673         25.1053         1.62867 
        4.71241         24.9784         1.61493 
        4.72811         24.6915         1.60132 
        4.74384         24.5785         1.58786 
        4.75955         24.2888         1.57457 
        4.77525         24.1291         1.56144 
        4.79096         23.9479         1.54844 
        4.80669         23.7189         1.53558 
         4.8224         23.5553         1.52289 
        4.83809         23.4166         1.51035 
        4.85379         23.2008         1.49795 
         4.8695         22.9803         1.48567 
        4.88521         22.7929         1.47354 
        4.90093         22.5861         1.46154 
        4.91663         22.4107         1.44968 
        4.93234          22.226         1.43795 
        4.94807          22.129         1.42633 
        4.96377         21.9218         1.41487 
        4.97943          21.691         1.40355 
        4.99514         21.5864         1.39233 
        5.01086         21.4224         1.38123 
        5.02654         21.2285         1.37027 
        5.04227          21.085          1.3594 
          5.058         20.9388         1.34864 
        5.07371         20.7684         1.33802 
        5.08942         20.5444         1.32752 
        5.10513          20.451         1.31712 
        5.12084          20.313         1.30683 
        5.13656         20.1653         1.29665 
        5.15225         19.9666          1.2866 
        5.16796          19.811         1.27664 
        5.18369         19.6296         1.26678 
         5.1994         19.5045         1.25703 
        5.21509         19.3734          1.2474 
        5.23079          19.224         1.23786 
        5.24649         19.1233         1.22842 
        5.26217         18.9518         1.21909 
        5.27788         18.8332         1.20985 
        5.29359         18.6773         1.20069 
        5.30933         18.4583         1.19162 
        5.32504         18.3728         1.18266 
        5.34073         18.2519          1.1738 
        5.35646         18.1053         1.16501 
        5.37218         17.9601         1.15631 
        5.38789         17.8412         1.14772 
        5.40357         17.7202         1.13922 
        5.41929         17.5242         1.13079 
        5.43502         17.4798         1.12244 
         5.4507         17.2872          1.1142 
        5.46639         17.1785         1.10603 
        5.48212         17.0727         1.09793 
        5.49786         16.9207         1.08991 
        5.51353         16.7933           1.082 
        5.52921         16.6905         1.07416 
        5.54495          16.567         1.06638 
        5.56066         16.4446         1.05868 
        5.57637         16.3129         1.05106 
        5.59207         16.1895         1.04352 
        5.60778         16.0358         1.03605 
        5.62346          15.964         1.02867 
        5.63916         15.8682         1.02135 
        5.65487          15.756          1.0141 
         5.6706         15.6371         1.00691 
        5.68633         15.5217        0.999785 
        5.70203         15.3821        0.992745 
        5.71773          15.324        0.985775 
        5.73344         15.1808        0.978867 
        5.74916         15.0837        0.972019 
        5.76486         14.9934        0.965247 
        5.78054         14.8728        0.958549 
        5.79626         14.7436        0.951895 
          5.812         14.6911        0.945299 
         5.8277         14.5319        0.938784 
        5.84339         14.4482         0.93233 
        5.85911         14.3738        0.925925 
        5.87484         14.2417         0.91958 
        5.89053         14.1345        0.913308 
        5.90623         14.0632        0.907092 
        5.92195         13.9569        0.900922 
        5.93767         13.8498        0.894813 
        5.95336         13.7675        0.888771 
        5.96905         13.6642        0.882787 
        5.98476         13.5736        0.876849 
        6.00048         13.4654        0.870964 
        6.01617         13.4023        0.865141 
        6.03185         13.2827        0.859379 
        6.04756         13.1862        0.853654 
        6.06331         13.1152         0.84797 
        6.07903         13.0232         0.84235 
        6.09473         12.9362        0.836785 
        6.11044         12.8245        0.831266 
        6.12616         12.7456        0.825797 
        6.14186         12.6323        0.820383 
        6.15755         12.5616        0.815018 
        6.17326         12.4939        0.809697 
        6.18898         12.4212         0.80442 
        6.20467         12.3325          0.7992 
        6.22036         12.2479        0.794027 
         6.2361         12.1519        0.788885 
         6.2518          12.074        0.783798 
        6.26748         11.9933        0.778766 
        6.28319         11.9121        0.773765 
        6.29893          11.826        0.768803 
        6.31463         11.7473        0.763893 
        6.33033         11.6982        0.759028 
        6.34604         11.6107        0.754201 
        6.36177         11.5145        0.749412 
        6.37747          11.453        0.744673 
