# k  (h/Mpc)    Pcb(k)  (Mpc/h)^3    Pcb_linear(k) (Mpc/h)^3   ShotnoiseSubtracted = true
      0.0200456         11059.8         11271.6 
      0.0350414         7951.01         8194.04 
      0.0492313         5902.05         5953.63 
      0.0637834         5045.26          4949.2 
      0.0800726         3992.34         3928.06 
       0.096163         2790.71         2850.15 
       0.111083         2219.95         2273.35 
       0.126058         2044.64         2014.65 
       0.142273         1765.99         1706.85 
       0.158546         1476.42         1348.06 
        0.17375         1185.04         1135.74 
       0.188953         1142.65         1028.38 
       0.204907         1072.76          909.91 
       0.220756         911.448         769.839 
        0.23588         802.248         669.693 
         0.2514         700.822         608.409 
       0.267535         682.109         550.506 
       0.283568         618.301         485.472 
       0.299022         576.128         432.531 
       0.314451          540.62         395.304 
       0.330372         498.674         362.647 
       0.346141          452.63         329.157 
       0.361624         435.093         299.159 
       0.377134         404.793         275.273 
       0.392932         383.273         254.705 
       0.408854         367.743         234.789 
       0.424564         349.613         216.408 
       0.440253         337.426         200.635 
       0.455999          317.46          186.92 
       0.471626         296.057         174.317 
        0.48727         287.333         162.526 
       0.502856         277.706         151.934 
       0.518488         274.289         142.484 
       0.534347         258.198         133.698 
       0.550082          242.61         125.597 
       0.565732         238.735         118.186 
       0.581496         226.528         111.398 
       0.597222         221.045         105.173 
       0.612804         213.094         99.4489 
       0.628434         205.766         94.1134 
       0.644267         199.055         89.1253 
       0.660051         196.587          84.528 
       0.675724         192.176         80.2829 
       0.691403         186.628         76.3257 
       0.707174         178.768          72.613 
       0.722871          177.19          69.162 
        0.73838         173.295         65.9722 
       0.754018         168.105         62.9595 
       0.769845         163.225         60.1022 
        0.78569         161.071         57.4198 
       0.801365         156.289         54.9279 
       0.817031          151.15         52.5861 
       0.832809          149.02         50.3666 
       0.848511         145.259         48.2858 
       0.864097         142.761         46.3374 
       0.879701         139.646         44.4952 
       0.895507         136.155         42.7319 
       0.911279         133.493         41.0682 
        0.92691         132.196         39.5073 
       0.942635         128.905         38.0193 
       0.958396         128.612         36.6051 
       0.974128         124.946         35.2657 
       0.989692         121.886         34.0069 
        1.00528         119.577         32.8079 
        1.02113         118.815         31.6481 
        1.03692          114.29          30.549 
        1.05264         113.633         29.5073 
        1.06832         111.056          28.516 
        1.08405         109.579         27.5678 
        1.09979          109.02         26.6623 
        1.11537          105.38         25.8066 
        1.13105         105.114         24.9836 
        1.14679         103.961         24.1933 
        1.16256         102.424         23.4359 
        1.17828         99.8271         22.7135 
        1.19395         98.5994          22.024 
         1.2097         96.4568         21.3598 
        1.22537         96.4374         20.7263 
          1.241         94.1886         20.1205 
        1.25666         92.3291         19.5375 
        1.27241         91.1692         18.9749 
        1.28819         89.7567         18.4336 
        1.30392         88.6589         17.9151 
        1.31957         87.3779         17.4189 
        1.33529         85.7973         16.9397 
        1.35108         84.9086         16.4767 
        1.36674         83.9585         16.0344 
         1.3824         82.3977         15.6087 
        1.39811         81.5248         15.1972 
        1.41389         80.3157         14.7989 
        1.42964         79.3185         14.4157 
        1.44531         77.6265         14.0479 
        1.46101         76.7165         13.6922 
        1.47667         76.5062         13.3499 
        1.49229         74.9497         13.0203 
        1.50793         74.4486         12.7014 
        1.52367         73.2431         12.3912 
        1.53953         72.1596         12.0893 
        1.55526         71.4884         11.7999 
        1.57092         71.2019         11.5212 
        1.58662         69.6211         11.2509 
        1.60235         69.1267         10.9887 
        1.61809         68.1542         10.7348 
        1.63369         67.1515         10.4911 
        1.64941         66.5229         10.2533 
        1.66519         65.1827         10.0221 
        1.68085         64.7613         9.79958 
        1.69652         63.6199         9.58381 
        1.71228         63.3014         9.37332 
        1.72806         62.5539           9.169 
        1.74368         61.7525         8.97283 
        1.75933         60.9823         8.78202 
        1.77505         60.4272         8.59588 
        1.79081         59.5607         8.41481 
         1.8065         59.0276         8.23974 
        1.82218         58.1824         8.06982 
        1.83797         57.5849         7.90354 
        1.85367         56.9269         7.74286 
        1.86928         56.4069         7.58763 
        1.88497         55.6463         7.43581 
        1.90073         54.8919         7.28759 
        1.91647         54.5876         7.14355 
        1.93218         53.8654         7.00372 
        1.94787          53.256         6.86784 
        1.96363         52.5458         6.73503 
        1.97935         52.1608         6.60602 
        1.99499          51.374         6.48111 
        2.01064         51.2073         6.35926 
         2.0264         49.9461         6.23978 
        2.04216         49.7183         6.12344 
        2.05781         49.0962          6.0108 
        2.07353         48.5729         5.90059 
        2.08928         48.0017         5.79291 
        2.10499         47.6227         5.68821 
        2.12065         47.0147         5.58642 
        2.13633         46.7867         5.48703 
        2.15211         46.3774         5.38942 
        2.16785         45.4853         5.29446 
        2.18349         45.1982         5.20238 
        2.19916         44.7435         5.11231 
        2.21489          44.285         5.02407 
        2.23063         43.6305         4.93786 
         2.2463          43.224         4.85406 
        2.26194         42.5417         4.77241 
        2.27765         42.1244         4.69223 
        2.29341         41.6311         4.61368 
        2.30914         41.1575         4.53709 
        2.32486         40.6061         4.46229 
        2.34061         40.3436         4.38905 
        2.35635         39.8948         4.31752 
        2.37203         39.4096         4.24783 
        2.38768          39.034         4.17983 
        2.40339         38.7741         4.11307 
        2.41914         38.3969         4.04761 
        2.43483         37.7638         3.98381 
         2.4505         37.4926          3.9215 
        2.46622         37.1204          3.8603 
        2.48195         36.7517         3.80041 
        2.49759         36.3172          3.7421 
        2.51328         35.8225         3.68487 
        2.52906         35.6239         3.62848 
        2.54479         35.0401         3.57347 
        2.56049         34.7289         3.51972 
        2.57618         34.4137         3.46712 
        2.59189         34.0793         3.41551 
        2.60758         33.8401         3.36503 
        2.62325         33.3712         3.31564 
        2.63898          33.065         3.26707 
        2.65468         32.7011         3.21957 
        2.67044         32.3448         3.17282 
        2.68618         32.0896          3.1271 
        2.70184         31.7065         3.08246 
        2.71755         31.5397         3.03859 
        2.73329          31.165          2.9955 
        2.74897         30.8124         2.95339 
        2.76462         30.4098         2.91218 
        2.78034         30.2923         2.87158 
        2.79607          29.941         2.83172 
        2.81179         29.6795         2.79267 
        2.82749         29.3869         2.75439 
        2.84321         28.9431         2.71678 
        2.85893         28.6993          2.6799 
        2.87462         28.4264         2.64375 
        2.89033         28.1634         2.60825 
        2.90605         27.9804         2.57336 
        2.92176          27.798         2.53913 
        2.93747         27.4066         2.50554 
        2.95318         27.0341         2.47255 
        2.96891         26.8629         2.44014 
        2.98456         26.5113         2.40846 
        3.00023         26.2737         2.37729 
        3.01596         26.0077         2.34657 
        3.03164         25.8402         2.31649 
        3.04738         25.6067         2.28684 
         3.0631         25.3468         2.25773 
        3.07883         25.0815         2.22912 
        3.09456         24.7816         2.20101 
        3.11026         24.5713         2.17343 
        3.12596         24.3938         2.14632 
        3.14163         24.1371         2.11974 
        3.15734         23.9037         2.09355 
        3.17308         23.6511         2.06773 
        3.18879         23.4867         2.04242 
        3.20447         23.2111         2.01758 
         3.2202         22.9978         1.99307 
         3.2359         22.7318         1.96901 
        3.25157         22.7053          1.9454 
        3.26729         22.3997         1.92211 
        3.28304         22.1814         1.89916 
        3.29877         21.9002         1.87661 
        3.31446         21.7045         1.85447 
        3.33014         21.5076         1.83271 
        3.34585         21.3688         1.81127 
        3.36158          21.107         1.79014 
        3.37727         20.9039         1.76941 
        3.39294         20.7739         1.74903 
        3.40867         20.5608          1.7289 
        3.42439         20.3784         1.70909 
        3.44008         20.1917         1.68964 
        3.45578         20.0091         1.67047 
        3.47153         19.7624         1.65155 
        3.48724         19.6204         1.63297 
        3.50292          19.487         1.61471 
        3.51859         19.2653         1.59674 
        3.53431         19.0907         1.57899 
        3.55007         18.8956         1.56146 
        3.56577         18.7052         1.54427 
        3.58146         18.5913         1.52735 
        3.59719         18.3729         1.51063 
        3.61292         18.2316         1.49418 
        3.62859         18.0715         1.47803 
        3.64429         17.9255         1.46209 
        3.66003         17.7876         1.44634 
        3.67578         17.5698         1.43082 
        3.69146         17.4838         1.41559 
        3.70712         17.2947         1.40061 
        3.72284         17.2129         1.38579 
        3.73853         16.9859         1.37121 
        3.75422         16.7872         1.35684 
        3.76993         16.6942         1.34266 
        3.78564         16.5398         1.32868 
        3.80137         16.3693         1.31489 
        3.81707         16.2184         1.30132 
        3.83279         16.1007         1.28792 
        3.84853         15.9327          1.2747 
        3.86424         15.8202         1.26169 
        3.87992         15.6782         1.24887 
        3.89561         15.4987         1.23624 
        3.91134         15.4238         1.22375 
        3.92704         15.2704         1.21145 
        3.94273         15.1482         1.19933 
        3.95845         14.9766         1.18736 
        3.97418         14.9036         1.17554 
        3.98988         14.7291         1.16391 
        4.00554         14.6259         1.15246 
        4.02125         14.5077         1.14113 
        4.03698         14.4277         1.12994 
        4.05268         14.2354         1.11892 
        4.06839         14.1283         1.10804 
         4.0841         14.0288         1.09731 
        4.09983         13.8737         1.08671 
        4.11555         13.7553         1.07625 
        4.13124         13.6579         1.06596 
        4.14693         13.5414         1.05579 
        4.16266         13.4263         1.04573 
        4.17839         13.2964         1.03581 
        4.19408         13.1736         1.02604 
        4.20977         13.1192          1.0164 
        4.22551         12.9639         1.00685 
        4.24123         12.8796        0.997434 
        4.25691         12.7759        0.988165 
        4.27259         12.6415        0.979011 
        4.28831         12.5169        0.969954 
        4.30404         12.4436        0.961004 
        4.31974         12.3268        0.952186 
        4.33543         12.2472        0.943483 
        4.35116         12.1549        0.934868 
        4.36688         12.0147        0.926364 
        4.38255         11.9211        0.917998 
        4.39825         11.8257        0.909716 
        4.41398         11.7846         0.90152 
         4.4297         11.6287        0.893434 
        4.44541         11.5379        0.885449 
        4.46111         11.4496        0.877567 
        4.47683         11.3774        0.869775 
        4.49251         11.2759        0.862094 
        4.50819         11.2035        0.854507 
         4.5239         11.1012        0.847001 
        4.53962         11.0196        0.839575 
        4.55535         10.9162        0.832235 
        4.57106         10.8176        0.824993 
        4.58678         10.7221        0.817836 
         4.6025          10.652        0.810762 
        4.61821         10.5741        0.803772 
        4.63391         10.4804        0.796874 
         4.6496         10.3932         0.79006 
        4.66532         10.3053        0.783315 
        4.68103         10.2413        0.776652 
        4.69673          10.153        0.770072 
        4.71241         10.0512        0.763575 
        4.72811         9.97892        0.757142 
        4.74384         9.92968        0.750776 
        4.75955          9.8304        0.744492 
        4.77525          9.7489        0.738283 
        4.79096         9.70024        0.732138 
        4.80669         9.61756        0.726059 
         4.8224         9.55258        0.720057 
        4.83809         9.46487        0.714128 
        4.85379         9.39247        0.708263 
         4.8695          9.3522        0.702458 
        4.88521         9.24551        0.696722 
        4.90093         9.17439        0.691048 
        4.91663         9.11867        0.685442 
        4.93234         9.05874        0.679893 
        4.94807         8.96839        0.674402 
        4.96377         8.89676        0.668981 
        4.97943         8.83809        0.663631 
        4.99514         8.78169        0.658326 
        5.01086          8.7182        0.653075 
        5.02654         8.64585        0.647895 
        5.04227         8.58752        0.642755 
          5.058         8.49574        0.637669 
        5.07371         8.45761        0.632648 
        5.08942         8.39866         0.62768 
        5.10513          8.3239        0.622765 
        5.12084         8.25786          0.6179 
        5.13656         8.20547        0.613088 
        5.15225          8.1456        0.608335 
        5.16796         8.09195        0.603625 
        5.18369         8.03618         0.59896 
         5.1994         7.94025        0.594354 
        5.21509         7.91233        0.589799 
        5.23079         7.84838        0.585288 
        5.24649         7.79377        0.580826 
        5.26217         7.73389        0.576415 
        5.27788         7.67845        0.572043 
        5.29359         7.61838        0.567715 
        5.30933         7.55648        0.563426 
        5.32504         7.50725        0.559189 
        5.34073         7.47509        0.554999 
        5.35646         7.39233        0.550845 
        5.37218         7.35756        0.546731 
        5.38789         7.29647        0.542667 
        5.40357         7.25237        0.538648 
        5.41929         7.19694        0.534661 
        5.43502         7.14323        0.530714 
         5.4507         7.09969        0.526817 
        5.46639         7.06787        0.522958 
        5.48212         7.00824        0.519128 
        5.49786         6.96996        0.515332 
        5.51353         6.89806        0.511593 
        5.52921          6.8533        0.507887 
        5.54495         6.81427        0.504207 
        5.56066         6.76386        0.500568 
        5.57637         6.69911        0.496965 
        5.59207         6.67024          0.4934 
        5.60778         6.60386         0.48987 
        5.62346         6.56865        0.486378 
        5.63916         6.52347        0.482917 
        5.65487         6.48775        0.479488 
         5.6706         6.42833        0.476089 
        5.68633         6.38585        0.472721 
        5.70203          6.3552        0.469392 
        5.71773         6.30885        0.466097 
        5.73344         6.26182        0.462831 
        5.74916         6.22498        0.459593 
        5.76486         6.18741         0.45639 
        5.78054         6.14178        0.453223 
        5.79626         6.09441        0.450078 
          5.812         6.06086        0.446959 
         5.8277         6.01963        0.443878 
        5.84339         5.96558        0.440827 
        5.85911         5.94134        0.437798 
        5.87484         5.89362        0.434798 
        5.89053         5.85536        0.431833 
        5.90623         5.81671        0.428893 
        5.92195         5.75947        0.425976 
        5.93767          5.7436        0.423088 
        5.95336          5.6959        0.420231 
        5.96905         5.67211        0.417402 
        5.98476         5.62482        0.414594 
        6.00048         5.60019        0.411812 
        6.01617         5.55476        0.409058 
        6.03185         5.53034        0.406334 
        6.04756         5.48179        0.403627 
        6.06331         5.44752         0.40094 
        6.07903         5.41912        0.398282 
        6.09473         5.37268        0.395651 
        6.11044         5.33924        0.393041 
        6.12616         5.31281        0.390456 
        6.14186         5.27398        0.387896 
        6.15755          5.2369        0.385359 
        6.17326         5.20158        0.382843 
        6.18898          5.1642        0.380348 
        6.20467          5.1413         0.37788 
        6.22036         5.11157        0.375434 
         6.2361         5.07441        0.373003 
         6.2518         5.04328        0.370597 
        6.26748         5.01759        0.368218 
        6.28319         4.97392        0.365853 
        6.29893         4.94714        0.363507 
        6.31463         4.92468        0.361186 
        6.33033         4.88116        0.358885 
        6.34604         4.86702        0.356603 
        6.36177         4.82948        0.354339 
        6.37747         4.79513        0.352098 
