# k  (h/Mpc)    Pcb(k)  (Mpc/h)^3    Pcb_linear(k) (Mpc/h)^3   ShotnoiseSubtracted = true
      0.0200456         22933.5         23490.4 
      0.0350414         16262.3         17076.8 
      0.0492313         12125.8         12407.6 
      0.0637834           10513         10314.4 
      0.0800726         8291.65         8186.25 
       0.096163            5744         5939.84 
       0.111083         4625.65         4737.77 
       0.126058         4256.22         4198.63 
       0.142273         3686.59         3557.16 
       0.158546         3242.93         2809.41 
        0.17375          2596.5         2366.93 
       0.188953         2541.07          2143.2 
       0.204907         2386.79         1896.29 
       0.220756         2072.04         1604.38 
        0.23588         1855.81         1395.67 
         0.2514         1617.06         1267.95 
       0.267535         1619.01         1147.28 
       0.283568         1467.82         1011.75 
       0.299022         1390.29         901.414 
       0.314451         1324.67         823.831 
       0.330372         1213.94         755.773 
       0.346141         1169.05         685.979 
       0.361624          1123.1         623.461 
       0.377134         1046.72         573.682 
       0.392932         1002.97         530.817 
       0.408854         986.198         489.311 
       0.424564         910.043         451.005 
       0.440253         893.247         418.134 
       0.455999         865.144         389.551 
       0.471626         833.709         363.284 
        0.48727         799.033         338.712 
       0.502856         775.395         316.638 
       0.518488         768.623         296.943 
       0.534347         720.928         278.633 
       0.550082         704.469          261.75 
       0.565732         699.454         246.305 
       0.581496         661.776         232.159 
       0.597222          647.87         219.185 
       0.612804         636.889         207.256 
       0.628434         619.034         196.137 
       0.644267          602.69         185.741 
       0.660051         585.811          176.16 
       0.675724         579.222         167.313 
       0.691403         560.166         159.066 
       0.707174         541.778         151.329 
       0.722871         534.566         144.137 
        0.73838         524.322         137.489 
       0.754018         513.598         131.211 
       0.769845         504.412         125.256 
        0.78569         494.743         119.666 
       0.801365         482.074         114.472 
       0.817031         469.686         109.592 
       0.832809         465.246         104.966 
       0.848511         455.026          100.63 
       0.864097         440.819         96.5693 
       0.879701         434.892         92.7301 
       0.895507         432.661         89.0552 
       0.911279         420.438         85.5881 
        0.92691         414.363         82.3351 
       0.942635         403.648          79.234 
       0.958396         393.449         76.2867 
       0.974128         387.949         73.4954 
       0.989692          385.54         70.8719 
        1.00528         374.075         68.3732 
        1.02113         372.218         65.9562 
        1.03692         361.502         63.6655 
        1.05264         358.855         61.4946 
        1.06832         348.805         59.4287 
        1.08405         344.466         57.4526 
        1.09979         338.799         55.5655 
        1.11537         332.227         53.7822 
        1.13105         326.944         52.0669 
        1.14679           318.2           50.42 
        1.16256         312.116         48.8415 
        1.17828         311.607         47.3359 
        1.19395         303.777         45.8991 
         1.2097         298.542         44.5149 
        1.22537         292.522         43.1947 
          1.241         289.483         41.9321 
        1.25666         284.893         40.7171 
        1.27241         280.416         39.5446 
        1.28819         275.701         38.4166 
        1.30392         269.612         37.3359 
        1.31957         268.512         36.3018 
        1.33529         263.523         35.3031 
        1.35108          257.79         34.3382 
        1.36674         253.554         33.4164 
         1.3824         251.955         32.5293 
        1.39811          247.42         31.6716 
        1.41389         244.603         30.8417 
        1.42964         241.625         30.0429 
        1.44531         237.818         29.2765 
        1.46101         233.352         28.5352 
        1.47667         230.624         27.8218 
        1.49229          228.02         27.1349 
        1.50793         222.147         26.4704 
        1.52367         220.973         25.8239 
        1.53953         217.295         25.1947 
        1.55526         213.061         24.5916 
        1.57092         211.309         24.0108 
        1.58662         208.805         23.4473 
        1.60235          204.99          22.901 
        1.61809         202.704         22.3717 
        1.63369         199.966          21.864 
        1.64941         195.928         21.3684 
        1.66519         194.359         20.8864 
        1.68085         191.542         20.4228 
        1.69652         188.656         19.9731 
        1.71228         184.258         19.5344 
        1.72806         182.536         19.1086 
        1.74368         179.762         18.6998 
        1.75933         176.871         18.3021 
        1.77505         175.657         17.9142 
        1.79081         173.598         17.5369 
         1.8065         170.169          17.172 
        1.82218         168.498         16.8179 
        1.83797         166.901         16.4713 
        1.85367         164.028         16.1365 
        1.86928         161.233          15.813 
        1.88497         159.302         15.4966 
        1.90073         157.507         15.1877 
        1.91647          156.05         14.8875 
        1.93218         153.821         14.5961 
        1.94787         150.285         14.3129 
        1.96363         148.406         14.0361 
        1.97935         147.619         13.7672 
        1.99499         145.125         13.5069 
        2.01064         143.346          13.253 
         2.0264         141.917          13.004 
        2.04216         139.864         12.7615 
        2.05781         138.125         12.5268 
        2.07353          136.68         12.2971 
        2.08928         134.253         12.0727 
        2.10499         133.036         11.8545 
        2.12065          130.66         11.6424 
        2.13633         129.296         11.4352 
        2.15211         127.134         11.2318 
        2.16785         125.929         11.0339 
        2.18349         124.734          10.842 
        2.19916         122.878         10.6543 
        2.21489         121.735         10.4704 
        2.23063         119.475         10.2907 
         2.2463         118.193         10.1161 
        2.26194         116.329         9.94592 
        2.27765           115.3         9.77882 
        2.29341          113.85         9.61512 
        2.30914         112.764         9.45551 
        2.32486         110.939         9.29961 
        2.34061         109.726         9.14698 
        2.35635         108.351          8.9979 
        2.37203         107.205         8.85267 
        2.38768         105.551         8.71095 
        2.40339         104.498         8.57182 
        2.41914         103.038         8.43541 
        2.43483         101.925         8.30245 
         2.4505         100.872         8.17258 
        2.46622         99.6802         8.04504 
        2.48195         98.1917         7.92022 
        2.49759          96.989         7.79872 
        2.51328          96.386         7.67945 
        2.52906         94.9202         7.56192 
        2.54479         93.9493         7.44729 
        2.56049         92.7057         7.33526 
        2.57618         91.7583         7.22563 
        2.59189         90.7823         7.11808 
        2.60758         89.6054         7.01289 
        2.62325         88.3515         6.90995 
        2.63898          87.292         6.80872 
        2.65468         86.3293         6.70974 
        2.67044         85.6797         6.61229 
        2.68618         84.5991         6.51701 
        2.70184         84.0117         6.42399 
        2.71755         82.5206         6.33255 
        2.73329         81.9209         6.24276 
        2.74897         80.9965         6.15499 
        2.76462         79.8317         6.06911 
        2.78034          79.207         5.98452 
        2.79607         77.8533         5.90144 
        2.81179          77.132         5.82004 
        2.82749         76.3578         5.74027 
        2.84321         75.5802          5.6619 
        2.85893         74.7742         5.58503 
        2.87462         73.8896         5.50971 
        2.89033         72.9181         5.43571 
        2.90605         72.1381           5.363 
        2.92176           71.25         5.29166 
        2.93747         70.8198         5.22166 
        2.95318         69.7533         5.15291 
        2.96891         69.3027         5.08537 
        2.98456         68.5483         5.01933 
        3.00023         67.6794         4.95437 
        3.01596         66.8167         4.89036 
        3.03164         66.2038         4.82767 
        3.04738          65.352         4.76589 
         3.0631         64.6598         4.70521 
        3.07883         64.2571         4.64558 
        3.09456         63.6573           4.587 
        3.11026         62.7511         4.52952 
        3.12596         62.0105         4.47303 
        3.14163         61.6136         4.41763 
        3.15734         60.6674         4.36305 
        3.17308          60.049         4.30925 
        3.18879         59.6052         4.25651 
        3.20447         58.8546         4.20472 
         3.2202         58.4031         4.15364 
         3.2359         57.6085          4.1035 
        3.25157         57.0681          4.0543 
        3.26729         56.6149         4.00577 
        3.28304         56.1683         3.95793 
        3.29877         55.4864         3.91093 
        3.31446         54.5958          3.8648 
        3.33014         54.3979         3.81946 
        3.34585         53.5864         3.77477 
        3.36158         53.2247         3.73073 
        3.37727         52.7605         3.68754 
        3.39294         51.9852         3.64506 
        3.40867         51.5839          3.6031 
        3.42439           51.15         3.56183 
        3.44008         50.5562         3.52128 
        3.45578         50.0002         3.48133 
        3.47153         49.5113         3.44192 
        3.48724         49.0898         3.40318 
        3.50292         48.7302         3.36513 
        3.51859         48.1049         3.32768 
        3.53431         47.8167         3.29068 
        3.55007          47.231         3.25416 
        3.56577          46.893         3.21833 
        3.58146         46.3463         3.18306 
        3.59719         45.8274         3.14823 
        3.61292         45.4173         3.11394 
        3.62859         44.9463         3.08029 
        3.64429          44.505         3.04707 
        3.66003         44.1969         3.01424 
        3.67578         43.6855          2.9819 
        3.69146         43.2908         2.95016 
        3.70712         42.7858         2.91894 
        3.72284         42.4411         2.88806 
        3.73853         42.0259         2.85767 
        3.75422         41.5476         2.82772 
        3.76993         41.1335         2.79816 
        3.78564         40.7973         2.76904 
        3.80137         40.4177         2.74029 
        3.81707         40.0081           2.712 
        3.83279         39.6338         2.68409 
        3.84853         39.3936         2.65653 
        3.86424         38.9028         2.62941 
        3.87992         38.5868         2.60271 
        3.89561         38.2801         2.57638 
        3.91134         37.8198         2.55035 
        3.92704         37.4695         2.52472 
        3.94273         37.1601         2.49947 
        3.95845         36.9707         2.47451 
        3.97418         36.5838         2.44989 
        3.98988         36.2806         2.42564 
        4.00554         35.8888         2.40178 
        4.02125         35.6525         2.37817 
        4.03698         35.2432         2.35485 
        4.05268          35.003         2.33189 
        4.06839         34.6505         2.30922 
         4.0841          34.315         2.28685 
        4.09983         34.0496         2.26476 
        4.11555         33.7502         2.24296 
        4.13124         33.5076         2.22151 
        4.14693         33.1821         2.20032 
        4.16266         32.8966         2.17936 
        4.17839         32.5342         2.15868 
        4.19408         32.2555         2.13832 
        4.20977         32.0004         2.11822 
        4.22551         31.6958         2.09832 
        4.24123         31.4666          2.0787 
        4.25691         31.1856         2.05938 
        4.27259         30.8832          2.0403 
        4.28831         30.6153         2.02143 
        4.30404         30.3859         2.00278 
        4.31974         30.1064          1.9844 
        4.33543         29.7672         1.96626 
        4.35116         29.6251         1.94831 
        4.36688         29.3419         1.93059 
        4.38255         29.0817         1.91315 
        4.39825         28.8716         1.89589 
        4.41398         28.6645         1.87881 
         4.4297         28.3168         1.86196 
        4.44541         28.1466         1.84532 
        4.46111         27.8512         1.82889 
        4.47683         27.6383         1.81265 
        4.49251         27.3574         1.79664 
        4.50819         27.2011         1.78083 
         4.5239         26.9986         1.76519 
        4.53962         26.7407         1.74971 
        4.55535         26.5702         1.73442 
        4.57106         26.2847         1.71932 
        4.58678         26.1468         1.70441 
         4.6025         25.8037         1.68966 
        4.61821         25.6838          1.6751 
        4.63391          25.441         1.66072 
         4.6496         25.2184         1.64652 
        4.66532         25.0269         1.63246 
        4.68103         24.8199         1.61858 
        4.69673         24.6145         1.60487 
        4.71241         24.5018         1.59133 
        4.72811         24.1927         1.57792 
        4.74384         24.0862         1.56465 
        4.75955         23.8269         1.55156 
        4.77525         23.6338         1.53862 
        4.79096         23.4885         1.52581 
        4.80669         23.2526         1.51314 
         4.8224         23.1076         1.50063 
        4.83809         22.9573         1.48828 
        4.85379         22.7247         1.47605 
         4.8695         22.5311         1.46396 
        4.88521         22.3369           1.452 
        4.90093         22.1403         1.44018 
        4.91663         21.9758         1.42849 
        4.93234         21.8168         1.41693 
        4.94807         21.6807         1.40548 
        4.96377         21.4814         1.39419 
        4.97943         21.2713         1.38304 
        4.99514         21.1722         1.37198 
        5.01086         21.0099         1.36104 
        5.02654         20.8155         1.35024 
        5.04227         20.6845         1.33953 
          5.058         20.5374         1.32893 
        5.07371          20.366         1.31847 
        5.08942         20.1414         1.30811 
        5.10513         20.0579         1.29787 
        5.12084         19.9104         1.28773 
        5.13656         19.7564          1.2777 
        5.15225         19.5693          1.2678 
        5.16796         19.4309         1.25798 
        5.18369         19.2473         1.24826 
         5.1994         19.1374         1.23866 
        5.21509         18.9876         1.22917 
        5.23079         18.8603         1.21977 
        5.24649         18.7351         1.21047 
        5.26217         18.5927         1.20128 
        5.27788         18.4607         1.19216 
        5.29359         18.3059         1.18315 
        5.30933         18.0997         1.17421 
        5.32504         18.0152         1.16538 
        5.34073         17.8846         1.15664 
        5.35646         17.7449         1.14799 
        5.37218         17.6051         1.13941 
        5.38789         17.4936         1.13094 
        5.40357         17.3622         1.12257 
        5.41929         17.1958         1.11426 
        5.43502         17.1286         1.10603 
         5.4507         16.9617         1.09791 
        5.46639         16.8401         1.08987 
        5.48212         16.7496         1.08189 
        5.49786         16.5836         1.07398 
        5.51353         16.4656         1.06618 
        5.52921         16.3705         1.05846 
        5.54495         16.2465         1.05079 
        5.56066         16.1241         1.04321 
        5.57637         15.9922          1.0357 
        5.59207         15.8766         1.02827 
        5.60778         15.7261         1.02091 
        5.62346           15.66         1.01363 
        5.63916         15.5628         1.00642 
        5.65487         15.4383        0.999276 
         5.6706         15.3344        0.992191 
        5.68633           15.22        0.985172 
        5.70203         15.0899        0.978235 
        5.71773         15.0174        0.971367 
        5.73344         14.8743         0.96456 
        5.74916         14.7939        0.957813 
        5.76486         14.7037        0.951139 
        5.78054         14.5826        0.944539 
        5.79626         14.4597        0.937983 
          5.812         14.4021        0.931482 
         5.8277          14.259        0.925063 
        5.84339         14.1676        0.918703 
        5.85911         14.0886        0.912391 
        5.87484         13.9611         0.90614 
        5.89053         13.8633        0.899959 
        5.90623         13.7922        0.893834 
        5.92195         13.6857        0.887754 
        5.93767         13.5769        0.881735 
        5.95336         13.4895        0.875781 
        5.96905         13.3995        0.869884 
        5.98476         13.3124        0.864033 
        6.00048          13.198        0.858235 
        6.01617         13.1365        0.852497 
        6.03185         13.0203        0.846818 
        6.04756          12.921        0.841178 
        6.06331         12.8562        0.835577 
        6.07903         12.7644        0.830038 
        6.09473          12.672        0.824555 
        6.11044         12.5748        0.819116 
        6.12616         12.4944        0.813728 
        6.14186         12.3868        0.808393 
        6.15755         12.3064        0.803106 
        6.17326         12.2485        0.797862 
        6.18898         12.1752        0.792663 
        6.20467         12.0859        0.787519 
        6.22036         12.0062        0.782422 
         6.2361         11.9129        0.777355 
         6.2518         11.8318        0.772342 
        6.26748         11.7563        0.767384 
        6.28319         11.6732        0.762456 
        6.29893         11.5903        0.757566 
        6.31463         11.5174        0.752728 
        6.33033         11.4481        0.747934 
        6.34604         11.3802        0.743178 
        6.36177          11.281        0.738458 
        6.37747         11.2242        0.733789 
