# k  (h/Mpc)    Pcb(k)  (Mpc/h)^3    Pcb_linear(k) (Mpc/h)^3   ShotnoiseSubtracted = true
      0.0200456         3411.59         3464.41 
      0.0350414         2485.12         2518.51 
      0.0492313          1831.2          1829.9 
      0.0637834         1542.37         1521.18 
      0.0800726         1222.67         1207.32 
       0.096163         868.301         876.017 
       0.111083         688.719         698.734 
       0.126058         625.499         619.221 
       0.142273         536.117         524.616 
       0.158546         430.782         414.337 
        0.17375         352.464         349.078 
       0.188953         329.279         316.083 
       0.204907         304.684         279.669 
       0.220756         254.211         236.617 
        0.23588         221.712         205.836 
         0.2514         197.266             187 
       0.267535         183.478         169.203 
       0.283568         164.781         149.214 
       0.299022         150.176         132.942 
       0.314451         135.152           121.5 
       0.330372         125.681         111.463 
       0.346141         113.652         101.169 
       0.361624         106.188          91.949 
       0.377134         99.9138         84.6076 
       0.392932         89.1926         78.2858 
       0.408854           85.85         72.1644 
       0.424564         81.4422         66.5149 
       0.440253         75.2584          61.667 
       0.455999          70.884         57.4516 
       0.471626         66.0293         53.5777 
        0.48727         63.3668         49.9539 
       0.502856         59.7376         46.6984 
       0.518488          57.218         43.7936 
       0.534347         54.9617         41.0932 
       0.550082         50.3694         38.6034 
       0.565732         47.3751         36.3255 
       0.581496         46.1266         34.2392 
       0.597222         44.6101         32.3258 
       0.612804         41.7778         30.5665 
       0.628434         40.4374         28.9266 
       0.644267         39.3588         27.3934 
       0.660051          37.517         25.9804 
       0.675724         35.6386         24.6756 
       0.691403         34.5259         23.4594 
       0.707174         33.4509         22.3182 
       0.722871         32.1317         21.2575 
        0.73838         31.0632         20.2771 
       0.754018         29.7483         19.3511 
       0.769845         28.9198         18.4729 
        0.78569         28.0118         17.6485 
       0.801365         26.9848         16.8826 
       0.817031         26.3374         16.1628 
       0.832809         25.8008         15.4806 
       0.848511         24.2581         14.8411 
       0.864097         23.8459         14.2422 
       0.879701          23.277          13.676 
       0.895507         22.6631          13.134 
       0.911279          21.982         12.6227 
        0.92691         21.4346         12.1429 
       0.942635         20.5928         11.6856 
       0.958396         20.2154         11.2509 
       0.974128         19.6115         10.8392 
       0.989692         19.4207         10.4523 
        1.00528         18.9249         10.0838 
        1.02113         18.1543         9.72733 
        1.03692         17.7741          9.3895 
        1.05264         17.4467         9.06932 
        1.06832         17.0252         8.76464 
        1.08405         16.5533          8.4732 
        1.09979         16.2197         8.19489 
        1.11537           15.92         7.93189 
        1.13105         15.6124         7.67891 
        1.14679         15.3782         7.43603 
        1.16256         14.8122         7.20322 
        1.17828         14.7938         6.98118 
        1.19395          14.253         6.76928 
         1.2097         14.1005         6.56513 
        1.22537         13.7313         6.37042 
          1.241         13.5261         6.18422 
        1.25666         13.2203         6.00502 
        1.27241          12.916         5.83211 
        1.28819          12.676         5.66574 
        1.30392         12.5685         5.50636 
        1.31957         12.3519         5.35384 
        1.33529         12.1291         5.20656 
        1.35108         11.8267         5.06426 
        1.36674         11.7426          4.9283 
         1.3824         11.4258         4.79748 
        1.39811         11.2574         4.67099 
        1.41389         11.1023         4.54858 
        1.42964         10.9622         4.43078 
        1.44531         10.8096         4.31774 
        1.46101         10.5201         4.20842 
        1.47667         10.4112         4.10321 
        1.49229         10.2756         4.00189 
        1.50793         10.0949         3.90389 
        1.52367         9.93042         3.80855 
        1.53953         9.78866         3.71576 
        1.55526         9.64961         3.62681 
        1.57092         9.52583         3.54115 
        1.58662         9.40112         3.45805 
        1.60235         9.24613         3.37747 
        1.61809         9.12229         3.29942 
        1.63369         8.98864         3.22454 
        1.64941         8.85072         3.15145 
        1.66519         8.78149         3.08037 
        1.68085         8.62886         3.01199 
        1.69652         8.50055         2.94567 
        1.71228         8.38306         2.88097 
        1.72806         8.32918         2.81817 
        1.74368         8.17067         2.75788 
        1.75933         8.09861         2.69923 
        1.77505         7.98933         2.64202 
        1.79081          7.8393         2.58636 
         1.8065         7.79771         2.53256 
        1.82218         7.66233         2.48033 
        1.83797         7.61654         2.42922 
        1.85367         7.48208         2.37984 
        1.86928         7.47263         2.33212 
        1.88497         7.29554         2.28546 
        1.90073         7.23922          2.2399 
        1.91647         7.18706         2.19563 
        1.93218         7.09828         2.15265 
        1.94787         6.99343         2.11089 
        1.96363         6.93702         2.07007 
        1.97935         6.82164         2.03042 
        1.99499         6.73796         1.99203 
        2.01064         6.68013         1.95457 
         2.0264         6.61509         1.91785 
        2.04216         6.54452         1.88209 
        2.05781         6.45779         1.84747 
        2.07353         6.40632          1.8136 
        2.08928          6.3512          1.7805 
        2.10499         6.30214         1.74832 
        2.12065         6.20834         1.71703 
        2.13633         6.16752         1.68649 
        2.15211          6.0723         1.65648 
        2.16785         6.01489          1.6273 
        2.18349          5.9597           1.599 
        2.19916         5.89259         1.57131 
        2.21489         5.83089         1.54419 
        2.23063         5.78135         1.51769 
         2.2463         5.71786         1.49194 
        2.26194         5.64435         1.46684 
        2.27765         5.62596          1.4422 
        2.29341         5.55529         1.41805 
        2.30914         5.49857         1.39451 
        2.32486         5.42581         1.37152 
        2.34061          5.4078         1.34901 
        2.35635         5.36162         1.32703 
        2.37203         5.31433         1.30561 
        2.38768         5.24763         1.28471 
        2.40339         5.20434         1.26419 
        2.41914          5.1322         1.24407 
        2.43483         5.12648         1.22446 
         2.4505         5.05727         1.20531 
        2.46622         5.02274          1.1865 
        2.48195         4.96069         1.16809 
        2.49759         4.95058         1.15017 
        2.51328         4.88916         1.13258 
        2.52906         4.87078         1.11524 
        2.54479         4.80046         1.09834 
        2.56049         4.77673         1.08182 
        2.57618         4.72102         1.06565 
        2.59189         4.68423         1.04979 
        2.60758         4.66327         1.03427 
        2.62325         4.60612         1.01909 
        2.63898         4.55233         1.00416 
        2.65468         4.52492        0.989563 
        2.67044         4.49038        0.975192 
        2.68618         4.46686         0.96114 
        2.70184         4.41394        0.947421 
        2.71755         4.38266        0.933936 
        2.73329         4.35649        0.920692 
        2.74897         4.33919        0.907749 
        2.76462         4.29681        0.895083 
        2.78034         4.23243        0.882606 
        2.79607         4.21334        0.870355 
        2.81179         4.19406         0.85835 
        2.82749         4.13238        0.846585 
        2.84321         4.13153        0.835027 
        2.85893         4.09189        0.823689 
        2.87462          4.0593        0.812581 
        2.89033         4.02903        0.801667 
        2.90605         3.99558        0.790944 
        2.92176         3.95289        0.780424 
        2.93747         3.93196        0.770099 
        2.95318         3.90607         0.75996 
        2.96891         3.88607        0.749998 
        2.98456         3.85372        0.740259 
        3.00023            3.81        0.730679 
        3.01596         3.79256        0.721239 
        3.03164         3.77463        0.711992 
        3.04738         3.73897        0.702881 
         3.0631         3.70937        0.693932 
        3.07883         3.68991        0.685138 
        3.09456          3.6603        0.676499 
        3.11026         3.64029        0.668021 
        3.12596         3.60267         0.65969 
        3.14163         3.57519         0.65152 
        3.15734         3.54865        0.643469 
        3.17308         3.53481        0.635535 
        3.18879         3.50678        0.627757 
        3.20447          3.4925         0.62012 
         3.2202         3.44732        0.612586 
         3.2359         3.44438        0.605191 
        3.25157         3.40934        0.597936 
        3.26729         3.38891        0.590777 
        3.28304         3.36736        0.583722 
        3.29877         3.35086        0.576791 
        3.31446         3.31533        0.569988 
        3.33014         3.30626          0.5633 
        3.34585         3.28058         0.55671 
        3.36158         3.26595        0.550215 
        3.37727         3.22638        0.543844 
        3.39294         3.22236         0.53758 
        3.40867         3.18854        0.531392 
        3.42439         3.17073        0.525304 
        3.44008         3.14957        0.519324 
        3.45578         3.13272        0.513433 
        3.47153         3.10991         0.50762 
        3.48724          3.0943        0.501907 
        3.50292         3.08375        0.496295 
        3.51859         3.05353        0.490772 
        3.53431         3.03257        0.485315 
        3.55007          3.0215        0.479929 
        3.56577         2.99982        0.474645 
        3.58146         2.98601        0.469443 
        3.59719         2.96281        0.464307 
        3.61292         2.94629        0.459249 
        3.62859         2.91903        0.454286 
        3.64429         2.90106        0.449387 
        3.66003         2.89816        0.444545 
        3.67578         2.87619        0.439776 
        3.69146         2.85353        0.435095 
        3.70712         2.83969         0.43049 
        3.72284         2.81776        0.425936 
        3.73853         2.80542        0.421454 
        3.75422         2.78695        0.417036 
        3.76993         2.75903        0.412677 
        3.78564         2.75182        0.408383 
        3.80137         2.73756        0.404142 
        3.81707         2.70967        0.399971 
        3.83279         2.70078        0.395855 
        3.84853         2.68893         0.39179 
        3.86424         2.66699         0.38779 
        3.87992         2.65378        0.383852 
        3.89561         2.63162        0.379968 
        3.91134         2.62867         0.37613 
        3.92704         2.60834         0.37235 
        3.94273         2.58933        0.368625 
        3.95845         2.57796        0.364945 
        3.97418         2.55367        0.361314 
        3.98988         2.53903        0.357737 
        4.00554          2.5187        0.354218 
        4.02125         2.50735        0.350737 
        4.03698         2.49538        0.347297 
        4.05268         2.48127         0.34391 
        4.06839         2.46728        0.340567 
         4.0841         2.45139        0.337269 
        4.09983         2.42883         0.33401 
        4.11555         2.42083        0.330795 
        4.13124         2.40499        0.327632 
        4.14693         2.38433        0.324507 
        4.16266         2.37329        0.321415 
        4.17839         2.36041        0.318366 
        4.19408         2.34217        0.315363 
        4.20977         2.32535        0.312398 
        4.22551         2.31592        0.309464 
        4.24123         2.30375         0.30657 
        4.25691         2.29036        0.303721 
        4.27259         2.27249        0.300907 
        4.28831         2.26526        0.298124 
        4.30404          2.2499        0.295373 
        4.31974         2.23678        0.292662 
        4.33543         2.22225        0.289988 
        4.35116         2.21053         0.28734 
        4.36688         2.20048        0.284726 
        4.38255         2.18239        0.282154 
        4.39825         2.17454        0.279609 
        4.41398         2.15776         0.27709 
         4.4297         2.14671        0.274605 
        4.44541         2.13318         0.27215 
        4.46111          2.1236        0.269728 
        4.47683         2.10882        0.267333 
        4.49251         2.10062        0.264972 
        4.50819         2.08917         0.26264 
         4.5239         2.07754        0.260333 
        4.53962         2.06883        0.258051 
        4.55535         2.05486        0.255795 
        4.57106         2.04471        0.253569 
        4.58678         2.03564        0.251369 
         4.6025         2.02326        0.249195 
        4.61821         2.00839        0.247046 
        4.63391         2.00123        0.244926 
         4.6496         1.99025        0.242832 
        4.66532         1.97953        0.240759 
        4.68103         1.97263        0.238711 
        4.69673         1.96176        0.236688 
        4.71241         1.94735        0.234691 
        4.72811         1.93853        0.232714 
        4.74384         1.93316        0.230757 
        4.75955         1.92091        0.228826 
        4.77525         1.91232        0.226918 
        4.79096         1.90207        0.225029 
        4.80669         1.89528        0.223161 
         4.8224         1.88265        0.221316 
        4.83809         1.87735        0.219493 
        4.85379         1.86384        0.217691 
         4.8695          1.8543        0.215907 
        4.88521         1.84697        0.214143 
        4.90093          1.8343          0.2124 
        4.91663         1.82743        0.210677 
        4.93234          1.8221        0.208971 
        4.94807         1.81135        0.207283 
        4.96377         1.80246        0.205617 
        4.97943         1.79674        0.203973 
        4.99514         1.78476        0.202342 
        5.01086         1.77805        0.200728 
        5.02654         1.76925        0.199136 
        5.04227         1.76467        0.197556 
          5.058         1.75525        0.195993 
        5.07371         1.74439         0.19445 
        5.08942         1.73943        0.192923 
        5.10513         1.72882        0.191412 
        5.12084         1.72411        0.189917 
        5.13656         1.71073        0.188438 
        5.15225         1.70816        0.186977 
        5.16796         1.69788        0.185529 
        5.18369         1.69047        0.184096 
         5.1994         1.68439         0.18268 
        5.21509         1.67801         0.18128 
        5.23079         1.67009        0.179893 
        5.24649         1.66193        0.178522 
        5.26217         1.65584        0.177166 
        5.27788         1.64563        0.175822 
        5.29359         1.64637        0.174492 
        5.30933         1.63624        0.173174 
        5.32504         1.62717        0.171871 
        5.34073         1.62271        0.170584 
        5.35646         1.61502        0.169307 
        5.37218         1.60792        0.168043 
        5.38789         1.60467        0.166793 
        5.40357         1.59685        0.165558 
        5.41929         1.58635        0.164333 
        5.43502         1.58222         0.16312 
         5.4507         1.57205        0.161922 
        5.46639         1.57264        0.160736 
        5.48212         1.56281        0.159558 
        5.49786         1.55655        0.158392 
        5.51353         1.54849        0.157243 
        5.52921         1.54155        0.156104 
        5.54495         1.53635        0.154973 
        5.56066         1.53077        0.153854 
        5.57637         1.52209        0.152746 
        5.59207           1.517        0.151651 
        5.60778         1.51056        0.150566 
        5.62346          1.5091        0.149492 
        5.63916         1.50301        0.148429 
        5.65487         1.49494        0.147375 
         5.6706         1.49104         0.14633 
        5.68633         1.48322        0.145295 
        5.70203         1.47699        0.144272 
        5.71773         1.47156        0.143259 
        5.73344          1.4634        0.142255 
        5.74916         1.45804         0.14126 
        5.76486          1.4526        0.140276 
        5.78054         1.45121        0.139302 
        5.79626         1.44396        0.138335 
          5.812         1.43971        0.137377 
         5.8277         1.43156         0.13643 
        5.84339          1.4274        0.135492 
        5.85911          1.4251        0.134561 
        5.87484         1.41787        0.133639 
        5.89053         1.41393        0.132728 
        5.90623         1.40647        0.131824 
        5.92195         1.40324        0.130927 
        5.93767         1.39693         0.13004 
        5.95336         1.39074        0.129162 
        5.96905         1.38487        0.128292 
        5.98476         1.38251        0.127429 
        6.00048         1.37605        0.126574 
        6.01617         1.37314        0.125728 
        6.03185         1.36644         0.12489 
        6.04756          1.3626        0.124058 
        6.06331         1.35625        0.123232 
        6.07903          1.3526        0.122415 
        6.09473         1.34815        0.121607 
        6.11044         1.34399        0.120805 
        6.12616         1.33719         0.12001 
        6.14186         1.33206        0.119223 
        6.15755         1.33063        0.118443 
        6.17326         1.32378         0.11767 
        6.18898         1.32119        0.116903 
        6.20467         1.31755        0.116145 
        6.22036         1.31118        0.115393 
         6.2361         1.30635        0.114646 
         6.2518         1.30036        0.113906 
        6.26748         1.29964        0.113175 
        6.28319         1.29295        0.112448 
        6.29893         1.28851        0.111727 
        6.31463         1.28205        0.111014 
        6.33033         1.28299        0.110307 
        6.34604         1.27599        0.109605 
        6.36177         1.27125        0.108909 
        6.37747         1.26806         0.10822 
