# k  (h/Mpc)    Pcb(k)  (Mpc/h)^3    Pcb_linear(k) (Mpc/h)^3   ShotnoiseSubtracted = true
      0.0200456         8998.87         9162.59 
      0.0350414         6488.73         6660.89 
      0.0492313         4810.17         4839.68 
      0.0637834         4098.69         4023.18 
      0.0800726         3245.25          3193.1 
       0.096163         2275.08         2316.87 
       0.111083         1807.33            1848 
       0.126058         1661.67          1637.7 
       0.142273         1433.64         1387.49 
       0.158546         1186.21         1095.83 
        0.17375         955.147         923.235 
       0.188953         915.766         835.968 
       0.204907         858.418         739.662 
       0.220756         725.477         625.798 
        0.23588         636.758          544.39 
         0.2514         558.283         494.573 
       0.267535         538.106         447.504 
       0.283568         487.491         394.638 
       0.299022          452.17         351.602 
       0.314451         420.504         321.341 
       0.330372          388.51         294.794 
       0.346141         350.627          267.57 
       0.361624         336.118         243.185 
       0.377134         313.849         223.768 
       0.392932         293.258         207.049 
       0.408854         281.089         190.859 
       0.424564         268.584         175.917 
       0.440253         256.431         163.096 
       0.455999          241.25         151.947 
       0.471626         223.705         141.701 
        0.48727         217.317         132.117 
       0.502856         209.287         123.507 
       0.518488          205.65         115.824 
       0.534347           194.7         108.683 
       0.550082         181.611         102.097 
       0.565732         177.203         96.0728 
       0.581496         168.902          90.555 
       0.597222          164.06         85.4947 
       0.612804         157.281         80.8415 
       0.628434         153.014         76.5044 
       0.644267         147.782         72.4496 
       0.660051         145.607         68.7124 
       0.675724         141.651         65.2616 
       0.691403         137.334         62.0448 
       0.707174         131.587         59.0268 
       0.722871          130.21         56.2215 
        0.73838         127.466         53.6285 
       0.754018         122.394         51.1795 
       0.769845         119.719         48.8568 
        0.78569         117.126         46.6763 
       0.801365         113.836         44.6506 
       0.817031         109.821          42.747 
       0.832809         108.405         40.9428 
       0.848511         105.175         39.2513 
       0.864097         102.579         37.6675 
       0.879701         101.037         36.1699 
       0.895507         98.6756         34.7365 
       0.911279         97.1733         33.3842 
        0.92691         95.2205         32.1153 
       0.942635         92.6836         30.9057 
       0.958396         92.3174         29.7561 
       0.974128         89.8085         28.6674 
       0.989692         87.6182          27.644 
        1.00528         85.8415         26.6694 
        1.02113         84.8206         25.7266 
        1.03692         81.9313         24.8331 
        1.05264         81.8368         23.9863 
        1.06832         79.5825         23.1805 
        1.08405         78.5745         22.4097 
        1.09979         78.0438         21.6737 
        1.11537         75.2372         20.9781 
        1.13105          75.511          20.309 
        1.14679         74.0998         19.6666 
        1.16256         72.9967         19.0509 
        1.17828         71.0458         18.4637 
        1.19395         70.4742         17.9032 
         1.2097         68.6439         17.3633 
        1.22537         68.8307         16.8483 
          1.241         67.0591         16.3559 
        1.25666         65.7624          15.882 
        1.27241         65.1018         15.4246 
        1.28819         63.9112         14.9846 
        1.30392         63.0403         14.5631 
        1.31957         62.3656         14.1597 
        1.33529         61.2614         13.7702 
        1.35108         60.9798         13.3938 
        1.36674         60.0925         13.0343 
         1.3824         58.7534         12.6883 
        1.39811         58.3589         12.3537 
        1.41389         57.4209           12.03 
        1.42964          56.743         11.7184 
        1.44531         55.7411         11.4195 
        1.46101         54.8696         11.1303 
        1.47667         54.7664         10.8521 
        1.49229         53.9235         10.5841 
        1.50793         53.2469         10.3249 
        1.52367         52.3726         10.0728 
        1.53953         51.9011         9.82736 
        1.55526         51.2236         9.59211 
        1.57092         50.8746         9.36555 
        1.58662         50.1072         9.14578 
        1.60235         49.5719         8.93266 
        1.61809          48.828         8.72624 
        1.63369         48.0407         8.52819 
        1.64941         47.5131         8.33488 
        1.66519         46.8164         8.14689 
        1.68085         46.4737         7.96604 
        1.69652         45.7725         7.79063 
        1.71228         45.4898         7.61953 
        1.72806         45.0107         7.45344 
        1.74368         44.3016         7.29397 
        1.75933          43.867         7.13886 
        1.77505         43.4344         6.98755 
        1.79081         42.8442         6.84036 
         1.8065           42.43         6.69805 
        1.82218         41.9142         6.55992 
        1.83797          41.341         6.42475 
        1.85367         40.7744         6.29414 
        1.86928         40.4689         6.16795 
        1.88497         40.1346         6.04453 
        1.90073         39.6793         5.92405 
        1.91647         39.2128         5.80696 
        1.93218         38.7977         5.69329 
        1.94787         38.3922         5.58284 
        1.96363          37.982         5.47488 
        1.97935         37.4864            5.37 
        1.99499         37.0925         5.26847 
        2.01064         36.8083         5.16942 
         2.0264         36.2213         5.07229 
        2.04216         35.8282         4.97771 
        2.05781         35.3915         4.88615 
        2.07353         35.0816         4.79656 
        2.08928         34.9476         4.70903 
        2.10499         34.4407         4.62392 
        2.12065         34.0199         4.54117 
        2.13633         33.8743         4.46038 
        2.15211         33.3017         4.38103 
        2.16785         32.8048         4.30384 
        2.18349         32.6758         4.22899 
        2.19916         32.3888         4.15577 
        2.21489         31.8834         4.08404 
        2.23063         31.6456         4.01396 
         2.2463         31.2595         3.94584 
        2.26194         30.9877         3.87947 
        2.27765         30.6797         3.81429 
        2.29341         30.3904         3.75044 
        2.30914         30.1329         3.68818 
        2.32486         29.6793         3.62737 
        2.34061         29.5226         3.56784 
        2.35635         29.2278         3.50969 
        2.37203          28.992         3.45304 
        2.38768         28.5794         3.39776 
        2.40339         28.4757         3.34349 
        2.41914         28.1509         3.29028 
        2.43483         27.7417         3.23842 
         2.4505         27.5263         3.18777 
        2.46622         27.2995         3.13802 
        2.48195         27.0183         3.08933 
        2.49759         26.7702         3.04194 
        2.51328         26.4274         2.99542 
        2.52906         26.3211         2.94957 
        2.54479         25.9303         2.90486 
        2.56049         25.6528         2.86116 
        2.57618          25.376          2.8184 
        2.59189         25.2823         2.77645 
        2.60758         25.0428         2.73542 
        2.62325         24.6617         2.69527 
        2.63898         24.6165         2.65579 
        2.65468         24.2336         2.61717 
        2.67044         24.0651         2.57917 
        2.68618         23.7494           2.542 
        2.70184         23.5791         2.50572 
        2.71755          23.429         2.47005 
        2.73329         23.1438         2.43503 
        2.74897          22.862         2.40079 
        2.76462         22.7526          2.3673 
        2.78034         22.5828          2.3343 
        2.79607         22.3191          2.3019 
        2.81179         22.1229         2.27014 
        2.82749         21.9224         2.23903 
        2.84321         21.7081         2.20846 
        2.85893         21.4546         2.17847 
        2.87462         21.2705          2.1491 
        2.89033          21.154         2.12023 
        2.90605         20.9779         2.09187 
        2.92176         20.7243         2.06405 
        2.93747         20.6061         2.03674 
        2.95318         20.3206         2.00993 
        2.96891         20.1963         1.98358 
        2.98456         19.9586         1.95782 
        3.00023         19.7783         1.93248 
        3.01596         19.6474         1.90752 
        3.03164         19.4486         1.88306 
        3.04738          19.257         1.85896 
         3.0631         19.0996          1.8353 
        3.07883         18.9347         1.81204 
        3.09456          18.753         1.78919 
        3.11026         18.5993         1.76677 
        3.12596         18.4288         1.74473 
        3.14163         18.3081         1.72313 
        3.15734         18.0837         1.70183 
        3.17308         17.9441         1.68085 
        3.18879         17.7723         1.66028 
        3.20447         17.6258         1.64008 
         3.2202         17.4572         1.62015 
         3.2359         17.2839          1.6006 
        3.25157         17.2109         1.58141 
        3.26729         17.0914         1.56247 
        3.28304         16.8711         1.54382 
        3.29877         16.6252         1.52548 
        3.31446         16.5673         1.50749 
        3.33014          16.415          1.4898 
        3.34585         16.1988         1.47237 
        3.36158         16.1324          1.4552 
        3.37727         15.9592         1.43835 
        3.39294         15.7666         1.42178 
        3.40867         15.6804         1.40541 
        3.42439         15.5239         1.38931 
        3.44008          15.401          1.3735 
        3.45578          15.267         1.35792 
        3.47153         15.1621         1.34254 
        3.48724         15.0071         1.32743 
        3.50292         14.8735         1.31259 
        3.51859         14.7861         1.29798 
        3.53431         14.6524         1.28355 
        3.55007         14.5227          1.2693 
        3.56577         14.4079         1.25533 
        3.58146         14.2818         1.24157 
        3.59719         14.1181         1.22799 
        3.61292         14.0257         1.21461 
        3.62859          13.878         1.20149 
        3.64429         13.7706         1.18853 
        3.66003         13.6728         1.17572 
        3.67578         13.5924         1.16311 
        3.69146         13.4509         1.15073 
        3.70712         13.3085         1.13855 
        3.72284           13.24         1.12651 
        3.73853         13.0897         1.11465 
        3.75422         12.9762         1.10297 
        3.76993         12.9052         1.09144 
        3.78564         12.7445         1.08008 
        3.80137         12.6597         1.06887 
        3.81707         12.5617         1.05783 
        3.83279         12.4111         1.04695 
        3.84853         12.3672          1.0362 
        3.86424         12.1791         1.02562 
        3.87992         12.1393          1.0152 
        3.89561         12.0462         1.00493 
        3.91134          11.958        0.994782 
        3.92704         11.8138        0.984783 
        3.94273         11.7326        0.974932 
        3.95845          11.658        0.965198 
        3.97418         11.5906        0.955595 
        3.98988         11.4542        0.946135 
        4.00554         11.3775        0.936828 
        4.02125         11.2298        0.927621 
        4.03698         11.1924        0.918523 
        4.05268         11.0802        0.909567 
        4.06839         11.0002        0.900724 
         4.0841         10.8816        0.892002 
        4.09983         10.8077        0.883382 
        4.11555         10.7184         0.87488 
        4.13124         10.6178        0.866513 
        4.14693         10.5585        0.858248 
        4.16266         10.4683        0.850072 
        4.17839         10.3732        0.842008 
        4.19408         10.2975        0.834066 
        4.20977          10.198        0.826223 
        4.22551         10.1406        0.818462 
        4.24123         10.0631        0.810809 
        4.25691         9.98029        0.803275 
        4.27259         9.87466        0.795833 
        4.28831         9.81217        0.788472 
        4.30404         9.72658        0.781196 
        4.31974         9.66848        0.774027 
        4.33543         9.56659        0.766953 
        4.35116         9.49868         0.75995 
        4.36688         9.41513        0.753037 
        4.38255         9.35504        0.746236 
        4.39825          9.2921        0.739504 
        4.41398         9.19686        0.732842 
         4.4297         9.13285        0.726269 
        4.44541         9.05282        0.719777 
        4.46111         9.00164         0.71337 
        4.47683         8.94387        0.707036 
        4.49251         8.86383        0.700792 
        4.50819         8.77311        0.694625 
         4.5239         8.72777        0.688523 
        4.53962         8.68107        0.682487 
        4.55535         8.58118         0.67652 
        4.57106         8.51504        0.670633 
        4.58678         8.43365        0.664815 
         4.6025         8.36146        0.659064 
        4.61821         8.31513        0.653383 
        4.63391         8.25562        0.647776 
         4.6496         8.20372        0.642236 
        4.66532         8.12578        0.636753 
        4.68103         8.06515        0.631337 
        4.69673         8.00609        0.625988 
        4.71241         7.94386        0.620707 
        4.72811         7.87265        0.615478 
        4.74384         7.84028        0.610302 
        4.75955         7.77329        0.605194 
        4.77525         7.71435        0.600147 
        4.79096          7.6658        0.595151 
        4.80669         7.59727         0.59021 
         4.8224         7.54021        0.585331 
        4.83809         7.47517        0.580511 
        4.85379         7.41105        0.575743 
         4.8695         7.36762        0.571025 
        4.88521         7.32149        0.566362 
        4.90093         7.26406         0.56175 
        4.91663         7.18699        0.557193 
        4.93234         7.15166        0.552682 
        4.94807         7.08677        0.548218 
        4.96377         7.04726        0.543812 
        4.97943         7.00808        0.539463 
        4.99514         6.94155         0.53515 
        5.01086         6.88234        0.530882 
        5.02654         6.83779        0.526671 
        5.04227         6.79868        0.522493 
          5.058         6.75458        0.518358 
        5.07371         6.70804        0.514276 
        5.08942         6.64287        0.510238 
        5.10513         6.60052        0.506242 
        5.12084         6.54773        0.502288 
        5.13656          6.5006        0.498376 
        5.15225         6.45724        0.494513 
        5.16796         6.42734        0.490684 
        5.18369         6.36894        0.486892 
         5.1994         6.31724        0.483147 
        5.21509         6.26868        0.479445 
        5.23079         6.23008        0.475778 
        5.24649         6.20594        0.472151 
        5.26217         6.15135        0.468565 
        5.27788         6.09906        0.465011 
        5.29359         6.06825        0.461493 
        5.30933         6.02441        0.458007 
        5.32504          5.9886        0.454562 
        5.34073         5.93361        0.451156 
        5.35646         5.88621        0.447779 
        5.37218         5.85721        0.444435 
        5.38789         5.83128        0.441131 
        5.40357         5.77215        0.437865 
        5.41929         5.74398        0.434624 
        5.43502         5.69864        0.431415 
         5.4507         5.66418        0.428247 
        5.46639         5.61305         0.42511 
        5.48212         5.57413        0.421997 
        5.49786         5.55588        0.418911 
        5.51353         5.50147        0.415872 
        5.52921         5.47687        0.412859 
        5.54495         5.42888        0.409868 
        5.56066         5.39548        0.406909 
        5.57637         5.35908         0.40398 
        5.59207         5.32098        0.401083 
        5.60778          5.2803        0.398213 
        5.62346         5.25484        0.395374 
        5.63916         5.21461        0.392561 
        5.65487         5.17572        0.389774 
         5.6706         5.15405         0.38701 
        5.68633         5.11316        0.384273 
        5.70203         5.07652        0.381567 
        5.71773         5.05937        0.378888 
        5.73344          5.0133        0.376233 
        5.74916         4.98205        0.373601 
        5.76486         4.94903        0.370998 
        5.78054         4.91687        0.368423 
        5.79626         4.88012        0.365866 
          5.812         4.85013        0.363331 
         5.8277         4.81224        0.360826 
        5.84339         4.79029        0.358346 
        5.85911         4.76212        0.355884 
        5.87484         4.73017        0.353446 
        5.89053         4.70106        0.351035 
        5.90623         4.66844        0.348645 
        5.92195         4.63518        0.346274 
        5.93767         4.59736        0.343926 
        5.95336         4.58176        0.341604 
        5.96905         4.55157        0.339304 
        5.98476          4.5235        0.337022 
        6.00048         4.48836         0.33476 
        6.01617         4.46469        0.332522 
        6.03185         4.42935        0.330307 
        6.04756         4.40457        0.328107 
        6.06331          4.3764        0.325922 
        6.07903         4.34914        0.323762 
        6.09473         4.31618        0.321623 
        6.11044         4.28557        0.319502 
        6.12616         4.27288          0.3174 
        6.14186         4.24119        0.315319 
        6.15755         4.21669        0.313257 
        6.17326         4.19565        0.311211 
        6.18898         4.16258        0.309183 
        6.20467          4.1367        0.307177 
        6.22036         4.11904        0.305188 
         6.2361         4.08536        0.303212 
         6.2518         4.06845        0.301257 
        6.26748         4.03863        0.299323 
        6.28319         4.01446        0.297401 
        6.29893          3.9912        0.295494 
        6.31463         3.96924        0.293606 
        6.33033         3.93465        0.291736 
        6.34604         3.92136        0.289881 
        6.36177         3.89243         0.28804 
        6.37747         3.87878        0.286219 
