# k  (h/Mpc)    Pcb(k)  (Mpc/h)^3    Pcb_linear(k) (Mpc/h)^3   ShotnoiseSubtracted = true
      0.0200456           16163           16509 
      0.0350414         11544.4         12001.5 
      0.0492313            8590         8720.06 
      0.0637834         7392.63         7248.91 
      0.0800726         5841.18         5753.28 
       0.096163         4062.22          4174.5 
       0.111083         3246.01         3329.69 
       0.126058         2993.24         2950.78 
       0.142273         2589.44         2499.96 
       0.158546         2217.03         1974.45 
        0.17375         1772.43         1663.47 
       0.188953         1724.47         1506.23 
       0.204907         1620.87         1332.71 
       0.220756         1392.87         1127.55 
        0.23588         1234.89         980.874 
         0.2514         1074.03         891.114 
       0.267535         1063.28         806.305 
       0.283568         963.862         711.053 
       0.299022          906.14         633.511 
       0.314451         860.804         578.986 
       0.330372         792.205         531.155 
       0.346141         735.788         482.104 
       0.361624         707.352         438.167 
       0.377134         656.511         403.182 
       0.392932         630.945         373.057 
       0.408854         610.597         343.886 
       0.424564         571.665         316.965 
       0.440253          560.66         293.863 
       0.455999         530.582         273.775 
       0.471626          504.32         255.315 
        0.48727         485.975         238.046 
       0.502856         472.226         222.533 
       0.518488          467.16         208.691 
       0.534347         436.296         195.822 
       0.550082         418.168         183.957 
       0.565732         417.291         173.102 
       0.581496          392.26         163.161 
       0.597222         386.277         154.043 
       0.612804         375.358         145.659 
       0.628434         361.586         137.844 
       0.644267         351.594         130.538 
       0.660051         342.482         123.805 
       0.675724         338.114         117.587 
       0.691403         327.488         111.791 
       0.707174         315.957         106.354 
       0.722871         311.922         101.299 
        0.73838         307.402          96.627 
       0.754018         298.639         92.2144 
       0.769845         289.394         88.0294 
        0.78569         288.674         84.1006 
       0.801365         278.765         80.4508 
       0.817031         270.014         77.0208 
       0.832809         268.113         73.7701 
       0.848511         260.653         70.7224 
       0.864097         256.572         67.8687 
       0.879701         252.732         65.1704 
       0.895507         247.098         62.5878 
       0.911279          238.97         60.1511 
        0.92691         238.529         57.8649 
       0.942635         232.506         55.6854 
       0.958396         229.467         53.6141 
       0.974128         224.996         51.6524 
       0.989692         220.418         49.8086 
        1.00528         217.467         48.0525 
        1.02113         215.251         46.3539 
        1.03692         209.928          44.744 
        1.05264          206.06         43.2182 
        1.06832         202.267         41.7663 
        1.08405         198.645         40.3775 
        1.09979          196.17         39.0513 
        1.11537         192.303          37.798 
        1.13105         188.226         36.5925 
        1.14679         188.385         35.4351 
        1.16256         184.689         34.3256 
        1.17828         181.064         33.2676 
        1.19395         178.173         32.2578 
         1.2097         177.718          31.285 
        1.22537         173.462         30.3571 
          1.241         171.945         29.4698 
        1.25666         168.428         28.6159 
        1.27241         165.699         27.7919 
        1.28819         163.805         26.9991 
        1.30392          160.62         26.2396 
        1.31957         160.321         25.5128 
        1.33529         155.862         24.8109 
        1.35108         154.288         24.1328 
        1.36674         153.046         23.4849 
         1.3824         150.415         22.8615 
        1.39811         149.861         22.2587 
        1.41389         146.554         21.6754 
        1.42964         143.879         21.1141 
        1.44531         141.762         20.5754 
        1.46101         140.233         20.0545 
        1.47667         137.772         19.5531 
        1.49229         135.983         19.0703 
        1.50793         134.788         18.6033 
        1.52367          133.37          18.149 
        1.53953         130.456         17.7068 
        1.55526         128.943         17.2829 
        1.57092          127.43         16.8747 
        1.58662         125.461         16.4787 
        1.60235         124.234         16.0947 
        1.61809         122.356         15.7228 
        1.63369         120.727          15.366 
        1.64941         119.264         15.0177 
        1.66519         117.368         14.6789 
        1.68085         116.486         14.3531 
        1.69652         113.906          14.037 
        1.71228         113.332         13.7287 
        1.72806         111.868         13.4295 
        1.74368          110.74         13.1422 
        1.75933         108.997         12.8627 
        1.77505         107.625         12.5901 
        1.79081         106.532         12.3249 
         1.8065         105.051         12.0684 
        1.82218         103.168         11.8196 
        1.83797         101.644          11.576 
        1.85367         100.821         11.3407 
        1.86928         99.5626         11.1133 
        1.88497         97.6274         10.8909 
        1.90073         97.1261         10.6739 
        1.91647         95.7774         10.4629 
        1.93218         94.6586         10.2581 
        1.94787         93.5671         10.0591 
        1.96363         92.2775         9.86455 
        1.97935         90.7636         9.67558 
        1.99499         90.1062         9.49264 
        2.01064         89.0191         9.31417 
         2.0264         87.5662         9.13918 
        2.04216          86.851         8.96877 
        2.05781         85.6059         8.80379 
        2.07353         84.2824         8.64237 
        2.08928         83.2666         8.48466 
        2.10499          81.976         8.33131 
        2.12065         81.6919         8.18221 
        2.13633         80.7193         8.03664 
        2.15211         79.6613         7.89368 
        2.16785         78.2256         7.75459 
        2.18349         77.2637         7.61974 
        2.19916         76.5963         7.48781 
        2.21489         75.6005         7.35857 
        2.23063         74.5278         7.23229 
         2.2463          73.808         7.10955 
        2.26194         73.5846         6.98997 
        2.27765          72.135         6.87253 
        2.29341         71.2331         6.75748 
        2.30914         70.2963         6.64531 
        2.32486         69.5843         6.53574 
        2.34061         68.8085         6.42847 
        2.35635         67.7756          6.3237 
        2.37203         66.8355         6.22164 
        2.38768         66.1656         6.12203 
        2.40339         65.4706         6.02425 
        2.41914         64.6759         5.92838 
        2.43483         64.3667         5.83494 
         2.4505          63.311         5.74367 
        2.46622         62.6303         5.65403 
        2.48195         61.8307         5.56631 
        2.49759         61.0757         5.48092 
        2.51328         60.4335         5.39709 
        2.52906          59.894          5.3145 
        2.54479         59.1724         5.23393 
        2.56049         58.2486          5.1552 
        2.57618         57.7522         5.07815 
        2.59189         56.8671         5.00257 
        2.60758         56.4427         4.92864 
        2.62325         55.8104          4.8563 
        2.63898          55.185         4.78515 
        2.65468         54.7299         4.71559 
        2.67044          53.866          4.6471 
        2.68618         53.5421         4.58014 
        2.70184         52.9601         4.51476 
        2.71755         52.4923          4.4505 
        2.73329         51.5867         4.38739 
        2.74897         51.1794         4.32571 
        2.76462         50.5265         4.26536 
        2.78034         50.0057          4.2059 
        2.79607         49.4241         4.14752 
        2.81179         48.8388         4.09031 
        2.82749         48.3458         4.03425 
        2.84321         47.8842         3.97917 
        2.85893         47.2935         3.92514 
        2.87462         46.6999         3.87221 
        2.89033         46.2057          3.8202 
        2.90605         45.7149          3.7691 
        2.92176         45.2415         3.71897 
        2.93747         44.8094         3.66977 
        2.95318         44.1466         3.62145 
        2.96891         43.5877         3.57398 
        2.98456         43.3931         3.52757 
        3.00023          42.756         3.48192 
        3.01596         42.4911         3.43694 
        3.03164         41.9227         3.39287 
        3.04738         41.6447         3.34945 
         3.0631         41.1602         3.30681 
        3.07883         40.7308          3.2649 
        3.09456         40.2798         3.22373 
        3.11026         39.8035         3.18334 
        3.12596         39.5276         3.14363 
        3.14163         38.9521          3.1047 
        3.15734         38.4315         3.06634 
        3.17308         38.3508         3.02853 
        3.18879         37.9612         2.99146 
        3.20447         37.3973         2.95507 
         3.2202         37.0484         2.91917 
         3.2359          36.647         2.88393 
        3.25157         36.3785         2.84936 
        3.26729         35.8995         2.81524 
        3.28304         35.4449         2.78162 
        3.29877         35.1826         2.74859 
        3.31446         34.8978         2.71617 
        3.33014         34.4641         2.68431 
        3.34585         34.2373          2.6529 
        3.36158         33.8439         2.62195 
        3.37727         33.4301         2.59159 
        3.39294         33.1388         2.56174 
        3.40867         32.8044         2.53225 
        3.42439          32.491         2.50324 
        3.44008         32.2797         2.47475 
        3.45578         31.8244         2.44667 
        3.47153         31.4921         2.41897 
        3.48724         31.2257         2.39175 
        3.50292         30.9734           2.365 
        3.51859         30.6081         2.33868 
        3.53431         30.3467         2.31268 
        3.55007         30.0661         2.28701 
        3.56577         29.8196         2.26183 
        3.58146         29.5051         2.23704 
        3.59719         29.2277         2.21257 
        3.61292         29.0006         2.18847 
        3.62859         28.6305         2.16482 
        3.64429         28.3478         2.14147 
        3.66003         28.0921          2.1184 
        3.67578         27.8045         2.09567 
        3.69146         27.6021         2.07337 
        3.70712         27.3243         2.05142 
        3.72284           27.19         2.02972 
        3.73853         26.8586         2.00837 
        3.75422         26.5913         1.98731 
        3.76993         26.3837         1.96654 
        3.78564         26.1323         1.94607 
        3.80137         25.8592         1.92587 
        3.81707         25.6535         1.90599 
        3.83279         25.4569         1.88637 
        3.84853         25.2017           1.867 
        3.86424         24.9448         1.84794 
        3.87992         24.7326         1.82918 
        3.89561         24.4875         1.81067 
        3.91134         24.2622         1.79238 
        3.92704         24.0644         1.77437 
        3.94273         23.8608         1.75662 
        3.95845         23.4977         1.73908 
        3.97418         23.4235         1.72178 
        3.98988         23.1759         1.70473 
        4.00554         22.9408         1.68796 
        4.02125         22.8407         1.67137 
        4.03698         22.5074         1.65498 
        4.05268         22.3943         1.63884 
        4.06839         22.1671         1.62291 
         4.0841         21.9948         1.60719 
        4.09983         21.8192         1.59166 
        4.11555         21.6182         1.57635 
        4.13124         21.3492         1.56127 
        4.14693         21.1835         1.54638 
        4.16266         20.9456         1.53165 
        4.17839         20.7995         1.51712 
        4.19408         20.6417         1.50281 
        4.20977         20.4622         1.48868 
        4.22551         20.2805         1.47469 
        4.24123         20.0676          1.4609 
        4.25691         19.9277         1.44733 
        4.27259         19.7393         1.43392 
        4.28831         19.5654         1.42066 
        4.30404         19.3723         1.40755 
        4.31974         19.2802         1.39463 
        4.33543         19.0743         1.38188 
        4.35116         18.9445         1.36927 
        4.36688         18.7448         1.35681 
        4.38255         18.6363         1.34456 
        4.39825         18.4937         1.33243 
        4.41398          18.312         1.32042 
         4.4297         18.1556         1.30858 
        4.44541         18.0195         1.29688 
        4.46111         17.8721         1.28534 
        4.47683         17.6859         1.27393 
        4.49251         17.5824         1.26268 
        4.50819         17.4203         1.25156 
         4.5239         17.2626         1.24057 
        4.53962         17.1099         1.22969 
        4.55535          16.967         1.21894 
        4.57106          16.851         1.20834 
        4.58678         16.6863         1.19785 
         4.6025         16.5475         1.18749 
        4.61821         16.4498         1.17726 
        4.63391         16.2807         1.16715 
         4.6496          16.145         1.15717 
        4.66532         16.0176         1.14729 
        4.68103         15.8672         1.13753 
        4.69673         15.7533          1.1279 
        4.71241         15.6792         1.11838 
        4.72811         15.5034         1.10896 
        4.74384         15.3891         1.09963 
        4.75955         15.2622         1.09043 
        4.77525         15.1552         1.08134 
        4.79096         15.0266         1.07233 
        4.80669          14.922         1.06343 
         4.8224         14.7824         1.05464 
        4.83809           14.63         1.04596 
        4.85379         14.5464         1.03737 
         4.8695         14.4489         1.02886 
        4.88521         14.3532         1.02046 
        4.90093         14.2011         1.01215 
        4.91663         14.0923         1.00394 
        4.93234         14.0136        0.995814 
        4.94807          13.875        0.987771 
        4.96377           13.78        0.979831 
        4.97943         13.6578        0.971996 
        4.99514         13.5479        0.964226 
        5.01086         13.4419        0.956535 
        5.02654           13.33        0.948947 
        5.04227         13.2557        0.941419 
          5.058         13.1242         0.93397 
        5.07371         13.0489        0.926615 
        5.08942         12.9429        0.919339 
        5.10513         12.8395         0.91214 
        5.12084           12.74        0.905014 
        5.13656         12.6662        0.897966 
        5.15225         12.5375        0.891005 
        5.16796         12.4211        0.884106 
        5.18369         12.3565        0.877275 
         5.1994         12.2839        0.870527 
        5.21509         12.1775        0.863857 
        5.23079         12.0842        0.857249 
        5.24649         11.9875        0.850715 
        5.26217         11.9053        0.844253 
        5.27788         11.8004         0.83785 
        5.29359         11.7359        0.831511 
        5.30933          11.625        0.825229 
        5.32504         11.5754        0.819023 
        5.34073         11.4555        0.812887 
        5.35646         11.4121        0.806801 
        5.37218         11.3003        0.800777 
        5.38789         11.2221        0.794824 
        5.40357          11.141        0.788938 
        5.41929         11.0448        0.783098 
        5.43502         10.9626        0.777318 
         5.4507         10.8891        0.771609 
        5.46639         10.8096        0.765956 
        5.48212         10.7445        0.760347 
        5.49786         10.6636        0.754788 
        5.51353         10.5917        0.749311 
        5.52921         10.5095        0.743884 
        5.54495         10.4356        0.738494 
        5.56066         10.3523        0.733163 
        5.57637         10.2756        0.727886 
        5.59207          10.192        0.722665 
        5.60778         10.1248        0.717493 
        5.62346         10.0725         0.71238 
        5.63916         9.99228        0.707311 
        5.65487         9.90771        0.702289 
         5.6706         9.86666        0.697309 
        5.68633         9.78176        0.692376 
        5.70203         9.70905        0.687501 
        5.71773         9.63884        0.682674 
        5.73344         9.57205         0.67789 
        5.74916         9.50866        0.673148 
        5.76486         9.43368        0.668458 
        5.78054         9.36319        0.663819 
        5.79626         9.29605        0.659212 
          5.812         9.24122        0.654643 
         5.8277          9.1637        0.650132 
        5.84339         9.12006        0.645662 
        5.85911         9.04144        0.641226 
        5.87484         8.97116        0.636833 
        5.89053         8.90817        0.632489 
        5.90623         8.84977        0.628184 
        5.92195          8.8015        0.623911 
        5.93767          8.7218        0.619681 
        5.95336         8.66733        0.615497 
        5.96905         8.63383        0.611352 
        5.98476         8.56406         0.60724 
        6.00048         8.49736        0.603165 
        6.01617         8.45066        0.599132 
        6.03185          8.3813        0.595142 
        6.04756         8.34276        0.591177 
        6.06331         8.26801        0.587241 
        6.07903         8.22422        0.583349 
        6.09473         8.17689        0.579495 
        6.11044         8.11881        0.575673 
        6.12616         8.06965        0.571886 
        6.14186         8.01019        0.568136 
        6.15755          7.9642        0.564421 
        6.17326         7.90284        0.560736 
        6.18898         7.84351        0.557082 
        6.20467         7.78907        0.553467 
        6.22036         7.73397        0.549884 
         6.2361         7.69086        0.546323 
         6.2518         7.61662          0.5428 
        6.26748         7.59214        0.539315 
        6.28319         7.54222        0.535852 
        6.29893         7.48978        0.532416 
        6.31463         7.43701        0.529015 
        6.33033         7.39391        0.525646 
        6.34604         7.34996        0.522303 
        6.36177         7.29916        0.518987 
        6.37747         7.25535        0.515705 
