# k  (h/Mpc)    Pcb(k)  (Mpc/h)^3    Pcb_linear(k) (Mpc/h)^3   ShotnoiseSubtracted = true
      0.0200456         2411.54         2442.74 
      0.0350414         1803.83         1775.79 
      0.0492313         1292.53         1290.25 
      0.0637834          1056.5         1072.58 
      0.0800726         835.804         851.278 
       0.096163         630.462         617.676 
       0.111083          507.44         492.674 
       0.126058           434.1          436.61 
       0.142273         367.711         369.905 
       0.158546         297.003         292.147 
        0.17375         254.487         246.134 
       0.188953         229.349         222.868 
       0.204907         196.211         197.193 
       0.220756         172.401         166.837 
        0.23588         150.766         145.134 
         0.2514         136.376         131.853 
       0.267535         126.348         119.304 
       0.283568         110.871          105.21 
       0.299022         101.278         93.7369 
       0.314451          95.529         85.6691 
       0.330372         85.2527         78.5918 
       0.346141         77.9742          71.334 
       0.361624         71.6751         64.8329 
       0.377134         65.5229         59.6565 
       0.392932         63.3589          55.199 
       0.408854         57.9237         50.8828 
       0.424564         55.2188         46.8994 
       0.440253         50.3443         43.4812 
       0.455999         46.0541         40.5089 
       0.471626         43.6128         37.7774 
        0.48727          42.319         35.2223 
       0.502856         39.4498         32.9268 
       0.518488          36.922         30.8787 
       0.534347         34.7464         28.9747 
       0.550082         33.3884         27.2191 
       0.565732         32.0895         25.6129 
       0.581496         30.1183         24.1419 
       0.597222          28.484         22.7928 
       0.612804           27.13         21.5523 
       0.628434         26.5798          20.396 
       0.644267         25.1382          19.315 
       0.660051          23.868         18.3187 
       0.675724         22.7429         17.3987 
       0.691403         22.2578         16.5411 
       0.707174         21.3227         15.7365 
       0.722871         20.6186         14.9886 
        0.73838         19.5119         14.2973 
       0.754018         18.5296         13.6444 
       0.769845         18.0264         13.0252 
        0.78569          17.465         12.4439 
       0.801365         16.7879         11.9038 
       0.817031         16.1851         11.3963 
       0.832809         15.6591         10.9153 
       0.848511         15.1715         10.4644 
       0.864097         14.6552         10.0421 
       0.879701          14.399         9.64288 
       0.895507         13.8533         9.26074 
       0.911279         13.2773         8.90019 
        0.92691         12.9961         8.56192 
       0.942635         12.6564         8.23944 
       0.958396         12.2128         7.93296 
       0.974128         11.9178         7.64269 
       0.989692          11.373         7.36988 
        1.00528         11.2901         7.11004 
        1.02113         10.9005          6.8587 
        1.03692         10.6471         6.62049 
        1.05264         10.3798         6.39474 
        1.06832          10.145         6.17991 
        1.08405         9.87615         5.97442 
        1.09979         9.62225         5.77819 
        1.11537         9.37988         5.59274 
        1.13105         9.19097         5.41437 
        1.14679         8.99167         5.24311 
        1.16256          8.7688         5.07896 
        1.17828         8.58837          4.9224 
        1.19395         8.39811         4.77299 
         1.2097         8.13155         4.62905 
        1.22537         7.97805         4.49176 
          1.241         7.77273         4.36047 
        1.25666         7.74186         4.23412 
        1.27241         7.56595          4.1122 
        1.28819           7.261         3.99489 
        1.30392         7.19631         3.88251 
        1.31957         7.03633         3.77497 
        1.33529         6.92587         3.67113 
        1.35108         6.76984         3.57079 
        1.36674         6.60584         3.47493 
         1.3824         6.53437         3.38268 
        1.39811         6.40435         3.29349 
        1.41389         6.24532         3.20719 
        1.42964         6.16562         3.12413 
        1.44531         6.04385         3.04442 
        1.46101         5.97508         2.96734 
        1.47667         5.84021         2.89316 
        1.49229         5.68685         2.82172 
        1.50793         5.61382         2.75262 
        1.52367         5.50459         2.68539 
        1.53953         5.40926         2.61997 
        1.55526         5.37291         2.55725 
        1.57092         5.25127         2.49685 
        1.58662         5.17233         2.43826 
        1.60235         5.09386         2.38144 
        1.61809         5.01274         2.32641 
        1.63369          4.9158         2.27361 
        1.64941         4.83717         2.22207 
        1.66519         4.78015         2.17195 
        1.68085          4.6929         2.12374 
        1.69652         4.63814         2.07698 
        1.71228         4.58234         2.03136 
        1.72806           4.498         1.98708 
        1.74368          4.4454         1.94457 
        1.75933         4.37654         1.90322 
        1.77505         4.28955         1.86287 
        1.79081         4.25753         1.82363 
         1.8065         4.20363         1.78569 
        1.82218         4.13276         1.74887 
        1.83797         4.05692         1.71283 
        1.85367         4.00332         1.67801 
        1.86928         3.97766         1.64437 
        1.88497          3.8899         1.61147 
        1.90073          3.8557         1.57935 
        1.91647         3.79802         1.54813 
        1.93218         3.75224         1.51783 
        1.94787         3.70779         1.48838 
        1.96363         3.66468          1.4596 
        1.97935         3.61691         1.43164 
        1.99499         3.57462         1.40457 
        2.01064         3.53529         1.37816 
         2.0264         3.48059         1.35227 
        2.04216         3.43836         1.32705 
        2.05781         3.39636         1.30264 
        2.07353         3.37255         1.27876 
        2.08928         3.31028         1.25542 
        2.10499         3.27121         1.23273 
        2.12065         3.27256         1.21067 
        2.13633         3.21748         1.18913 
        2.15211         3.16114         1.16798 
        2.16785          3.1304          1.1474 
        2.18349         3.10314         1.12745 
        2.19916         3.07358         1.10793 
        2.21489         3.03933          1.0888 
        2.23063         2.99344         1.07012 
         2.2463         2.95669         1.05196 
        2.26194         2.92677         1.03426 
        2.27765          2.8722         1.01689 
        2.29341         2.85472        0.999864 
        2.30914          2.8225        0.983266 
        2.32486         2.81264        0.967055 
        2.34061         2.77778        0.951182 
        2.35635         2.74892         0.93568 
        2.37203         2.73311        0.920578 
        2.38768          2.7062         0.90584 
        2.40339         2.65892        0.891373 
        2.41914         2.63432        0.877187 
        2.43483          2.6073        0.863361 
         2.4505         2.58787        0.849856 
        2.46622         2.55807        0.836593 
        2.48195         2.54132        0.823614 
        2.49759         2.50949        0.810978 
        2.51328         2.48975        0.798576 
        2.52906          2.4652        0.786354 
        2.54479         2.43932        0.774434 
        2.56049         2.41678        0.762784 
        2.57618          2.3949        0.751384 
        2.59189         2.38823          0.7402 
        2.60758         2.36029        0.729261 
        2.62325         2.32112        0.718557 
        2.63898          2.2999         0.70803 
        2.65468         2.27972        0.697737 
        2.67044         2.27728        0.687604 
        2.68618         2.25266        0.677696 
        2.70184         2.23106        0.668023 
        2.71755         2.20606        0.658514 
        2.73329         2.18209        0.649176 
        2.74897         2.16845         0.64005 
        2.76462         2.14696        0.631119 
        2.78034         2.14104        0.622322 
        2.79607          2.1136        0.613684 
        2.81179         2.09706        0.605219 
        2.82749         2.07633        0.596923 
        2.84321         2.06319        0.588774 
        2.85893          2.0397         0.58078 
        2.87462         2.03373        0.572947 
        2.89033         2.01447        0.565252 
        2.90605         2.00138        0.557692 
        2.92176         1.98159        0.550273 
        2.93747         1.96456        0.542994 
        2.95318         1.94883        0.535845 
        2.96891         1.94191        0.528821 
        2.98456         1.92454        0.521954 
        3.00023          1.9084        0.515199 
        3.01596         1.88607        0.508543 
        3.03164         1.87432        0.502023 
        3.04738         1.86587        0.495598 
         3.0631         1.84964        0.489289 
        3.07883          1.8364        0.483088 
        3.09456         1.81743        0.476996 
        3.11026         1.80928        0.471019 
        3.12596         1.79126        0.465145 
        3.14163         1.78552        0.459384 
        3.15734         1.76657        0.453708 
        3.17308         1.75978        0.448113 
        3.18879         1.74693        0.442629 
        3.20447         1.72516        0.437244 
         3.2202         1.72749        0.431932 
         3.2359         1.70768        0.426718 
        3.25157         1.69269        0.421602 
        3.26729         1.68198        0.416554 
        3.28304         1.66999         0.41158 
        3.29877         1.65525        0.406693 
        3.31446         1.65061        0.401896 
        3.33014         1.63237        0.397181 
        3.34585         1.62475        0.392534 
        3.36158          1.6123        0.387954 
        3.37727         1.60833        0.383462 
        3.39294         1.59265        0.379045 
        3.40867         1.58737        0.374682 
        3.42439          1.5746         0.37039 
        3.44008         1.56285        0.366173 
        3.45578         1.55078        0.362019 
        3.47153         1.54283         0.35792 
        3.48724         1.53152        0.353892 
        3.50292         1.51612        0.349935 
        3.51859         1.51757        0.346041 
        3.53431         1.50027        0.342194 
        3.55007         1.49715        0.338396 
        3.56577         1.48479         0.33467 
        3.58146         1.47806        0.331002 
        3.59719         1.46631        0.327381 
        3.61292         1.45878        0.323815 
        3.62859         1.44808        0.320315 
        3.64429         1.44051        0.316861 
        3.66003         1.43051        0.313447 
        3.67578         1.42161        0.310084 
        3.69146         1.41257        0.306784 
        3.70712         1.40293        0.303537 
        3.72284          1.3957        0.300325 
        3.73853          1.3879        0.297166 
        3.75422         1.37936         0.29405 
        3.76993         1.37055        0.290977 
        3.78564         1.36006        0.287949 
        3.80137         1.35372        0.284959 
        3.81707         1.34379        0.282018 
        3.83279         1.34273        0.279115 
        3.84853         1.33216        0.276249 
        3.86424         1.32024        0.273429 
        3.87992         1.31624        0.270652 
        3.89561         1.30375        0.267914 
        3.91134          1.3017        0.265208 
        3.92704         1.29205        0.262542 
        3.94273          1.2874        0.259916 
        3.95845         1.27426        0.257321 
        3.97418          1.2713        0.254761 
        3.98988         1.26455        0.252239 
        4.00554         1.25371        0.249758 
        4.02125         1.24769        0.247303 
        4.03698         1.23787        0.244877 
        4.05268         1.23086         0.24249 
        4.06839            1.22        0.240132 
         4.0841         1.21307        0.237807 
        4.09983         1.20457        0.235509 
        4.11555         1.19816        0.233242 
        4.13124         1.18797        0.231012 
        4.14693         1.18261        0.228808 
        4.16266         1.17599        0.226629 
        4.17839         1.16729        0.224479 
        4.19408         1.16175        0.222361 
        4.20977         1.15404         0.22027 
        4.22551         1.14863        0.218201 
        4.24123         1.13866        0.216161 
        4.25691         1.13112        0.214152 
        4.27259         1.12437        0.212169 
        4.28831          1.1229        0.210206 
        4.30404         1.11324        0.208266 
        4.31974         1.10525        0.206355 
        4.33543         1.10028        0.204469 
        4.35116         1.09354        0.202602 
        4.36688         1.08699        0.200759 
        4.38255         1.08083        0.198946 
        4.39825         1.07805        0.197151 
        4.41398         1.07011        0.195375 
         4.4297         1.06515        0.193623 
        4.44541         1.05886        0.191892 
        4.46111         1.05125        0.190184 
        4.47683         1.04901        0.188495 
        4.49251         1.04353        0.186831 
        4.50819         1.03803        0.185186 
         4.5239         1.03268         0.18356 
        4.53962         1.02571         0.18195 
        4.55535         1.02372         0.18036 
        4.57106         1.01564         0.17879 
        4.58678         1.01612        0.177239 
         4.6025         1.00821        0.175706 
        4.61821         1.00675        0.174191 
        4.63391           1.002        0.172696 
         4.6496        0.994089         0.17122 
        4.66532        0.992468        0.169758 
        4.68103        0.987991        0.168314 
        4.69673         0.98438        0.166888 
        4.71241        0.978927         0.16548 
        4.72811        0.976468        0.164086 
        4.74384        0.973607        0.162706 
        4.75955        0.969282        0.161344 
        4.77525        0.963454        0.159999 
        4.79096        0.960322        0.158667 
        4.80669        0.958841         0.15735 
         4.8224        0.952811        0.156049 
        4.83809        0.950992        0.154764 
        4.85379        0.946849        0.153493 
         4.8695        0.942749        0.152235 
        4.88521         0.94037        0.150992 
        4.90093        0.936522        0.149762 
        4.91663        0.932983        0.148547 
        4.93234         0.92988        0.147345 
        4.94807        0.926811        0.146154 
        4.96377        0.925225         0.14498 
        4.97943        0.922999         0.14382 
        4.99514        0.920617        0.142671 
        5.01086        0.914603        0.141533 
        5.02654        0.912329         0.14041 
        5.04227        0.909139        0.139296 
          5.058        0.907123        0.138194 
        5.07371        0.903997        0.137106 
        5.08942        0.902077        0.136029 
        5.10513        0.902279        0.134964 
        5.12084        0.896897         0.13391 
        5.13656        0.893393        0.132867 
        5.15225         0.88928        0.131837 
        5.16796        0.887643        0.130816 
        5.18369        0.885859        0.129805 
         5.1994        0.885663        0.128807 
        5.21509        0.881454         0.12782 
        5.23079         0.88098        0.126842 
        5.24649        0.877899        0.125875 
        5.26217        0.876248        0.124919 
        5.27788        0.872405        0.123972 
        5.29359         0.87175        0.123034 
        5.30933        0.870568        0.122104 
        5.32504        0.866603        0.121186 
        5.34073        0.865294        0.120278 
        5.35646        0.863632        0.119378 
        5.37218        0.861024        0.118486 
        5.38789        0.861019        0.117605 
        5.40357        0.859466        0.116734 
        5.41929        0.857638         0.11587 
        5.43502         0.85518        0.115015 
         5.4507        0.850151         0.11417 
        5.46639        0.851309        0.113334 
        5.48212        0.847507        0.112504 
        5.49786        0.848342        0.111681 
        5.51353        0.848226        0.110871 
        5.52921        0.845016        0.110068 
        5.54495        0.842107         0.10927 
        5.56066        0.842824        0.108482 
        5.57637        0.842715        0.107701 
        5.59207        0.839557        0.106928 
        5.60778        0.838452        0.106163 
        5.62346        0.837251        0.105407 
        5.63916        0.836643        0.104657 
        5.65487        0.832266        0.103913 
         5.6706        0.832115        0.103177 
        5.68633        0.829275        0.102447 
        5.70203         0.82998        0.101725 
        5.71773        0.828352        0.101011 
        5.73344        0.824893        0.100303 
        5.74916        0.825572       0.0996017 
        5.76486        0.823581       0.0989077 
        5.78054        0.822232       0.0982214 
        5.79626         0.82206       0.0975396 
          5.812         0.81953       0.0968636 
         5.8277         0.81847       0.0961961 
        5.84339        0.819874       0.0955348 
        5.85911        0.817395       0.0948784 
        5.87484        0.817172       0.0942283 
        5.89053        0.812906       0.0935856 
        5.90623        0.813578       0.0929486 
        5.92195        0.810867       0.0923164 
        5.93767        0.810924       0.0916905 
        5.95336        0.810698       0.0910713 
        5.96905        0.808582       0.0904581 
        5.98476         0.80574       0.0898497 
        6.00048        0.807307       0.0892467 
        6.01617        0.805704         0.08865 
        6.03185        0.802199       0.0880595 
        6.04756        0.804608        0.087473 
        6.06331        0.801752       0.0868905 
        6.07903        0.802013       0.0863146 
        6.09473        0.801035       0.0857444 
        6.11044        0.798488       0.0851788 
        6.12616        0.798222       0.0846185 
        6.14186        0.796434       0.0840637 
        6.15755        0.796291       0.0835139 
        6.17326        0.793671       0.0829687 
        6.18898        0.792905        0.082428 
        6.20467        0.793406       0.0818931 
        6.22036        0.791144        0.081363 
         6.2361        0.790697       0.0808362 
         6.2518        0.789876       0.0803148 
        6.26748        0.789031       0.0797993 
        6.28319        0.786933       0.0792868 
        6.29893         0.78705       0.0787783 
        6.31463        0.784957       0.0782752 
        6.33033        0.785795       0.0777767 
        6.34604        0.785296       0.0772821 
        6.36177         0.78285       0.0767913 
        6.37747        0.782157       0.0763058 
