# k  (h/Mpc)    Pcb(k)  (Mpc/h)^3    Pcb_linear(k) (Mpc/h)^3   ShotnoiseSubtracted = true
      0.0200456           26370         26864.4 
      0.0350414         20175.4         19529.5 
      0.0492313         13812.9         14189.8 
      0.0637834         11128.4         11795.8 
      0.0800726          8721.2         9362.05 
       0.096163         7072.34         6792.98 
       0.111083          5759.8         5418.26 
       0.126058         4757.18         4801.68 
       0.142273         4188.56         4068.08 
       0.158546         3433.68         3212.93 
        0.17375         3098.57         2706.89 
       0.188953          2964.1         2451.03 
       0.204907         2552.21         2168.66 
       0.220756         2318.13         1834.82 
        0.23588         2071.16         1596.13 
         0.2514          1887.1         1450.07 
       0.267535         1812.37         1312.06 
       0.283568         1629.22         1157.06 
       0.299022         1549.81         1030.88 
       0.314451         1617.91         942.158 
       0.330372          1455.1         864.324 
       0.346141         1337.31         784.506 
       0.361624         1280.86         713.009 
       0.377134         1235.56          656.08 
       0.392932         1168.67         607.058 
       0.408854         1127.89         559.591 
       0.424564         1104.75         515.783 
       0.440253         1035.62          478.19 
       0.455999         989.465         445.502 
       0.471626         999.337         415.462 
        0.48727         947.243         387.362 
       0.502856         923.427         362.117 
       0.518488         885.622         339.593 
       0.534347         859.303         318.653 
       0.550082         822.078         299.345 
       0.565732         804.807         281.682 
       0.581496         786.721         265.504 
       0.597222         776.288         250.667 
       0.612804          754.54         237.024 
       0.628434          725.15         224.308 
       0.644267         706.942         212.419 
       0.660051         698.705         201.462 
       0.675724         687.303         191.344 
       0.691403         660.191         181.913 
       0.707174         645.421         173.064 
       0.722871         642.669         164.839 
        0.73838         621.916         157.237 
       0.754018         612.742         150.056 
       0.769845          601.85         143.246 
        0.78569         588.005         136.853 
       0.801365         571.219         130.914 
       0.817031          563.76         125.332 
       0.832809         553.196         120.043 
       0.848511         543.032         115.083 
       0.864097          534.49          110.44 
       0.879701         536.624         106.049 
       0.895507         516.203         101.846 
       0.911279         511.217         97.8811 
        0.92691         501.622         94.1609 
       0.942635         493.836         90.6144 
       0.958396         483.363         87.2438 
       0.974128          474.19         84.0516 
       0.989692          464.44         81.0513 
        1.00528         456.752         78.1936 
        1.02113         448.677         75.4295 
        1.03692         442.244         72.8098 
        1.05264         437.251         70.3271 
        1.06832         427.153         67.9644 
        1.08405         424.862         65.7045 
        1.09979         414.285         63.5464 
        1.11537           405.9          61.507 
        1.13105         400.427         59.5453 
        1.14679         393.636         57.6619 
        1.16256         390.699         55.8566 
        1.17828         384.762         54.1348 
        1.19395         376.289         52.4916 
         1.2097         369.532         50.9086 
        1.22537         365.346         49.3987 
          1.241         357.853         47.9548 
        1.25666         353.924         46.5653 
        1.27241         351.321         45.2245 
        1.28819         341.826         43.9343 
        1.30392         339.648         42.6985 
        1.31957         332.866         41.5158 
        1.33529         328.065         40.3737 
        1.35108         327.725         39.2702 
        1.36674         319.114          38.216 
         1.3824         312.437         37.2015 
        1.39811         309.013         36.2206 
        1.41389         304.637         35.2715 
        1.42964         299.565          34.358 
        1.44531         294.634         33.4814 
        1.46101         288.216         32.6337 
        1.47667         287.152         31.8179 
        1.49229         283.522         31.0322 
        1.50793         277.312         30.2723 
        1.52367         273.132          29.533 
        1.53953         270.104         28.8134 
        1.55526         264.717         28.1237 
        1.57092         262.594         27.4594 
        1.58662         257.479         26.8151 
        1.60235         253.533         26.1902 
        1.61809         251.366          25.585 
        1.63369         246.463         25.0043 
        1.64941         243.748         24.4376 
        1.66519         240.027         23.8864 
        1.68085         235.729         23.3561 
        1.69652         232.691         22.8418 
        1.71228         229.109         22.3402 
        1.72806         226.181         21.8532 
        1.74368         222.797         21.3856 
        1.75933         220.698         20.9309 
        1.77505         217.039         20.4872 
        1.79081         214.253         20.0557 
         1.8065         212.893         19.6384 
        1.82218         207.306         19.2334 
        1.83797         205.659         18.8371 
        1.85367         202.537         18.4542 
        1.86928         198.829         18.0842 
        1.88497         196.833         17.7223 
        1.90073         195.052         17.3691 
        1.91647         191.992         17.0258 
        1.93218         188.783         16.6925 
        1.94787         185.451         16.3687 
        1.96363         184.578         16.0521 
        1.97935         181.359         15.7446 
        1.99499         179.708         15.4469 
        2.01064         175.309         15.1565 
         2.0264         174.556         14.8718 
        2.04216         171.406         14.5945 
        2.05781         169.607          14.326 
        2.07353         168.176         14.0633 
        2.08928         166.487         13.8067 
        2.10499         163.143         13.5572 
        2.12065         161.468         13.3145 
        2.13633         159.073         13.0777 
        2.15211         157.163          12.845 
        2.16785         155.526         12.6187 
        2.18349         153.146         12.3992 
        2.19916         152.397         12.1846 
        2.21489         149.017         11.9743 
        2.23063         147.235         11.7688 
         2.2463         145.513         11.5691 
        2.26194         144.212         11.3745 
        2.27765         142.043         11.1833 
        2.29341         140.476         10.9961 
        2.30914         138.318         10.8136 
        2.32486         137.173         10.6353 
        2.34061         134.617         10.4608 
        2.35635         133.066         10.2903 
        2.37203         132.101         10.1242 
        2.38768         130.281         9.96211 
        2.40339         128.692         9.80299 
        2.41914         126.506         9.64699 
        2.43483         125.301         9.49493 
         2.4505         124.231         9.34641 
        2.46622         122.069         9.20055 
        2.48195         120.752          9.0578 
        2.49759         119.009         8.91885 
        2.51328         117.778         8.78245 
        2.52906         116.605         8.64804 
        2.54479         114.977         8.51694 
        2.56049         113.596         8.38882 
        2.57618         112.469         8.26345 
        2.59189         111.388         8.14045 
        2.60758         110.191         8.02015 
        2.62325         108.216         7.90243 
        2.63898          106.69         7.78666 
        2.65468         105.724         7.67346 
        2.67044         104.748         7.56202 
        2.68618         103.427         7.45305 
        2.70184         102.558         7.34667 
        2.71755         100.802          7.2421 
        2.73329         99.5945          7.1394 
        2.74897         98.4149         7.03904 
        2.76462          97.676         6.94082 
        2.78034         96.7164         6.84407 
        2.79607         95.4081         6.74907 
        2.81179          94.428         6.65598 
        2.82749         93.5043         6.56475 
        2.84321         92.0443         6.47513 
        2.85893         91.0372          6.3872 
        2.87462          89.958         6.30107 
        2.89033         89.1841         6.21644 
        2.90605         88.0067         6.13329 
        2.92176         87.0646         6.05171 
        2.93747         86.2589         5.97165 
        2.95318         85.1516         5.89302 
        2.96891         84.6793         5.81578 
        2.98456         83.1278         5.74026 
        3.00023         82.4453         5.66597 
        3.01596         81.8743         5.59277 
        3.03164          80.665         5.52107 
        3.04738         80.0621         5.45041 
         3.0631         79.2943         5.38102 
        3.07883         78.3207         5.31283 
        3.09456         77.3016         5.24583 
        3.11026         76.8186          5.1801 
        3.12596          75.744         5.11549 
        3.14163         75.0071         5.05214 
        3.15734         74.1346         4.98971 
        3.17308         73.3805         4.92819 
        3.18879         72.6299         4.86787 
        3.20447         72.1565         4.80865 
         3.2202         71.1022         4.75023 
         3.2359         70.5476         4.69289 
        3.25157         69.8586         4.63663 
        3.26729         68.9898         4.58112 
        3.28304         68.1732         4.52641 
        3.29877         67.5973         4.47266 
        3.31446          66.938         4.41991 
        3.33014         66.3303         4.36805 
        3.34585          65.611         4.31694 
        3.36158         64.9746         4.26658 
        3.37727         64.2287         4.21718 
        3.39294         63.5891          4.1686 
        3.40867         63.0679         4.12062 
        3.42439         62.0417         4.07341 
        3.44008         61.6265         4.02704 
        3.45578         61.2322         3.98136 
        3.47153         60.5977         3.93628 
        3.48724         59.8875         3.89198 
        3.50292          59.486         3.84846 
        3.51859         58.7833         3.80563 
        3.53431         58.1035         3.76332 
        3.55007         57.5293         3.72155 
        3.56577         56.9925         3.68058 
        3.58146         56.4432         3.64024 
        3.59719         56.0185         3.60041 
        3.61292         55.4434          3.5612 
        3.62859         54.8781         3.52271 
        3.64429         54.5061         3.48472 
        3.66003         53.8285         3.44717 
        3.67578         53.2508         3.41019 
        3.69146         52.8135         3.37389 
        3.70712         52.1711         3.33819 
        3.72284         51.6322         3.30287 
        3.73853         51.4055         3.26812 
        3.75422         50.8744         3.23386 
        3.76993         50.4622         3.20006 
        3.78564           49.84         3.16676 
        3.80137         49.3571         3.13388 
        3.81707           48.88         3.10153 
        3.83279         48.4702         3.06961 
        3.84853         48.0388         3.03809 
        3.86424         47.6627         3.00707 
        3.87992         47.1054         2.97654 
        3.89561          46.798         2.94642 
        3.91134         46.3368         2.91666 
        3.92704          45.912         2.88735 
        3.94273         45.4686         2.85846 
        3.95845         44.9769         2.82992 
        3.97418         44.6108         2.80177 
        3.98988         44.1939         2.77403 
        4.00554         43.7429         2.74675 
        4.02125         43.2973         2.71975 
        4.03698          43.049         2.69307 
        4.05268         42.6426         2.66682 
        4.06839         42.2524         2.64089 
         4.0841         41.9525         2.61531 
        4.09983         41.6074         2.59004 
        4.11555         41.2276         2.56511 
        4.13124         40.7788         2.54058 
        4.14693          40.462         2.51635 
        4.16266         40.1986         2.49238 
        4.17839         39.7376         2.46873 
        4.19408         39.4572         2.44545 
        4.20977         38.9973         2.42245 
        4.22551         38.6654          2.3997 
        4.24123         38.3826         2.37726 
        4.25691         37.9957         2.35517 
        4.27259          37.709         2.33335 
        4.28831         37.3559         2.31177 
        4.30404         37.1182         2.29044 
        4.31974         36.6701         2.26942 
        4.33543         36.3566         2.24868 
        4.35116         36.0082         2.22814 
        4.36688          35.769         2.20788 
        4.38255         35.5072         2.18794 
        4.39825         35.2033          2.1682 
        4.41398         34.8916         2.14866 
         4.4297         34.4986         2.12939 
        4.44541         34.3489         2.11036 
        4.46111         34.1009         2.09157 
        4.47683         33.8079           2.073 
        4.49251         33.4704         2.05469 
        4.50819         33.1902         2.03661 
         4.5239          32.836         2.01872 
        4.53962          32.588         2.00102 
        4.55535         32.2705         1.98353 
        4.57106         32.0628         1.96627 
        4.58678          31.757         1.94921 
         4.6025         31.4644         1.93235 
        4.61821         31.2921         1.91569 
        4.63391         30.9882         1.89925 
         4.6496         30.7732         1.88301 
        4.66532         30.5749         1.86694 
        4.68103         30.3081         1.85105 
        4.69673         29.9723         1.83537 
        4.71241          29.774         1.81989 
        4.72811         29.5019         1.80456 
        4.74384         29.2925         1.78938 
        4.75955         29.0496         1.77441 
        4.77525         28.8196         1.75961 
        4.79096          28.619         1.74496 
        4.80669         28.4007         1.73047 
         4.8224         28.1432         1.71617 
        4.83809         27.9069         1.70204 
        4.85379         27.6628         1.68806 
         4.8695         27.4377         1.67422 
        4.88521         27.1987         1.66055 
        4.90093         26.9695         1.64703 
        4.91663         26.8459         1.63367 
        4.93234         26.5895         1.62044 
        4.94807            26.4         1.60735 
        4.96377         26.1865         1.59443 
        4.97943         26.0083         1.58168 
        4.99514         25.7784         1.56904 
        5.01086         25.6144         1.55653 
        5.02654         25.3744         1.54418 
        5.04227         25.1606         1.53193 
          5.058         25.0995         1.51981 
        5.07371         24.8475         1.50784 
        5.08942         24.6854           1.496 
        5.10513         24.4591         1.48428 
        5.12084         24.2202         1.47269 
        5.13656         24.1138         1.46122 
        5.15225         23.8845         1.44989 
        5.16796         23.6897         1.43867 
        5.18369         23.5429         1.42755 
         5.1994         23.3245         1.41657 
        5.21509         23.1303         1.40572 
        5.23079         22.9687         1.39496 
        5.24649         22.7635         1.38433 
        5.26217         22.6557         1.37381 
        5.27788         22.4729         1.36339 
        5.29359         22.2833         1.35308 
        5.30933         22.0928         1.34286 
        5.32504         21.9671         1.33276 
        5.34073         21.8097         1.32277 
        5.35646          21.664         1.31287 
        5.37218         21.4683         1.30307 
        5.38789         21.3223         1.29338 
        5.40357         21.1183          1.2838 
        5.41929         21.0072          1.2743 
        5.43502          20.807         1.26489 
         5.4507         20.7448          1.2556 
        5.46639         20.5289         1.24641 
        5.48212         20.3408         1.23728 
        5.49786         20.2348         1.22823 
        5.51353         20.0523         1.21932 
        5.52921         19.9035         1.21049 
        5.54495         19.8099         1.20172 
        5.56066         19.6396         1.19304 
        5.57637         19.4784         1.18446 
        5.59207          19.398         1.17596 
        5.60778         19.2277         1.16754 
        5.62346         19.0668         1.15922 
        5.63916         18.9168         1.15097 
        5.65487         18.7849          1.1428 
         5.6706         18.6647          1.1347 
        5.68633         18.5318         1.12667 
        5.70203         18.3712         1.11874 
        5.71773         18.2699         1.11088 
        5.73344         18.1588          1.1031 
        5.74916         18.0266         1.09538 
        5.76486         17.8938         1.08775 
        5.78054         17.7547          1.0802 
        5.79626         17.6597         1.07271 
          5.812         17.5238         1.06527 
         5.8277         17.3732         1.05793 
        5.84339         17.2404         1.05066 
        5.85911         17.1193         1.04344 
        5.87484         17.0141         1.03629 
        5.89053         16.8829         1.02922 
        5.90623         16.7691         1.02222 
        5.92195         16.6747         1.01526 
        5.93767          16.537         1.00838 
        5.95336         16.4223         1.00157 
        5.96905         16.3131        0.994826 
        5.98476         16.2038        0.988135 
        6.00048         16.0497        0.981503 
        6.01617         15.9588        0.974941 
        6.03185          15.856        0.968447 
        6.04756         15.7203        0.961996 
        6.06331         15.6366         0.95559 
        6.07903          15.506        0.949257 
        6.09473         15.4074        0.942986 
        6.11044         15.3057        0.936766 
        6.12616          15.217        0.930603 
        6.14186         15.0773        0.924502 
        6.15755         15.0032        0.918456 
        6.17326         14.9333        0.912459 
        6.18898         14.8295        0.906513 
        6.20467         14.6837        0.900631 
        6.22036         14.5898        0.894801 
         6.2361         14.4976        0.889007 
         6.2518         14.3819        0.883274 
        6.26748          14.317        0.877603 
        6.28319         14.2089        0.871967 
        6.29893         14.1048        0.866376 
        6.31463         14.0139        0.860843 
        6.33033         13.9163         0.85536 
        6.34604         13.8214         0.84992 
        6.36177         13.7633        0.844523 
        6.37747         13.6416        0.839183 
