# k  (h/Mpc)    Pcb(k)  (Mpc/h)^3    Pcb_linear(k) (Mpc/h)^3   ShotnoiseSubtracted = true
      0.0200456         9710.18         9850.67 
      0.0350414         7340.13          7161.1 
      0.0492313         5166.24         5203.12 
      0.0637834         4185.87         4325.31 
      0.0800726          3300.2         3432.89 
       0.096163         2572.43         2490.86 
       0.111083          2087.8         1986.77 
       0.126058         1746.16         1760.69 
       0.142273         1500.36         1491.69 
       0.158546         1230.26         1178.12 
        0.17375         1071.82         992.567 
       0.188953         987.497         898.746 
       0.204907         841.955         795.207 
       0.220756         753.178         672.793 
        0.23588         667.689         585.272 
         0.2514         597.896         531.714 
       0.267535         577.411          481.11 
       0.283568         503.518         424.274 
       0.299022         478.033         378.006 
       0.314451         476.934         345.472 
       0.330372         410.384         316.932 
       0.346141         380.275         287.664 
       0.361624         361.759         261.447 
       0.377134         335.419         240.573 
       0.392932         326.244         222.597 
       0.408854         309.391         205.192 
       0.424564         297.589         189.128 
       0.440253         268.531         175.344 
       0.455999         255.657         163.357 
       0.471626         253.583         152.342 
        0.48727          241.84         142.038 
       0.502856         220.891         132.782 
       0.518488         220.989         124.522 
       0.534347         205.389         116.844 
       0.550082         200.511         109.764 
       0.565732         198.284         103.287 
       0.581496         184.904         97.3554 
       0.597222         180.683          91.915 
       0.612804         175.122         86.9124 
       0.628434         169.549         82.2496 
       0.644267         161.418         77.8902 
       0.660051          157.48         73.8724 
       0.675724         155.773         70.1625 
       0.691403         151.705         66.7042 
       0.707174         146.457         63.4595 
       0.722871         144.087         60.4435 
        0.73838         141.956         57.6558 
       0.754018          133.35         55.0229 
       0.769845         133.091         52.5258 
        0.78569         129.522         50.1815 
       0.801365         125.548         48.0037 
       0.817031         121.967         45.9571 
       0.832809          119.89         44.0174 
       0.848511         117.054         42.1989 
       0.864097          115.02         40.4962 
       0.879701         113.304         38.8862 
       0.895507         109.609         37.3451 
       0.911279         107.336         35.8912 
        0.92691         104.848         34.5271 
       0.942635         102.674         33.2266 
       0.958396         101.798         31.9907 
       0.974128         99.5222         30.8202 
       0.989692         97.2951           29.72 
        1.00528         95.8115         28.6722 
        1.02113         93.3121         27.6586 
        1.03692         93.1123          26.698 
        1.05264         91.7812         25.7876 
        1.06832         88.7195         24.9213 
        1.08405         88.0268         24.0926 
        1.09979          87.256         23.3013 
        1.11537         84.8638         22.5535 
        1.13105         83.7055         21.8341 
        1.14679          82.383         21.1435 
        1.16256         80.7186         20.4816 
        1.17828         80.0391         19.8502 
        1.19395         77.8442         19.2477 
         1.2097         77.8828         18.6672 
        1.22537         75.9802         18.1136 
          1.241         75.7624         17.5842 
        1.25666         73.0786         17.0746 
        1.27241         72.8088          16.583 
        1.28819         72.1999         16.1099 
        1.30392         70.7066         15.6567 
        1.31957         70.1986         15.2231 
        1.33529         69.1546         14.8043 
        1.35108         68.5302         14.3997 
        1.36674         67.4056         14.0131 
         1.3824           66.65         13.6411 
        1.39811         65.1847         13.2814 
        1.41389         64.2346         12.9334 
        1.42964         63.6303         12.5984 
        1.44531         62.9425          12.277 
        1.46101         62.3309         11.9662 
        1.47667          61.326          11.667 
        1.49229         60.5616          11.379 
        1.50793         59.8825         11.1003 
        1.52367         59.3829         10.8292 
        1.53953         58.4131         10.5654 
        1.55526         57.4735         10.3124 
        1.57092         57.2884         10.0689 
        1.58662          56.443          9.8326 
        1.60235         55.6785         9.60347 
        1.61809         54.7278         9.38155 
        1.63369         54.1034         9.16863 
        1.64941         53.7868          8.9608 
        1.66519         52.5674         8.75869 
        1.68085         52.3411         8.56426 
        1.69652         51.2334         8.37568 
        1.71228         51.0411         8.19173 
        1.72806         50.3956         8.01316 
        1.74368         49.7083         7.84172 
        1.75933         49.3767         7.67497 
        1.77505         48.8647         7.51229 
        1.79081         48.1877         7.35405 
         1.8065         47.6901         7.20105 
        1.82218         46.4757         7.05255 
        1.83797         46.2077         6.90722 
        1.85367         45.8733          6.7668 
        1.86928         45.5579         6.63114 
        1.88497         44.6771         6.49846 
        1.90073         44.1503         6.36892 
        1.91647         44.0094         6.24304 
        1.93218          43.759         6.12084 
        1.94787          42.977         6.00209 
        1.96363           42.29         5.88602 
        1.97935         42.0097         5.77327 
        1.99499         41.4984         5.66411 
        2.01064         40.9417         5.55762 
         2.0264          40.806          5.4532 
        2.04216         40.2161         5.35152 
        2.05781         39.7309         5.25308 
        2.07353         39.1192         5.15677 
        2.08928         39.0983         5.06266 
        2.10499         38.6783         4.97116 
        2.12065         38.1316          4.8822 
        2.13633         37.9454         4.79534 
        2.15211         37.2896         4.71003 
        2.16785          36.763         4.62704 
        2.18349         36.4649         4.54658 
        2.19916         36.1013         4.46786 
        2.21489         35.8691         4.39074 
        2.23063         35.4264         4.31539 
         2.2463         35.1927         4.24216 
        2.26194         34.6502          4.1708 
        2.27765         34.2846         4.10073 
        2.29341         33.9245         4.03208 
        2.30914         33.5954         3.96515 
        2.32486         33.1086         3.89977 
        2.34061         32.9274         3.83577 
        2.35635         32.6204         3.77325 
        2.37203         32.3237         3.71235 
        2.38768         32.0332         3.65292 
        2.40339         31.7889         3.59458 
        2.41914         31.4236         3.53737 
        2.43483         31.1706         3.48162 
         2.4505          30.789         3.42715 
        2.46622         30.4161         3.37367 
        2.48195         30.2614         3.32133 
        2.49759         29.7629         3.27038 
        2.51328         29.5073         3.22036 
        2.52906         29.3529         3.17108 
        2.54479         29.0032         3.12301 
        2.56049         28.8802         3.07603 
        2.57618         28.4696         3.03005 
        2.59189          28.165         2.98495 
        2.60758         27.9168         2.94084 
        2.62325         27.6353         2.89768 
        2.63898         27.5044         2.85523 
        2.65468         27.0847         2.81372 
        2.67044         26.8852         2.77285 
        2.68618         26.6304          2.7329 
        2.70184          26.304         2.69389 
        2.71755         26.0958         2.65554 
        2.73329         25.8179         2.61789 
        2.74897         25.5899         2.58108 
        2.76462         25.4077         2.54507 
        2.78034         25.0565          2.5096 
        2.79607         24.8524         2.47476 
        2.81179         24.6341         2.44062 
        2.82749         24.3981         2.40717 
        2.84321         24.1603         2.37431 
        2.85893         23.9816         2.34207 
        2.87462         23.7612         2.31048 
        2.89033         23.5322         2.27945 
        2.90605         23.2545         2.24896 
        2.92176         23.0116         2.21905 
        2.93747         22.8554         2.18969 
        2.95318         22.7431         2.16086 
        2.96891         22.4292         2.13254 
        2.98456         22.2528         2.10485 
        3.00023         21.9443         2.07761 
        3.01596          21.659         2.05076 
        3.03164         21.5651         2.02447 
        3.04738         21.4154         1.99857 
         3.0631         21.1984         1.97312 
        3.07883         20.9598         1.94812 
        3.09456         20.7679         1.92355 
        3.11026         20.5367         1.89945 
        3.12596         20.3218         1.87576 
        3.14163         20.1873         1.85253 
        3.15734         20.0365         1.82964 
        3.17308         19.8147         1.80708 
        3.18879         19.6355         1.78496 
        3.20447          19.534         1.76324 
         3.2202         19.2549         1.74182 
         3.2359         19.0719          1.7208 
        3.25157         18.9052         1.70017 
        3.26729         18.7781         1.67981 
        3.28304         18.6306         1.65975 
        3.29877         18.4804         1.64004 
        3.31446         18.2835          1.6207 
        3.33014          18.058         1.60168 
        3.34585         18.0149         1.58294 
        3.36158         17.7498         1.56448 
        3.37727         17.6426         1.54636 
        3.39294         17.4802         1.52855 
        3.40867         17.3303         1.51095 
        3.42439         17.1269         1.49365 
        3.44008         16.9743         1.47664 
        3.45578         16.8335         1.45989 
        3.47153         16.7186         1.44336 
        3.48724         16.5702         1.42712 
        3.50292         16.4309         1.41116 
        3.51859         16.2853         1.39546 
        3.53431         16.1244         1.37994 
        3.55007         15.9755         1.36462 
        3.56577         15.8858          1.3496 
        3.58146         15.7025         1.33481 
        3.59719          15.578         1.32021 
        3.61292         15.4481         1.30583 
        3.62859         15.2561         1.29171 
        3.64429         15.1615         1.27778 
        3.66003         15.0653         1.26401 
        3.67578          14.977         1.25045 
        3.69146         14.7962         1.23714 
        3.70712          14.667         1.22405 
        3.72284         14.5149          1.2111 
        3.73853         14.4496         1.19836 
        3.75422         14.2308          1.1858 
        3.76993         14.1516          1.1734 
        3.78564         14.0459         1.16119 
        3.80137         13.9106         1.14913 
        3.81707         13.7514         1.13727 
        3.83279         13.7154         1.12557 
        3.84853          13.565         1.11401 
        3.86424         13.4219         1.10264 
        3.87992         13.3545         1.09144 
        3.89561         13.2098          1.0804 
        3.91134         13.1301         1.06949 
        3.92704         13.0028         1.05874 
        3.94273         12.9079         1.04815 
        3.95845         12.7978         1.03768 
        3.97418         12.6611         1.02736 
        3.98988         12.5849         1.01719 
        4.00554         12.4609         1.00718 
        4.02125         12.3679        0.997282 
        4.03698         12.2978          0.9875 
        4.05268         12.1562        0.977872 
        4.06839         12.0399        0.968365 
         4.0841         11.9636        0.958988 
        4.09983         11.8405        0.949721 
        4.11555         11.7604         0.94058 
        4.13124         11.6466        0.931585 
        4.14693         11.5722          0.9227 
        4.16266         11.4703         0.91391 
        4.17839         11.3707         0.90524 
        4.19408         11.3079        0.896701 
        4.20977         11.1938         0.88827 
        4.22551         11.1151        0.879926 
        4.24123         11.0356        0.871698 
        4.25691         10.9157        0.863598 
        4.27259         10.8253        0.855598 
        4.28831         10.7616        0.847683 
        4.30404         10.6624        0.839861 
        4.31974          10.586        0.832154 
        4.33543         10.4635        0.824548 
        4.35116         10.4299         0.81702 
        4.36688         10.3181        0.809588 
        4.38255         10.2225        0.802276 
        4.39825         10.1616        0.795038 
        4.41398         10.0897        0.787875 
         4.4297         9.98543        0.780809 
        4.44541         9.93683         0.77383 
        4.46111          9.8319        0.766941 
        4.47683         9.74487        0.760132 
        4.49251         9.67569        0.753419 
        4.50819         9.60558        0.746788 
         4.5239         9.55248        0.740229 
        4.53962         9.45313        0.733739 
        4.55535         9.39269        0.727324 
        4.57106         9.32763        0.720995 
        4.58678         9.25376         0.71474 
         4.6025         9.18444        0.708558 
        4.61821          9.1131         0.70245 
        4.63391         9.01723        0.696421 
         4.6496         8.94949        0.690466 
        4.66532         8.90792        0.684571 
        4.68103         8.80042        0.678748 
        4.69673         8.75198        0.672997 
        4.71241         8.68184         0.66732 
        4.72811          8.6091        0.661698 
        4.74384         8.57296        0.656133 
        4.75955          8.4895        0.650642 
        4.77525         8.42817        0.645216 
        4.79096         8.36662        0.639845 
        4.80669         8.28906        0.634533 
         4.8224         8.23281        0.629287 
        4.83809         8.17733        0.624106 
        4.85379         8.12846         0.61898 
         4.8695          8.0562        0.613907 
        4.88521         7.97885        0.608893 
        4.90093         7.95336        0.603935 
        4.91663         7.87246        0.599036 
        4.93234         7.82104        0.594186 
        4.94807         7.76531        0.589387 
        4.96377         7.70141         0.58465 
        4.97943         7.63787        0.579975 
        4.99514         7.59457        0.575338 
        5.01086         7.53422        0.570749 
        5.02654         7.47771        0.566222 
        5.04227         7.40631         0.56173 
          5.058         7.36769        0.557285 
        5.07371         7.33478        0.552897 
        5.08942         7.24088        0.548555 
        5.10513         7.19933        0.544259 
        5.12084         7.13981        0.540008 
        5.13656         7.09844        0.535802 
        5.15225         7.05008        0.531649 
        5.16796         6.99933        0.527532 
        5.18369         6.95436        0.523456 
         5.1994         6.91219         0.51943 
        5.21509           6.851         0.51545 
        5.23079         6.78516        0.511507 
        5.24649         6.75878        0.507608 
        5.26217         6.71381        0.503753 
        5.27788         6.65978        0.499932 
        5.29359         6.61716         0.49615 
        5.30933         6.55138        0.492401 
        5.32504         6.52546        0.488698 
        5.34073         6.47112        0.485037 
        5.35646         6.43664        0.481406 
        5.37218         6.39088        0.477811 
        5.38789         6.33996        0.474259 
        5.40357         6.29156        0.470747 
        5.41929         6.26406        0.467262 
        5.43502         6.21244        0.463813 
         5.4507         6.16376        0.460407 
        5.46639         6.11706        0.457034 
        5.48212         6.07594        0.453687 
        5.49786          6.0381         0.45037 
        5.51353         6.00327        0.447102 
        5.52921         5.95714        0.443864 
        5.54495         5.91483        0.440648 
        5.56066         5.88111        0.437467 
        5.57637         5.83652        0.434318 
        5.59207          5.7833        0.431203 
        5.60778         5.77115        0.428117 
        5.62346         5.72127        0.425066 
        5.63916         5.67925        0.422041 
        5.65487         5.63204        0.419045 
         5.6706          5.6055        0.416073 
        5.68633         5.56751         0.41313 
        5.70203         5.53068        0.410221 
        5.71773          5.4933        0.407341 
        5.73344         5.46315        0.404487 
        5.74916         5.41932        0.401657 
        5.76486         5.39239        0.398858 
        5.78054         5.34188        0.396091 
        5.79626         5.31693        0.393341 
          5.812         5.27522        0.390615 
         5.8277         5.24342        0.387923 
        5.84339         5.20963        0.385256 
        5.85911         5.17462         0.38261 
        5.87484         5.14402        0.379988 
        5.89053         5.09551        0.377396 
        5.90623         5.07752        0.374827 
        5.92195         5.05026        0.372278 
        5.93767         4.99669        0.369754 
        5.95336          4.9712        0.367257 
        5.96905         4.93943        0.364784 
        5.98476         4.91265        0.362331 
        6.00048         4.88258        0.359899 
        6.01617         4.85036        0.357493 
        6.03185          4.8258        0.355112 
        6.04756         4.79445        0.352746 
        6.06331         4.75446        0.350397 
        6.07903         4.72574        0.348075 
        6.09473         4.69927        0.345776 
        6.11044         4.65911        0.343495 
        6.12616         4.63369        0.341235 
        6.14186         4.60322        0.338998 
        6.15755          4.5736        0.336781 
        6.17326         4.55006        0.334582 
        6.18898         4.52892        0.332402 
        6.20467         4.49199        0.330245 
        6.22036         4.46858        0.328107 
         6.2361         4.43189        0.325982 
         6.2518         4.41121         0.32388 
        6.26748         4.38218        0.321801 
        6.28319         4.35857        0.319734 
        6.29893         4.32372        0.317684 
        6.31463         4.30814        0.315655 
        6.33033         4.27865        0.313645 
        6.34604         4.24935         0.31165 
        6.36177         4.22752        0.309671 
        6.37747         4.20157        0.307713 
