# k  (h/Mpc)    Pcb(k)  (Mpc/h)^3    Pcb_linear(k) (Mpc/h)^3   ShotnoiseSubtracted = true
      0.0200456         2230.59          2259.4 
      0.0350414         1667.77         1642.51 
      0.0492313         1195.77         1193.42 
      0.0637834           977.8         992.076 
      0.0800726         773.611         787.386 
       0.096163         582.817         571.317 
       0.111083         468.915         455.697 
       0.126058         401.546          403.84 
       0.142273         340.027         342.142 
       0.158546         274.432          270.22 
        0.17375         235.012          227.66 
       0.188953         211.687         206.141 
       0.204907         181.229         182.393 
       0.220756         159.058         154.315 
        0.23588         139.041         134.241 
         0.2514         125.822         121.957 
       0.267535          116.37          110.35 
       0.283568         102.157         97.3137 
       0.299022          93.154         86.7015 
       0.314451         87.7411         79.2393 
       0.330372         78.4153         72.6932 
       0.346141          71.677         65.9801 
       0.361624         65.7993         59.9669 
       0.377134         60.1644          55.179 
       0.392932         58.1284         51.0561 
       0.408854         53.0492         47.0638 
       0.424564         50.5646         43.3794 
       0.440253         46.1067         40.2177 
       0.455999         42.1631         37.4685 
       0.471626         39.8835          34.942 
        0.48727         38.6756         32.5787 
       0.502856         36.0837         30.4555 
       0.518488         33.6937         28.5611 
       0.534347         31.6879            26.8 
       0.550082         30.4387         25.1762 
       0.565732          29.233         23.6906 
       0.581496         27.4593         22.3299 
       0.597222         25.9388         21.0821 
       0.612804         24.6702         19.9347 
       0.628434         24.1514         18.8652 
       0.644267         22.8471         17.8653 
       0.660051         21.6749         16.9438 
       0.675724         20.6315         16.0928 
       0.691403         20.1675         15.2996 
       0.707174         19.3007         14.5554 
       0.722871         18.6745         13.8636 
        0.73838         17.6489         13.2242 
       0.754018         16.7672         12.6203 
       0.769845         16.2765         12.0476 
        0.78569          15.783         11.5099 
       0.801365         15.1513         11.0104 
       0.817031         14.6151          10.541 
       0.832809         14.1053         10.0961 
       0.848511         13.6745         9.67897 
       0.864097         13.1983         9.28841 
       0.879701         12.9568         8.91914 
       0.895507         12.4659         8.56568 
       0.911279         11.9443         8.23219 
        0.92691         11.6764         7.91931 
       0.942635         11.3573         7.62103 
       0.958396         10.9572         7.33755 
       0.974128         10.6948         7.06908 
       0.989692         10.1992         6.81674 
        1.00528         10.1178          6.5764 
        1.02113         9.76784         6.34393 
        1.03692         9.53651          6.1236 
        1.05264         9.28196         5.91479 
        1.06832         9.06677         5.71608 
        1.08405         8.83018         5.52601 
        1.09979         8.59993         5.34451 
        1.11537         8.38217         5.17298 
        1.13105         8.20054           5.008 
        1.14679         8.02222         4.84959 
        1.16256         7.81321         4.69776 
        1.17828         7.65821         4.55295 
        1.19395         7.47068         4.41476 
         1.2097         7.23542         4.28162 
        1.22537          7.0888         4.15463 
          1.241         6.90875          4.0332 
        1.25666         6.87978         3.91633 
        1.27241         6.72148         3.80356 
        1.28819         6.45075         3.69505 
        1.30392         6.37382         3.59111 
        1.31957         6.24261         3.49165 
        1.33529         6.13063         3.39559 
        1.35108         5.99209         3.30278 
        1.36674         5.84562         3.21412 
         1.3824         5.78341          3.1288 
        1.39811         5.66071          3.0463 
        1.41389         5.51722         2.96647 
        1.42964         5.44606         2.88965 
        1.44531          5.3375         2.81592 
        1.46101         5.27396         2.74462 
        1.47667         5.15221         2.67601 
        1.49229         5.01241         2.60994 
        1.50793         4.93949         2.54602 
        1.52367         4.84344         2.48384 
        1.53953         4.75731         2.42333 
        1.55526         4.73446         2.36532 
        1.57092         4.61704         2.30945 
        1.58662         4.55189         2.25526 
        1.60235         4.47235          2.2027 
        1.61809         4.39892          2.1518 
        1.63369         4.31715         2.10296 
        1.64941         4.24646          2.0553 
        1.66519         4.19521         2.00894 
        1.68085         4.11607         1.96434 
        1.69652         4.06356         1.92109 
        1.71228          4.0109          1.8789 
        1.72806         3.94212         1.83794 
        1.74368         3.89036         1.79862 
        1.75933         3.82967         1.76037 
        1.77505         3.75418         1.72306 
        1.79081         3.72211         1.68676 
         1.8065         3.67095         1.65167 
        1.82218         3.60698         1.61761 
        1.83797         3.54173         1.58428 
        1.85367         3.49407         1.55207 
        1.86928         3.46926         1.52095 
        1.88497         3.38959         1.49052 
        1.90073         3.36233         1.46081 
        1.91647         3.31241         1.43194 
        1.93218         3.26892         1.40391 
        1.94787         3.23009         1.37667 
        1.96363         3.19083         1.35005 
        1.97935         3.14436         1.32419 
        1.99499         3.10801         1.29915 
        2.01064         3.07416         1.27473 
         2.0264         3.02217         1.25078 
        2.04216         2.98677         1.22745 
        2.05781         2.94785         1.20487 
        2.07353         2.92851         1.18278 
        2.08928         2.87595          1.1612 
        2.10499         2.83645         1.14021 
        2.12065         2.83465         1.11981 
        2.13633         2.78583         1.09988 
        2.15211         2.73868         1.08032 
        2.16785         2.71246         1.06128 
        2.18349         2.68349         1.04283 
        2.19916         2.66105         1.02477 
        2.21489          2.6313         1.00708 
        2.23063         2.58724        0.989802 
         2.2463          2.5534        0.973004 
        2.26194         2.53114        0.956638 
        2.27765         2.47992        0.940565 
        2.29341         2.46639         0.92482 
        2.30914          2.4366        0.909468 
        2.32486         2.42971        0.894473 
        2.34061         2.39771        0.879792 
        2.35635         2.37179        0.865454 
        2.37203         2.35579        0.851485 
        2.38768         2.33045        0.837853 
        2.40339          2.2925        0.824471 
        2.41914         2.27062         0.81135 
        2.43483         2.24749        0.798562 
         2.4505         2.22821         0.78607 
        2.46622         2.20028        0.773804 
        2.48195         2.18538        0.761798 
        2.49759         2.15812        0.750111 
        2.51328         2.14132        0.738639 
        2.52906         2.12122        0.727335 
        2.54479         2.09585        0.716309 
        2.56049         2.07736        0.705534 
        2.57618         2.05731        0.694989 
        2.59189         2.04905        0.684645 
        2.60758         2.02353        0.674527 
        2.62325         1.99278        0.664626 
        2.63898         1.97354         0.65489 
        2.65468         1.95368        0.645369 
        2.67044         1.95132        0.635996 
        2.68618         1.92923        0.626832 
        2.70184         1.91113        0.617885 
        2.71755         1.89211         0.60909 
        2.73329         1.86804        0.600453 
        2.74897         1.85758        0.592011 
        2.76462         1.83929        0.583751 
        2.78034         1.83467        0.575614 
        2.79607         1.80884        0.567624 
        2.81179         1.79481        0.559795 
        2.82749         1.77723        0.552122 
        2.84321         1.76533        0.544584 
        2.85893         1.74546         0.53719 
        2.87462         1.73976        0.529945 
        2.89033         1.72075        0.522827 
        2.90605         1.71048        0.515834 
        2.92176          1.6947        0.508973 
        2.93747         1.67914         0.50224 
        2.95318         1.66412        0.495627 
        2.96891         1.65982         0.48913 
        2.98456         1.64295        0.482779 
        3.00023         1.62737        0.476531 
        3.01596         1.60875        0.470374 
        3.03164         1.59942        0.464344 
        3.04738         1.59188        0.458402 
         3.0631          1.5768        0.452565 
        3.07883         1.56533         0.44683 
        3.09456          1.5488        0.441196 
        3.11026         1.54358        0.435667 
        3.12596         1.52567        0.430234 
        3.14163         1.52023        0.424905 
        3.15734         1.50444        0.419655 
        3.17308         1.49852         0.41448 
        3.18879         1.48706        0.409408 
        3.20447          1.4694        0.404427 
         3.2202         1.46886        0.399514 
         3.2359         1.45248        0.394691 
        3.25157         1.44036        0.389959 
        3.26729         1.43207         0.38529 
        3.28304         1.42072        0.380689 
        3.29877         1.40817        0.376169 
        3.31446         1.40506        0.371732 
        3.33014         1.38568        0.367371 
        3.34585         1.38206        0.363072 
        3.36158         1.37111        0.358837 
        3.37727         1.36725        0.354682 
        3.39294         1.35255        0.350596 
        3.40867         1.34851        0.346561 
        3.42439         1.33924        0.342591 
        3.44008         1.32899         0.33869 
        3.45578         1.31771        0.334848 
        3.47153         1.30973        0.331057 
        3.48724         1.30091        0.327331 
        3.50292          1.2876        0.323671 
        3.51859         1.28945        0.320069 
        3.53431         1.27447        0.316511 
        3.55007         1.27143        0.312998 
        3.56577           1.261        0.309552 
        3.58146         1.25537        0.306159 
        3.59719         1.24478        0.302809 
        3.61292         1.23821        0.299511 
        3.62859         1.22952        0.296274 
        3.64429         1.22153        0.293079 
        3.66003         1.21361        0.289921 
        3.67578         1.20659        0.286811 
        3.69146         1.19935        0.283758 
        3.70712         1.19074        0.280755 
        3.72284         1.18513        0.277785 
        3.73853         1.17674        0.274862 
        3.75422           1.171        0.271981 
        3.76993         1.16316        0.269138 
        3.78564         1.15409        0.266337 
        3.80137         1.14898        0.263572 
        3.81707          1.1407        0.260851 
        3.83279         1.13763        0.258167 
        3.84853         1.12963        0.255516 
        3.86424         1.11902        0.252907 
        3.87992         1.11708        0.250339 
        3.89561         1.10699        0.247806 
        3.91134         1.10386        0.245303 
        3.92704         1.09493        0.242838 
        3.94273         1.09131        0.240408 
        3.95845          1.0804        0.238008 
        3.97418         1.07775         0.23564 
        3.98988         1.07104        0.233307 
        4.00554         1.06236        0.231012 
        4.02125         1.05624        0.228742 
        4.03698         1.04834        0.226498 
        4.05268         1.04215         0.22429 
        4.06839         1.03273        0.222109 
         4.0841         1.02701        0.219958 
        4.09983         1.02067        0.217833 
        4.11555          1.0144        0.215736 
        4.13124          1.0049        0.213673 
        4.14693         1.00158        0.211635 
        4.16266        0.993705        0.209619 
        4.17839        0.986489        0.207631 
        4.19408        0.982025        0.205672 
        4.20977        0.975256        0.203738 
        4.22551        0.970967        0.201824 
        4.24123        0.962403        0.199937 
        4.25691        0.955422        0.198079 
        4.27259        0.950834        0.196244 
        4.28831        0.948695        0.194429 
        4.30404        0.941953        0.192635 
        4.31974        0.933472        0.190867 
        4.33543        0.929829        0.189123 
        4.35116        0.923513        0.187396 
        4.36688        0.917579        0.185691 
        4.38255        0.913009        0.184014 
        4.39825        0.911127        0.182354 
        4.41398        0.904062        0.180711 
         4.4297        0.901222         0.17909 
        4.44541        0.894042         0.17749 
        4.46111        0.889811         0.17591 
        4.47683        0.886915        0.174348 
        4.49251        0.882269        0.172808 
        4.50819        0.877888        0.171287 
         4.5239        0.873418        0.169783 
        4.53962        0.866368        0.168294 
        4.55535        0.866327        0.166823 
        4.57106        0.859159        0.165371 
        4.58678        0.859244        0.163937 
         4.6025        0.853034        0.162519 
        4.61821        0.851907        0.161118 
        4.63391        0.848778        0.159735 
         4.6496        0.842547        0.158369 
        4.66532        0.839747        0.157017 
        4.68103         0.83673        0.155681 
        4.69673        0.832802        0.154362 
        4.71241         0.83006         0.15306 
        4.72811        0.826929         0.15177 
        4.74384         0.82549        0.150494 
        4.75955        0.821492        0.149235 
        4.77525        0.817275         0.14799 
        4.79096        0.815315        0.146758 
        4.80669         0.81351         0.14554 
         4.8224        0.807909        0.144337 
        4.83809        0.807064        0.143148 
        4.85379        0.803786        0.141972 
         4.8695        0.800649        0.140809 
        4.88521        0.798361        0.139659 
        4.90093        0.795344        0.138522 
        4.91663        0.792395        0.137398 
        4.93234        0.790183        0.136286 
        4.94807        0.789042        0.135185 
        4.96377        0.787919        0.134098 
        4.97943        0.785542        0.133026 
        4.99514        0.782536        0.131963 
        5.01086        0.778954         0.13091 
        5.02654        0.778879        0.129872 
        5.04227        0.774501        0.128841 
          5.058        0.773651        0.127822 
        5.07371        0.771712        0.126815 
        5.08942        0.770018        0.125819 
        5.10513        0.769598        0.124834 
        5.12084         0.76549        0.123859 
        5.13656        0.764151        0.122894 
        5.15225        0.761276        0.121942 
        5.16796        0.760208        0.120998 
        5.18369         0.75809        0.120063 
         5.1994        0.758514        0.119139 
        5.21509        0.755701        0.118226 
        5.23079        0.755194        0.117322 
        5.24649        0.753345        0.116428 
        5.26217         0.75323        0.115543 
        5.27788        0.750456        0.114667 
        5.29359        0.749373          0.1138 
        5.30933        0.749159         0.11294 
        5.32504         0.74558         0.11209 
        5.34073        0.745012        0.111251 
        5.35646        0.744789        0.110418 
        5.37218        0.742881        0.109593 
        5.38789        0.741989        0.108778 
        5.40357        0.741915        0.107973 
        5.41929         0.74014        0.107174 
        5.43502        0.739138        0.106383 
         5.4507        0.735019        0.105601 
        5.46639        0.736911        0.104828 
        5.48212        0.734275         0.10406 
        5.49786        0.735509        0.103299 
        5.51353        0.735399         0.10255 
        5.52921        0.733608        0.101807 
        5.54495        0.731365        0.101069 
        5.56066          0.7323         0.10034 
        5.57637        0.732228       0.0996175 
        5.59207        0.730555        0.098903 
        5.60778        0.729462       0.0981952 
        5.62346        0.728955       0.0974953 
        5.63916        0.728731       0.0968016 
        5.65487        0.724869       0.0961143 
         5.6706        0.725513       0.0954328 
        5.68633        0.724607       0.0947577 
        5.70203        0.724835       0.0940905 
        5.71773        0.724699       0.0934298 
        5.73344         0.72237       0.0927752 
        5.74916        0.722536       0.0921262 
        5.76486        0.722683       0.0914842 
        5.78054        0.720859       0.0908494 
        5.79626        0.721577       0.0902188 
          5.812        0.719344       0.0895936 
         5.8277        0.718816       0.0889761 
        5.84339        0.720251       0.0883645 
        5.85911        0.719639       0.0877574 
        5.87484         0.71884       0.0871561 
        5.89053        0.716804       0.0865616 
        5.90623        0.717148       0.0859724 
        5.92195        0.715318       0.0853877 
        5.93767        0.716638       0.0848087 
        5.95336        0.716845        0.084236 
        5.96905        0.714317       0.0836689 
        5.98476        0.712833       0.0831061 
        6.00048        0.714386       0.0825484 
        6.01617        0.713021       0.0819965 
        6.03185        0.710893       0.0814503 
        6.04756        0.713415       0.0809077 
        6.06331        0.712782        0.080369 
        6.07903         0.71246       0.0798363 
        6.09473        0.711155       0.0793089 
        6.11044        0.709538       0.0787858 
        6.12616        0.711132       0.0782675 
        6.14186        0.709467       0.0777544 
        6.15755        0.710089       0.0772459 
        6.17326        0.707749       0.0767415 
        6.18898        0.707864       0.0762414 
        6.20467        0.708991       0.0757467 
        6.22036        0.708239       0.0752564 
         6.2361        0.706897       0.0747691 
         6.2518        0.706915       0.0742869 
        6.26748        0.705769         0.07381 
        6.28319        0.705438        0.073336 
        6.29893        0.706708       0.0728657 
        6.31463        0.704558       0.0724003 
        6.33033        0.704797       0.0719392 
        6.34604        0.705203       0.0714817 
        6.36177        0.703027       0.0710278 
        6.37747        0.704098       0.0705787 
