# k  (h/Mpc)    Pcb(k)  (Mpc/h)^3    Pcb_linear(k) (Mpc/h)^3   ShotnoiseSubtracted = true
      0.0200456         58.6317         59.4125 
      0.0350414         43.2709         43.1909 
      0.0492313         31.5219         31.3817 
      0.0637834         26.1371         26.0873 
      0.0800726         20.7149         20.7048 
       0.096163         15.0806         15.0232 
       0.111083         12.0132         11.9829 
       0.126058         10.6186         10.6193 
       0.142273         8.99709         8.99685 
       0.158546         7.13921         7.10562 
        0.17375         5.99275         5.98648 
       0.188953         5.41756         5.42062 
       0.204907         4.82105         4.79615 
       0.220756         4.07296         4.05783 
        0.23588         3.54342         3.52996 
         0.2514         3.20658         3.20693 
       0.267535         2.89965         2.90172 
       0.283568         2.56314         2.55893 
       0.299022         2.28734         2.27988 
       0.314451         2.07671         2.08365 
       0.330372         1.90923         1.91152 
       0.346141         1.73416         1.73499 
       0.361624         1.57943         1.57687 
       0.377134         1.45531         1.45097 
       0.392932         1.33248         1.34255 
       0.408854         1.23982         1.23758 
       0.424564         1.13817         1.14069 
       0.440253         1.05674         1.05755 
       0.455999        0.987363        0.985261 
       0.471626        0.921868        0.918825 
        0.48727        0.855722        0.856678 
       0.502856        0.798701        0.800849 
       0.518488        0.754078        0.751034 
       0.534347        0.709832        0.704724 
       0.550082        0.661073        0.662024 
       0.565732        0.618051         0.62296 
       0.581496        0.587431        0.587181 
       0.597222        0.555177        0.554369 
       0.612804        0.523735        0.524196 
       0.628434        0.497871        0.496073 
       0.644267        0.469622        0.469781 
       0.660051        0.444527        0.445548 
       0.675724        0.423423        0.423172 
       0.691403        0.403203        0.402314 
       0.707174        0.382756        0.382744 
       0.722871        0.362897        0.364554 
        0.73838        0.348247         0.34774 
       0.754018        0.333244         0.33186 
       0.769845        0.317859          0.3168 
        0.78569        0.303022        0.302661 
       0.801365        0.289247        0.289526 
       0.817031        0.277256        0.277182 
       0.832809        0.265633        0.265483 
       0.848511        0.254252        0.254515 
       0.864097        0.243189        0.244245 
       0.879701        0.233229        0.234535 
       0.895507        0.225516         0.22524 
       0.911279        0.216367        0.216471 
        0.92691        0.207648        0.208244 
       0.942635        0.200195          0.2004 
       0.958396        0.192293        0.192946 
       0.974128        0.185213        0.185886 
       0.989692        0.178837        0.179251 
        1.00528        0.172956        0.172931 
        1.02113        0.165717        0.166818 
        1.03692        0.160393        0.161024 
        1.05264        0.155013        0.155533 
        1.06832        0.149894        0.150308 
        1.08405        0.144442         0.14531 
        1.09979        0.139606        0.140537 
        1.11537        0.135956        0.136027 
        1.13105        0.131359        0.131689 
        1.14679        0.127524        0.127523 
        1.16256        0.122662        0.123531 
        1.17828        0.118874        0.119723 
        1.19395        0.115119        0.116089 
         1.2097        0.111676        0.112588 
        1.22537          0.1089        0.109249 
          1.241        0.105437        0.106056 
        1.25666         0.10261        0.102983 
        1.27241       0.0994328        0.100017 
        1.28819       0.0965477        0.097164 
        1.30392       0.0936751       0.0944308 
        1.31957       0.0912157       0.0918152 
        1.33529       0.0884175       0.0892894 
        1.35108       0.0861599        0.086849 
        1.36674       0.0833481       0.0845174 
         1.3824       0.0818364       0.0822739 
        1.39811       0.0793663       0.0801046 
        1.41389       0.0772586       0.0780054 
        1.42964       0.0755245       0.0759852 
        1.44531       0.0731814       0.0740467 
        1.46101       0.0714661       0.0721718 
        1.47667        0.069439       0.0703676 
        1.49229        0.067877       0.0686301 
        1.50793       0.0660285       0.0669494 
        1.52367       0.0644896       0.0653143 
        1.53953       0.0631321        0.063723 
        1.55526       0.0615544       0.0621976 
        1.57092       0.0597174       0.0607285 
        1.58662       0.0585391       0.0593035 
        1.60235        0.057364       0.0579216 
        1.61809        0.055613       0.0565831 
        1.63369       0.0545211       0.0552989 
        1.64941        0.053443       0.0540454 
        1.66519       0.0520454       0.0528264 
        1.68085       0.0508004       0.0516537 
        1.69652       0.0496008       0.0505164 
        1.71228       0.0487412       0.0494069 
        1.72806       0.0473714       0.0483299 
        1.74368        0.046499       0.0472959 
        1.75933       0.0455293       0.0462902 
        1.77505       0.0444771        0.045309 
        1.79081       0.0436351       0.0443546 
         1.8065       0.0425037       0.0434318 
        1.82218       0.0417463       0.0425361 
        1.83797       0.0408448       0.0416596 
        1.85367       0.0399837       0.0408127 
        1.86928         0.03928       0.0399945 
        1.88497       0.0385162       0.0391943 
        1.90073       0.0376733        0.038413 
        1.91647       0.0368054       0.0376538 
        1.93218       0.0360777       0.0369167 
        1.94787        0.035326       0.0362005 
        1.96363       0.0347484       0.0355005 
        1.97935       0.0339741       0.0348204 
        1.99499       0.0333555        0.034162 
        2.01064       0.0328081       0.0335198 
         2.0264       0.0321988         0.03289 
        2.04216       0.0314503       0.0322767 
        2.05781       0.0309462        0.031683 
        2.07353        0.030223       0.0311021 
        2.08928       0.0297491       0.0305345 
        2.10499        0.029061       0.0299826 
        2.12065       0.0286864       0.0294461 
        2.13633       0.0280746       0.0289222 
        2.15211       0.0276949       0.0284077 
        2.16785       0.0271704       0.0279072 
        2.18349       0.0265325       0.0274218 
        2.19916       0.0262674       0.0269471 
        2.21489       0.0258257       0.0264819 
        2.23063       0.0252964       0.0260275 
         2.2463       0.0247434       0.0255858 
        2.26194       0.0243487       0.0251554 
        2.27765       0.0239433       0.0247328 
        2.29341       0.0236134       0.0243188 
        2.30914       0.0231534       0.0239151 
        2.32486       0.0227599       0.0235208 
        2.34061       0.0223965       0.0231347 
        2.35635       0.0219907       0.0227577 
        2.37203       0.0216199       0.0223904 
        2.38768       0.0212323       0.0220319 
        2.40339       0.0208881         0.02168 
        2.41914       0.0205944        0.021335 
        2.43483       0.0201715       0.0209987 
         2.4505       0.0198918       0.0206703 
        2.46622        0.019595       0.0203477 
        2.48195       0.0192298        0.020032 
        2.49759       0.0189553       0.0197247 
        2.51328       0.0187165        0.019423 
        2.52906       0.0184103       0.0191258 
        2.54479       0.0181257       0.0188358 
        2.56049       0.0178392       0.0185525 
        2.57618        0.017558       0.0182752 
        2.59189       0.0172814       0.0180032 
        2.60758       0.0170284       0.0177371 
        2.62325       0.0167629       0.0174768 
        2.63898       0.0164893       0.0172208 
        2.65468       0.0162546       0.0169704 
        2.67044       0.0160527        0.016724 
        2.68618       0.0157862        0.016483 
        2.70184       0.0155388       0.0162477 
        2.71755       0.0152675       0.0160164 
        2.73329       0.0150651       0.0157893 
        2.74897       0.0148998       0.0155673 
        2.76462       0.0146384       0.0153501 
        2.78034       0.0144335       0.0151362 
        2.79607       0.0142442       0.0149261 
        2.81179       0.0140346       0.0147202 
        2.82749       0.0138254       0.0145184 
        2.84321       0.0136324       0.0143202 
        2.85893       0.0134135       0.0141258 
        2.87462       0.0132491       0.0139353 
        2.89033        0.013108       0.0137481 
        2.90605       0.0128781       0.0135642 
        2.92176        0.012743       0.0133838 
        2.93747       0.0125378       0.0132067 
        2.95318       0.0123589       0.0130329 
        2.96891       0.0122136        0.012862 
        2.98456        0.012089        0.012695 
        3.00023       0.0118821       0.0125307 
        3.01596       0.0116723       0.0123688 
        3.03164       0.0116075       0.0122102 
        3.04738       0.0114268        0.012054 
         3.0631       0.0112247       0.0119005 
        3.07883        0.011092       0.0117497 
        3.09456       0.0109985       0.0116015 
        3.11026       0.0108164       0.0114562 
        3.12596       0.0107108       0.0113133 
        3.14163       0.0105476       0.0111732 
        3.15734       0.0104223       0.0110351 
        3.17308       0.0102695        0.010899 
        3.18879       0.0101764       0.0107657 
        3.20447       0.0100532       0.0106347 
         3.2202      0.00991579       0.0105055 
         3.2359      0.00979699       0.0103787 
        3.25157      0.00965842       0.0102542 
        3.26729      0.00957693       0.0101315 
        3.28304      0.00943508       0.0100105 
        3.29877      0.00933399      0.00989162 
        3.31446      0.00921828      0.00977495 
        3.33014      0.00907609      0.00966026 
        3.34585       0.0089628      0.00954724 
        3.36158      0.00886971      0.00943585 
        3.37727      0.00878931      0.00932659 
        3.39294      0.00868705      0.00921917 
        3.40867       0.0086013      0.00911305 
        3.42439      0.00848786      0.00900865 
        3.44008      0.00838933      0.00890609 
        3.45578      0.00828893      0.00880506 
        3.47153      0.00819752      0.00870537 
        3.48724      0.00813072      0.00860739 
        3.50292      0.00798093      0.00851116 
        3.51859      0.00791231      0.00841644 
        3.53431      0.00784607      0.00832286 
        3.55007      0.00778441      0.00823048 
        3.56577      0.00770505      0.00813987 
        3.58146      0.00756296      0.00805066 
        3.59719      0.00749971      0.00796258 
        3.61292      0.00740371      0.00787585 
        3.62859      0.00734902      0.00779073 
        3.64429      0.00726937      0.00770671 
        3.66003      0.00720158      0.00762367 
        3.67578      0.00712541      0.00754189 
        3.69146      0.00704544      0.00746161 
        3.70712      0.00698066      0.00738265 
        3.72284      0.00689594      0.00730454 
        3.73853      0.00682458      0.00722769 
        3.75422      0.00677622      0.00715192 
        3.76993      0.00668918      0.00707717 
        3.78564      0.00666352      0.00700352 
        3.80137      0.00658343      0.00693079 
        3.81707      0.00649672      0.00685925 
        3.83279      0.00644258      0.00678867 
        3.84853      0.00638405      0.00671896 
        3.86424      0.00630767      0.00665036 
        3.87992      0.00625626      0.00658283 
        3.89561       0.0062022      0.00651623 
        3.91134      0.00615291      0.00645041 
        3.92704      0.00606656      0.00638558 
        3.94273      0.00604388       0.0063217 
        3.95845      0.00596203      0.00625858 
        3.97418      0.00590504      0.00619631 
        3.98988      0.00587516      0.00613497 
        4.00554      0.00578799      0.00607463 
        4.02125      0.00571715      0.00601492 
        4.03698      0.00566902      0.00595593 
        4.05268      0.00559611      0.00589786 
        4.06839      0.00552959      0.00584052 
         4.0841      0.00546633      0.00578396 
        4.09983      0.00540692      0.00572807 
        4.11555      0.00534731      0.00567294 
        4.13124      0.00528479      0.00561868 
        4.14693      0.00524045      0.00556509 
        4.16266      0.00516409      0.00551208 
        4.17839      0.00512002      0.00545979 
        4.19408      0.00506587      0.00540829 
        4.20977      0.00503137      0.00535744 
        4.22551      0.00498145      0.00530711 
        4.24123      0.00493386      0.00525749 
        4.25691      0.00488457      0.00520863 
        4.27259      0.00484557      0.00516038 
        4.28831      0.00481696      0.00511264 
        4.30404      0.00476766      0.00506547 
        4.31974      0.00472402      0.00501898 
        4.33543      0.00468745      0.00497311 
        4.35116      0.00465225       0.0049277 
        4.36688       0.0046227      0.00488288 
        4.38255      0.00459829      0.00483878 
        4.39825      0.00458053      0.00479513 
        4.41398      0.00455342      0.00475193 
         4.4297       0.0045324       0.0047093 
        4.44541      0.00451145      0.00466721 
        4.46111      0.00448237      0.00462567 
        4.47683      0.00448002       0.0045846 
        4.49251      0.00444095      0.00454411 
        4.50819      0.00444288      0.00450412 
         4.5239       0.0044363      0.00446455 
        4.53962       0.0044208      0.00442541 
        4.55535      0.00441033      0.00438672 
        4.57106      0.00441836      0.00434855 
        4.58678       0.0044028      0.00431082 
         4.6025      0.00441106      0.00427354 
        4.61821       0.0044097       0.0042367 
        4.63391      0.00440311      0.00420034 
         4.6496      0.00441088      0.00416442 
        4.66532      0.00440068      0.00412887 
        4.68103      0.00441932      0.00409374 
        4.69673      0.00441356      0.00405906 
        4.71241      0.00444109      0.00402482 
        4.72811      0.00445005      0.00399091 
        4.74384      0.00446001      0.00395735 
        4.75955      0.00448291      0.00392423 
        4.77525      0.00450189       0.0038915 
        4.79096      0.00452275      0.00385911 
        4.80669      0.00453519      0.00382707 
         4.8224      0.00455938      0.00379543 
        4.83809       0.0045671      0.00376418 
        4.85379      0.00462966      0.00373326 
         4.8695      0.00464617      0.00370267 
        4.88521      0.00466048      0.00367243 
        4.90093      0.00471039      0.00364252 
        4.91663      0.00475539      0.00361298 
        4.93234      0.00477447      0.00358373 
        4.94807      0.00483966      0.00355478 
        4.96377      0.00489285      0.00352621 
        4.97943       0.0049219      0.00349801 
        4.99514      0.00496708      0.00347005 
        5.01086      0.00499639      0.00344237 
        5.02654        0.005068      0.00341506 
        5.04227      0.00511161      0.00338797 
          5.058      0.00518667      0.00336116 
        5.07371       0.0052537       0.0033347 
        5.08942      0.00531407      0.00330851 
        5.10513      0.00535057       0.0032826 
        5.12084      0.00543962      0.00325696 
        5.13656      0.00547654      0.00323159 
        5.15225       0.0055675      0.00320654 
        5.16796      0.00564332      0.00318171 
        5.18369      0.00573422      0.00315713 
         5.1994      0.00583635      0.00313285 
        5.21509      0.00590146      0.00310884 
        5.23079      0.00595332      0.00308506 
        5.24649      0.00609712      0.00306154 
        5.26217      0.00616054      0.00303829 
        5.27788        0.006262      0.00301525 
        5.29359      0.00638051      0.00299244 
        5.30933      0.00647289      0.00296983 
        5.32504      0.00657739      0.00294749 
        5.34073      0.00671414      0.00292541 
        5.35646      0.00680937      0.00290351 
        5.37218      0.00689257      0.00288183 
        5.38789      0.00701781       0.0028604 
        5.40357      0.00715219      0.00283922 
        5.41929      0.00726025      0.00281821 
        5.43502      0.00742158       0.0027974 
         5.4507      0.00757978      0.00277686 
        5.46639      0.00773521      0.00275652 
        5.48212      0.00778924      0.00273633 
        5.49786      0.00801276      0.00271632 
        5.51353       0.0081351      0.00269662 
        5.52921      0.00827857      0.00267708 
        5.54495      0.00846004      0.00265768 
        5.56066      0.00862681       0.0026385 
        5.57637      0.00880116      0.00261951 
        5.59207      0.00897826      0.00260072 
        5.60778      0.00915262      0.00258211 
        5.62346      0.00937999      0.00256371 
        5.63916      0.00954674      0.00254546 
        5.65487      0.00971462      0.00252739 
         5.6706      0.00994441      0.00250947 
        5.68633       0.0101898      0.00249172 
        5.70203       0.0103855      0.00247417 
        5.71773       0.0106732       0.0024568 
        5.73344       0.0108128      0.00243959 
        5.74916       0.0110878      0.00242252 
        5.76486       0.0113803      0.00240564 
        5.78054        0.011583      0.00238895 
        5.79626       0.0117924      0.00237237 
          5.812       0.0121218      0.00235593 
         5.8277       0.0123741      0.00233969 
        5.84339       0.0127233       0.0023236 
        5.85911       0.0129869      0.00230764 
        5.87484       0.0133087      0.00229183 
        5.89053       0.0136573       0.0022762 
        5.90623       0.0140475       0.0022607 
        5.92195        0.014342      0.00224533 
        5.93767       0.0146492       0.0022301 
        5.95336       0.0149298      0.00221504 
        5.96905       0.0154565      0.00220013 
        5.98476       0.0156861      0.00218533 
        6.00048       0.0160802      0.00217067 
        6.01617       0.0164976      0.00215615 
        6.03185       0.0168137      0.00214179 
        6.04756       0.0173463      0.00212752 
        6.06331       0.0177371      0.00211336 
        6.07903       0.0182141      0.00209935 
        6.09473       0.0185353      0.00208548 
        6.11044       0.0191585      0.00207173 
        6.12616       0.0196206       0.0020581 
        6.14186       0.0200664       0.0020446 
        6.15755        0.020592      0.00203123 
        6.17326       0.0211591      0.00201797 
        6.18898       0.0217989      0.00200482 
        6.20467       0.0223634      0.00199181 
        6.22036       0.0229428      0.00197892 
         6.2361       0.0235658       0.0019661 
         6.2518       0.0242426      0.00195342 
        6.26748       0.0247597      0.00194088 
        6.28319       0.0254619      0.00192842 
        6.29893       0.0261185      0.00191605 
        6.31463       0.0270079      0.00190382 
        6.33033       0.0276073      0.00189169 
        6.34604       0.0283842      0.00187966 
        6.36177       0.0292398      0.00186772 
        6.37747       0.0300671      0.00185591 
