# k  (h/Mpc)    Pcb(k)  (Mpc/h)^3    Pcb_linear(k) (Mpc/h)^3   ShotnoiseSubtracted = true
      0.0200456         20511.7         20989.1 
      0.0350414         14580.4         15258.3 
      0.0492313         10864.7         11086.4 
      0.0637834         9395.99         9216.04 
      0.0800726         7415.29         7314.54 
       0.096163         5142.53         5307.34 
       0.111083         4128.96         4233.27 
       0.126058         3803.37         3751.54 
       0.142273         3292.95         3178.38 
       0.158546         2870.64         2510.25 
        0.17375         2295.35         2114.89 
       0.188953         2242.83         1914.98 
       0.204907         2107.44         1694.37 
       0.220756          1823.9         1433.54 
        0.23588         1627.38         1247.05 
         0.2514         1415.84         1132.94 
       0.267535         1413.69         1025.11 
       0.283568         1281.36         904.011 
       0.299022         1210.72         805.427 
       0.314451         1153.51         736.106 
       0.330372         1058.99         675.294 
       0.346141         1007.17         612.932 
       0.361624         967.633         557.072 
       0.377134         899.973         512.594 
       0.392932         864.488         474.293 
       0.408854         845.716         437.207 
       0.424564         783.511          402.98 
       0.440253         769.999         373.609 
       0.455999         738.711          348.07 
       0.471626         710.245         324.599 
        0.48727         680.922         302.645 
       0.502856         662.199         282.921 
       0.518488           654.7         265.323 
       0.534347         612.902         248.963 
       0.550082         595.478         233.878 
       0.565732         593.518         220.077 
       0.581496         559.363         207.437 
       0.597222         549.203         195.846 
       0.612804         537.588         185.186 
       0.628434         521.462         175.251 
       0.644267          507.63         165.963 
       0.660051         491.671         157.402 
       0.675724         487.064         149.497 
       0.691403         470.589         142.128 
       0.707174         454.899         135.215 
       0.722871         449.674         128.788 
        0.73838         441.757         122.849 
       0.754018         430.657         117.239 
       0.769845         421.863         111.918 
        0.78569         415.382         106.923 
       0.801365         404.289         102.283 
       0.817031         392.076         97.9219 
       0.832809         389.315          93.789 
       0.848511         380.097         89.9143 
       0.864097         369.696         86.2861 
       0.879701         364.733         82.8557 
       0.895507         361.149         79.5722 
       0.911279         349.799         76.4742 
        0.92691          345.43         73.5676 
       0.942635         337.221         70.7967 
       0.958396          329.22         68.1633 
       0.974128         323.892         65.6693 
       0.989692         320.916         63.3251 
        1.00528         313.138         61.0925 
        1.02113         311.171         58.9329 
        1.03692         302.202         56.8861 
        1.05264         300.154         54.9463 
        1.06832         292.143         53.1004 
        1.08405         287.771         51.3347 
        1.09979         282.294         49.6486 
        1.11537         277.719         48.0552 
        1.13105         272.157         46.5225 
        1.14679         267.149         45.0511 
        1.16256         262.254         43.6406 
        1.17828         260.338         42.2954 
        1.19395         253.859         41.0116 
         1.2097         251.908         39.7747 
        1.22537         246.071         38.5951 
          1.241         244.682          37.467 
        1.25666         239.366         36.3813 
        1.27241         236.148         35.3337 
        1.28819          232.72         34.3258 
        1.30392         226.987         33.3602 
        1.31957          227.28         32.4362 
        1.33529          222.22         31.5439 
        1.35108         217.034         30.6817 
        1.36674         215.233          29.858 
         1.3824         213.633         29.0655 
        1.39811         210.257         28.2991 
        1.41389         206.829         27.5575 
        1.42964         204.556         26.8438 
        1.44531         201.378          26.159 
        1.46101         198.367         25.4966 
        1.47667         195.104         24.8592 
        1.49229         193.399         24.2454 
        1.50793         188.915         23.6517 
        1.52367         187.521          23.074 
        1.53953         184.723         22.5119 
        1.55526         180.327          21.973 
        1.57092         179.404          21.454 
        1.58662         177.174         20.9506 
        1.60235         173.854         20.4624 
        1.61809         172.744         19.9895 
        1.63369         169.259         19.5358 
        1.64941         165.749          19.093 
        1.66519         165.117         18.6623 
        1.68085         162.831         18.2481 
        1.69652         160.297         17.8463 
        1.71228         157.167         17.4543 
        1.72806         155.551         17.0738 
        1.74368         153.742         16.7085 
        1.75933         150.858         16.3532 
        1.77505         149.703         16.0066 
        1.79081         148.284         15.6694 
         1.8065         146.101         15.3434 
        1.82218         143.802          15.027 
        1.83797         142.709         14.7174 
        1.85367         140.504         14.4182 
        1.86928         138.028         14.1291 
        1.88497         136.303         13.8464 
        1.90073         135.071         13.5704 
        1.91647         133.275         13.3022 
        1.93218         131.672         13.0418 
        1.94787         129.574         12.7888 
        1.96363         127.637         12.5415 
        1.97935         126.392         12.3012 
        1.99499         124.217         12.0687 
        2.01064         123.061         11.8418 
         2.0264         121.314         11.6193 
        2.04216         119.798         11.4026 
        2.05781         118.734         11.1929 
        2.07353         117.492         10.9876 
        2.08928          115.02         10.7871 
        2.10499         113.909         10.5922 
        2.12065         112.094         10.4026 
        2.13633          111.48         10.2175 
        2.15211         109.091         10.0358 
        2.16785         107.588         9.85895 
        2.18349          106.81          9.6875 
        2.19916         105.583         9.51977 
        2.21489         104.176         9.35546 
        2.23063          102.42         9.19492 
         2.2463         101.368         9.03887 
        2.26194          99.957         8.88683 
        2.27765         99.0168         8.73752 
        2.29341         97.9697         8.59125 
        2.30914         96.7616         8.44864 
        2.32486         95.6577         8.30934 
        2.34061         94.4079         8.17296 
        2.35635         93.1086         8.03976 
        2.37203         91.8604            7.91 
        2.38768         90.9133         7.78337 
        2.40339         89.9604         7.65905 
        2.41914         88.7522         7.53716 
        2.43483         87.8518         7.41836 
         2.4505         86.6712         7.30232 
        2.46622         85.5321         7.18837 
        2.48195         84.4435         7.07684 
        2.49759         83.2776         6.96827 
        2.51328         82.9779          6.8617 
        2.52906         81.3688         6.75669 
        2.54479         80.5407         6.65426 
        2.56049         79.6735         6.55416 
        2.57618         78.7779         6.45621 
        2.59189         77.8319         6.36011 
        2.60758         77.1619         6.26612 
        2.62325         76.0393         6.17415 
        2.63898         74.9079          6.0837 
        2.65468         74.2358         5.99525 
        2.67044         73.3941         5.90819 
        2.68618         72.5922         5.82305 
        2.70184         72.1411         5.73993 
        2.71755         71.0694         5.65823 
        2.73329         70.3311           5.578 
        2.74897         69.4295         5.49958 
        2.76462         68.5712         5.42284 
        2.78034         68.0148         5.34726 
        2.79607         66.8137         5.27303 
        2.81179         66.2449          5.2003 
        2.82749         65.4335         5.12902 
        2.84321         64.9779           5.059 
        2.85893         64.2152         4.99031 
        2.87462          63.275         4.92301 
        2.89033         62.6072         4.85689 
        2.90605          61.952         4.79192 
        2.92176         61.3077         4.72818 
        2.93747         60.9171         4.66563 
        2.95318         60.0425          4.6042 
        2.96891         59.6193         4.54385 
        2.98456         58.9438         4.48485 
        3.00023          58.053         4.42681 
        3.01596         57.6107         4.36961 
        3.03164         56.7986         4.31359 
        3.04738         56.3931         4.25839 
         3.0631         55.7184         4.20417 
        3.07883         55.1416          4.1509 
        3.09456         54.5307         4.09856 
        3.11026         53.8395          4.0472 
        3.12596         53.3076         3.99672 
        3.14163         52.7922         3.94722 
        3.15734         52.3741         3.89845 
        3.17308         51.5765         3.85038 
        3.18879         51.3318         3.80325 
        3.20447          50.451         3.75698 
         3.2202         50.1825         3.71134 
         3.2359         49.5586         3.66654 
        3.25157         49.0117         3.62258 
        3.26729         48.6105         3.57921 
        3.28304         48.1168         3.53647 
        3.29877         47.6424         3.49448 
        3.31446         46.9347         3.45326 
        3.33014         46.6431         3.41275 
        3.34585         46.3469         3.37282 
        3.36158         45.7973         3.33347 
        3.37727         45.4005         3.29487 
        3.39294         44.9147         3.25692 
        3.40867         44.4164         3.21943 
        3.42439         43.8358         3.18255 
        3.44008         43.5475         3.14632 
        3.45578         43.0357         3.11062 
        3.47153         42.6281          3.0754 
        3.48724         42.2215         3.04079 
        3.50292         41.8995         3.00679 
        3.51859         41.4123         2.97333 
        3.53431         41.0436         2.94027 
        3.55007         40.4887         2.90764 
        3.56577         40.2409         2.87563 
        3.58146         39.7681         2.84411 
        3.59719         39.4623         2.81299 
        3.61292         38.9364         2.78235 
        3.62859         38.6922         2.75228 
        3.64429         38.3867          2.7226 
        3.66003         37.9765         2.69327 
        3.67578         37.4759         2.66437 
        3.69146         37.2002         2.63601 
        3.70712         36.8769         2.60812 
        3.72284         36.4116         2.58052 
        3.73853         36.1345         2.55337 
        3.75422          35.694         2.52661 
        3.76993         35.5492          2.5002 
        3.78564         35.2073         2.47418 
        3.80137         34.8331         2.44849 
        3.81707         34.4938         2.42321 
        3.83279         34.3409         2.39828 
        3.84853          33.894         2.37365 
        3.86424         33.5043         2.34942 
        3.87992         33.3528         2.32556 
        3.89561         32.9806         2.30203 
        3.91134         32.5407         2.27878 
        3.92704         32.4244         2.25588 
        3.94273         31.9975         2.23331 
        3.95845         31.8465         2.21101 
        3.97418         31.5004         2.18901 
        3.98988          31.236         2.16734 
        4.00554         30.9059         2.14602 
        4.02125          30.584         2.12493 
        4.03698          30.368         2.10409 
        4.05268         30.1107         2.08358 
        4.06839         29.7959         2.06332 
         4.0841         29.5993         2.04334 
        4.09983         29.2985         2.02359 
        4.11555          29.029         2.00412 
        4.13124           28.83         1.98495 
        4.14693         28.4882         1.96602 
        4.16266         28.2587         1.94729 
        4.17839         27.9803         1.92882 
        4.19408          27.752         1.91062 
        4.20977          27.517         1.89266 
        4.22551          27.252         1.87488 
        4.24123         27.1268         1.85735 
        4.25691         26.8175         1.84009 
        4.27259         26.6173         1.82304 
        4.28831         26.3426         1.80618 
        4.30404         26.1687         1.78951 
        4.31974         25.8569         1.77309 
        4.33543         25.6498         1.75689 
        4.35116         25.5528         1.74084 
        4.36688         25.2486         1.72501 
        4.38255         24.9915         1.70943 
        4.39825         24.7881         1.69401 
        4.41398         24.5797         1.67875 
         4.4297         24.4009         1.66369 
        4.44541         24.1415         1.64882 
        4.46111         23.9881         1.63414 
        4.47683         23.8043         1.61963 
        4.49251         23.5527         1.60533 
        4.50819         23.3681          1.5912 
         4.5239         23.1808         1.57722 
        4.53962         23.0015          1.5634 
        4.55535          22.799         1.54973 
        4.57106         22.6157         1.53624 
        4.58678         22.4342         1.52291 
         4.6025         22.2624         1.50974 
        4.61821         22.1052         1.49673 
        4.63391          21.884         1.48388 
         4.6496         21.6908         1.47119 
        4.66532         21.5465         1.45863 
        4.68103         21.3384         1.44622 
        4.69673         21.1778         1.43397 
        4.71241         21.0399         1.42187 
        4.72811         20.8315          1.4099 
        4.74384         20.6888         1.39804 
        4.75955         20.5349         1.38634 
        4.77525         20.3259         1.37478 
        4.79096         20.2046         1.36333 
        4.80669         20.0214         1.35201 
         4.8224         19.8656         1.34084 
        4.83809         19.7105          1.3298 
        4.85379         19.4638         1.31887 
         4.8695         19.4079         1.30807 
        4.88521         19.2432         1.29738 
        4.90093         19.0407         1.28682 
        4.91663          18.881         1.27638 
        4.93234         18.7984         1.26605 
        4.94807         18.5986         1.25582 
        4.96377         18.5097         1.24573 
        4.97943         18.3781         1.23577 
        4.99514         18.1979         1.22589 
        5.01086         18.0706         1.21611 
        5.02654         17.8946         1.20646 
        5.04227         17.7954         1.19689 
          5.058         17.6145         1.18742 
        5.07371          17.504         1.17807 
        5.08942         17.3744         1.16882 
        5.10513          17.241         1.15967 
        5.12084         17.0999         1.15061 
        5.13656         16.9174         1.14165 
        5.15225         16.8623          1.1328 
        5.16796         16.7494         1.12403 
        5.18369         16.5661         1.11534 
         5.1994         16.5038         1.10676 
        5.21509         16.3118         1.09828 
        5.23079          16.214         1.08988 
        5.24649         16.1032         1.08157 
        5.26217         15.9554         1.07336 
        5.27788         15.8327         1.06522 
        5.29359          15.749         1.05716 
        5.30933         15.5887         1.04917 
        5.32504         15.4843         1.04128 
        5.34073         15.3786         1.03348 
        5.35646         15.2792         1.02574 
        5.37218         15.1385         1.01808 
        5.38789         15.0332         1.01051 
        5.40357         14.9244         1.00303 
        5.41929         14.8494        0.995607 
        5.43502         14.7114        0.988258 
         5.4507         14.6178           0.981 
        5.46639          14.497        0.973813 
        5.48212         14.3746        0.966682 
        5.49786         14.2575        0.959614 
        5.51353         14.1734        0.952651 
        5.52921         14.0956        0.945751 
        5.54495          14.005        0.938898 
        5.56066         13.8972        0.932121 
        5.57637         13.7733        0.925412 
        5.59207         13.6554        0.918774 
        5.60778         13.6032        0.912199 
        5.62346         13.4961        0.905698 
        5.63916         13.3722        0.899253 
        5.65487         13.2892        0.892868 
         5.6706         13.1786        0.886538 
        5.68633         13.1022        0.880266 
        5.70203         13.0131        0.874068 
        5.71773         12.9286        0.867931 
        5.73344         12.8337        0.861849 
        5.74916         12.7407         0.85582 
        5.76486          12.636        0.849857 
        5.78054         12.5605         0.84396 
        5.79626         12.4718        0.838102 
          5.812         12.3681        0.832294 
         5.8277         12.2824        0.826557 
        5.84339         12.2119        0.820875 
        5.85911         12.1164        0.815236 
        5.87484         12.0309         0.80965 
        5.89053         11.9392        0.804127 
        5.90623         11.8636        0.798654 
        5.92195         11.7762        0.793222 
        5.93767         11.6942        0.787843 
        5.95336         11.6135        0.782523 
        5.96905         11.5423        0.777255 
        5.98476         11.4617        0.772027 
        6.00048         11.3615        0.766846 
        6.01617         11.3043        0.761719 
        6.03185         11.2279        0.756645 
        6.04756         11.1663        0.751605 
        6.06331         11.0684          0.7466 
        6.07903         10.9915        0.741652 
        6.09473         10.9175        0.736752 
        6.11044         10.8475        0.731893 
        6.12616         10.7818        0.727078 
        6.14186         10.7122        0.722311 
        6.15755         10.6323        0.717587 
        6.17326         10.5312        0.712902 
        6.18898         10.5004        0.708256 
        6.20467         10.4154         0.70366 
        6.22036         10.3339        0.699106 
         6.2361         10.2803        0.694579 
         6.2518         10.2236        0.690099 
        6.26748         10.1473        0.685669 
        6.28319         10.0735        0.681266 
        6.29893         10.0001        0.676897 
        6.31463         9.93855        0.672574 
        6.33033         9.85981         0.66829 
        6.34604         9.82311         0.66404 
        6.36177         9.73936        0.659824 
        6.37747         9.69094        0.655651 
