# k  (h/Mpc)    Pcb(k)  (Mpc/h)^3    Pcb_linear(k) (Mpc/h)^3   ShotnoiseSubtracted = true
      0.0200456         231.134         234.119 
      0.0350414         171.528         170.196 
      0.0492313         124.182         123.661 
      0.0637834         102.319         102.799 
      0.0800726         81.0479         81.5888 
       0.096163         59.8037         59.1997 
       0.111083          47.816         47.2192 
       0.126058          41.695         41.8459 
       0.142273          35.238         35.4526 
       0.158546         28.0927         28.0002 
        0.17375         23.8035         23.5901 
       0.188953         21.3829         21.3603 
       0.204907         18.6609         18.8995 
       0.220756         16.0127         15.9901 
        0.23588          13.937           13.91 
         0.2514         12.6506         12.6371 
       0.267535          11.459         11.4344 
       0.283568         10.1087         10.0836 
       0.299022         9.02157         8.98399 
       0.314451         8.32204         8.21076 
       0.330372         7.57558         7.53245 
       0.346141         6.87989         6.83685 
       0.361624         6.24269         6.21376 
       0.377134         5.72779         5.71764 
       0.392932         5.39435         5.29042 
       0.408854         4.89683         4.87674 
       0.424564         4.57588         4.49496 
       0.440253          4.2094         4.16735 
       0.455999         3.88859         3.88248 
       0.471626         3.62741         3.62069 
        0.48727         3.42816         3.37579 
       0.502856         3.20936         3.15579 
       0.518488         2.96809          2.9595 
       0.534347          2.7729         2.77701 
       0.550082         2.63884         2.60875 
       0.565732         2.50661         2.45481 
       0.581496         2.34413         2.31382 
       0.597222         2.21018         2.18452 
       0.612804         2.08591         2.06563 
       0.628434         1.97679         1.95481 
       0.644267         1.88078          1.8512 
       0.660051         1.78404         1.75571 
       0.675724         1.68269         1.66754 
       0.691403         1.60255         1.58534 
       0.707174         1.52422         1.50823 
       0.722871          1.4758         1.43655 
        0.73838         1.38247         1.37029 
       0.754018          1.3191         1.30772 
       0.769845         1.24986         1.24837 
        0.78569         1.20731         1.19265 
       0.801365          1.1571         1.14089 
       0.817031         1.10993         1.09225 
       0.832809          1.0551         1.04615 
       0.848511         1.01514         1.00293 
       0.864097        0.978472        0.962464 
       0.879701         0.94442        0.924199 
       0.895507        0.895352        0.887574 
       0.911279        0.867329        0.853018 
        0.92691        0.840163        0.820597 
       0.942635        0.797834         0.78969 
       0.958396        0.771223        0.760316 
       0.974128        0.743815        0.732496 
       0.989692        0.716855        0.706349 
        1.00528        0.687732        0.681445 
        1.02113        0.670367        0.657356 
        1.03692        0.648779        0.634526 
        1.05264        0.620761        0.612889 
        1.06832        0.601909        0.592299 
        1.08405        0.578718        0.572604 
        1.09979         0.56259        0.553797 
        1.11537        0.541019        0.536024 
        1.13105        0.521195        0.518927 
        1.14679        0.508553        0.502514 
        1.16256        0.493657        0.486781 
        1.17828        0.479239        0.471776 
        1.19395        0.464293        0.457456 
         1.2097        0.448605         0.44366 
        1.22537        0.433596        0.430502 
          1.241        0.421782        0.417919 
        1.25666        0.411951        0.405809 
        1.27241        0.398058        0.394124 
        1.28819        0.385575        0.382881 
        1.30392        0.376384         0.37211 
        1.31957        0.364798        0.361804 
        1.33529        0.355441        0.351851 
        1.35108        0.344327        0.342234 
        1.36674        0.335348        0.333046 
         1.3824        0.327421        0.324205 
        1.39811        0.316668        0.315657 
        1.41389        0.310215        0.307385 
        1.42964        0.301569        0.299425 
        1.44531        0.292862        0.291786 
        1.46101        0.284447        0.284397 
        1.47667        0.278168        0.277288 
        1.49229        0.270611        0.270441 
        1.50793        0.264702        0.263818 
        1.52367        0.256972        0.257375 
        1.53953        0.250254        0.251105 
        1.55526        0.244589        0.245094 
        1.57092        0.240591        0.239305 
        1.58662        0.234173        0.233689 
        1.60235        0.228369        0.228244 
        1.61809          0.2221        0.222969 
        1.63369        0.216593        0.217909 
        1.64941        0.212262        0.212969 
        1.66519        0.207777        0.208166 
        1.68085        0.201986        0.203545 
        1.69652        0.197958        0.199063 
        1.71228        0.192831        0.194691 
        1.72806        0.189375        0.190447 
        1.74368        0.184687        0.186373 
        1.75933        0.181147        0.182409 
        1.77505        0.177498        0.178543 
        1.79081         0.17254        0.174782 
         1.8065        0.169713        0.171146 
        1.82218        0.165043        0.167616 
        1.83797        0.161337        0.164162 
        1.85367        0.158369        0.160825 
        1.86928        0.154449        0.157601 
        1.88497        0.151386        0.154447 
        1.90073        0.148114        0.151369 
        1.91647         0.14593        0.148377 
        1.93218        0.143599        0.145473 
        1.94787        0.139256         0.14265 
        1.96363        0.136812        0.139892 
        1.97935        0.133938        0.137212 
        1.99499          0.1312        0.134618 
        2.01064        0.128775        0.132087 
         2.0264        0.126604        0.129605 
        2.04216        0.123499        0.127188 
        2.05781        0.121063        0.124849 
        2.07353        0.119112         0.12256 
        2.08928        0.117069        0.120323 
        2.10499        0.114295        0.118149 
        2.12065         0.11239        0.116034 
        2.13633        0.110302         0.11397 
        2.15211        0.108493        0.111942 
        2.16785        0.105838         0.10997 
        2.18349        0.104174        0.108057 
        2.19916        0.101886        0.106187 
        2.21489       0.0999877        0.104354 
        2.23063       0.0984666        0.102563 
         2.2463       0.0967791        0.100822 
        2.26194       0.0950816       0.0991266 
        2.27765       0.0933498       0.0974611 
        2.29341       0.0913559       0.0958296 
        2.30914       0.0898043       0.0942388 
        2.32486       0.0881605       0.0926851 
        2.34061       0.0866236       0.0911638 
        2.35635       0.0852124       0.0896781 
        2.37203       0.0844314       0.0882307 
        2.38768       0.0825911       0.0868182 
        2.40339       0.0811294       0.0854315 
        2.41914        0.079531        0.084072 
        2.43483       0.0785215       0.0827468 
         2.4505       0.0769498       0.0814524 
        2.46622       0.0756882       0.0801814 
        2.48195       0.0744603       0.0789373 
        2.49759       0.0732689       0.0777263 
        2.51328       0.0714842       0.0765376 
        2.52906       0.0708013       0.0753663 
        2.54479       0.0695945       0.0742238 
        2.56049       0.0683083       0.0731072 
        2.57618       0.0675406       0.0720146 
        2.59189       0.0660359       0.0709427 
        2.60758       0.0653672       0.0698943 
        2.62325       0.0640283       0.0688684 
        2.63898       0.0632862       0.0678595 
        2.65468       0.0620323        0.066873 
        2.67044       0.0611257       0.0659018 
        2.68618       0.0601401       0.0649522 
        2.70184       0.0594338       0.0640251 
        2.71755          0.0584       0.0631137 
        2.73329       0.0574939       0.0622188 
        2.74897       0.0566989       0.0613441 
        2.76462       0.0556239       0.0604881 
        2.78034       0.0549575        0.059645 
        2.79607       0.0542149       0.0588171 
        2.81179       0.0531842       0.0580058 
        2.82749       0.0526082       0.0572107 
        2.84321       0.0516826       0.0564297 
        2.85893       0.0508475       0.0556635 
        2.87462        0.050319       0.0549128 
        2.89033       0.0494204       0.0541753 
        2.90605       0.0487764       0.0534507 
        2.92176       0.0482342       0.0527397 
        2.93747       0.0473177        0.052042 
        2.95318       0.0468654       0.0513568 
        2.96891       0.0461087       0.0506836 
        2.98456       0.0454032       0.0500255 
        3.00023       0.0449937        0.049378 
        3.01596       0.0440334       0.0487401 
        3.03164       0.0435383       0.0481152 
        3.04738       0.0429515       0.0474995 
         3.0631       0.0421263       0.0468947 
        3.07883       0.0417864       0.0463005 
        3.09456       0.0412582       0.0457166 
        3.11026       0.0405806       0.0451437 
        3.12596       0.0402964       0.0445807 
        3.14163       0.0395716       0.0440286 
        3.15734       0.0392134       0.0434845 
        3.17308        0.038614       0.0429484 
        3.18879       0.0380666       0.0424227 
        3.20447       0.0374714       0.0419066 
         3.2202       0.0371189       0.0413975 
         3.2359       0.0366903       0.0408978 
        3.25157       0.0362017       0.0404075 
        3.26729       0.0357054       0.0399237 
        3.28304       0.0353751       0.0394469 
        3.29877       0.0348645       0.0389785 
        3.31446       0.0343578       0.0385188 
        3.33014        0.034087       0.0380669 
        3.34585       0.0335805       0.0376215 
        3.36158       0.0331687       0.0371826 
        3.37727       0.0327098        0.036752 
        3.39294       0.0323592       0.0363287 
        3.40867       0.0320961       0.0359105 
        3.42439       0.0316951       0.0354992 
        3.44008       0.0313638        0.035095 
        3.45578       0.0310091       0.0346969 
        3.47153       0.0306855        0.034304 
        3.48724       0.0302729        0.033918 
        3.50292       0.0300906       0.0335387 
        3.51859       0.0296667       0.0331655 
        3.53431       0.0292333       0.0327968 
        3.55007       0.0290269       0.0324327 
        3.56577       0.0287076       0.0320757 
        3.58146       0.0283936       0.0317241 
        3.59719       0.0281031        0.031377 
        3.61292        0.027745       0.0310353 
        3.62859       0.0274266       0.0306999 
        3.64429       0.0272484       0.0303688 
        3.66003        0.026977       0.0300416 
        3.67578        0.026733       0.0297193 
        3.69146       0.0264939        0.029403 
        3.70712       0.0262173       0.0290918 
        3.72284       0.0258906        0.028784 
        3.73853       0.0257462       0.0284812 
        3.75422       0.0253692       0.0281826 
        3.76993       0.0252159        0.027888 
        3.78564       0.0249474       0.0275978 
        3.80137       0.0247598       0.0273112 
        3.81707       0.0244737       0.0270293 
        3.83279       0.0242321       0.0267512 
        3.84853       0.0240091       0.0264765 
        3.86424       0.0238935       0.0262062 
        3.87992       0.0236856         0.02594 
        3.89561       0.0233497       0.0256776 
        3.91134        0.023231       0.0254182 
        3.92704       0.0229342       0.0251628 
        3.94273       0.0227466       0.0249111 
        3.95845       0.0225567       0.0246623 
        3.97418        0.022358        0.024417 
        3.98988       0.0220443       0.0241752 
        4.00554       0.0219356       0.0239374 
        4.02125       0.0216201       0.0237022 
        4.03698       0.0213442       0.0234697 
        4.05268       0.0211121       0.0232409 
        4.06839       0.0208041       0.0230149 
         4.0841       0.0204707        0.022792 
        4.09983       0.0201498       0.0225718 
        4.11555       0.0199125       0.0223546 
        4.13124       0.0196359       0.0221408 
        4.14693         0.01939       0.0219296 
        4.16266       0.0191073       0.0217207 
        4.17839       0.0188646       0.0215146 
        4.19408       0.0186195       0.0213117 
        4.20977         0.01839       0.0211113 
        4.22551       0.0181858        0.020913 
        4.24123       0.0179758       0.0207175 
        4.25691       0.0177948       0.0205249 
        4.27259       0.0175821       0.0203348 
        4.28831        0.017434       0.0201467 
        4.30404       0.0172181       0.0199608 
        4.31974       0.0170649       0.0197776 
        4.33543       0.0169022       0.0195969 
        4.35116       0.0166969       0.0194179 
        4.36688       0.0166621       0.0192413 
        4.38255       0.0164407       0.0190675 
        4.39825       0.0164199       0.0188955 
        4.41398       0.0162864       0.0187253 
         4.4297       0.0161803       0.0185573 
        4.44541       0.0160542       0.0183914 
        4.46111       0.0158967       0.0182277 
        4.47683       0.0158962       0.0180659 
        4.49251       0.0157971       0.0179063 
        4.50819       0.0157809       0.0177488 
         4.5239       0.0156429       0.0175929 
        4.53962       0.0156271       0.0174386 
        4.55535       0.0155408       0.0172862 
        4.57106       0.0155949       0.0171357 
        4.58678       0.0154884       0.0169871 
         4.6025       0.0154969       0.0168401 
        4.61821       0.0155013        0.016695 
        4.63391        0.015471       0.0165517 
         4.6496       0.0154442       0.0164102 
        4.66532       0.0154078       0.0162701 
        4.68103       0.0154834       0.0161317 
        4.69673       0.0154804        0.015995 
        4.71241       0.0155661         0.01586 
        4.72811       0.0155642       0.0157264 
        4.74384       0.0155933       0.0155942 
        4.75955        0.015654       0.0154637 
        4.77525       0.0157243       0.0153347 
        4.79096       0.0157781       0.0152071 
        4.80669       0.0158915       0.0150808 
         4.8224       0.0159641       0.0149561 
        4.83809       0.0160454        0.014833 
        4.85379       0.0161986       0.0147112 
         4.8695       0.0162592       0.0145906 
        4.88521       0.0163282       0.0144714 
        4.90093       0.0164511       0.0143536 
        4.91663       0.0165746       0.0142372 
        4.93234       0.0167254       0.0141219 
        4.94807       0.0168904       0.0140078 
        4.96377       0.0170304       0.0138952 
        4.97943       0.0173031       0.0137841 
        4.99514       0.0173734       0.0136739 
        5.01086       0.0175755       0.0135649 
        5.02654       0.0177716       0.0134573 
        5.04227       0.0179137       0.0133505 
          5.058       0.0181518       0.0132449 
        5.07371       0.0183016       0.0131406 
        5.08942       0.0185777       0.0130374 
        5.10513       0.0188378       0.0129353 
        5.12084       0.0190904       0.0128342 
        5.13656       0.0193626       0.0127343 
        5.15225       0.0196281       0.0126356 
        5.16796       0.0198696       0.0125377 
        5.18369       0.0201115       0.0124409 
         5.1994       0.0204625       0.0123452 
        5.21509       0.0207547       0.0122506 
        5.23079       0.0211088       0.0121569 
        5.24649       0.0214172       0.0120642 
        5.26217       0.0217433       0.0119726 
        5.27788       0.0221322       0.0118818 
        5.29359       0.0224316       0.0117919 
        5.30933       0.0228283       0.0117028 
        5.32504       0.0232201       0.0116148 
        5.34073       0.0236806       0.0115278 
        5.35646       0.0240647       0.0114415 
        5.37218       0.0244395        0.011356 
        5.38789       0.0247629       0.0112716 
        5.40357       0.0254435       0.0111881 
        5.41929       0.0259124       0.0111053 
        5.43502        0.026309       0.0110233 
         5.4507       0.0267741       0.0109424 
        5.46639       0.0273264       0.0108622 
        5.48212       0.0278619       0.0107827 
        5.49786       0.0284444       0.0107038 
        5.51353       0.0291532       0.0106262 
        5.52921       0.0294545       0.0105492 
        5.54495       0.0302492       0.0104728 
        5.56066       0.0308822       0.0103972 
        5.57637       0.0314937       0.0103223 
        5.59207       0.0320711       0.0102483 
        5.60778       0.0326473        0.010175 
        5.62346       0.0334429       0.0101024 
        5.63916       0.0341604       0.0100306 
        5.65487       0.0349256      0.00995934 
         5.6706        0.035592      0.00988873 
        5.68633       0.0364694      0.00981877 
        5.70203       0.0371783      0.00974964 
        5.71773        0.038206      0.00968118 
        5.73344       0.0387741      0.00961334 
        5.74916       0.0397804      0.00954609 
        5.76486       0.0408505      0.00947958 
        5.78054       0.0419179       0.0094138 
        5.79626       0.0424906      0.00934846 
          5.812       0.0437712      0.00928367 
         5.8277       0.0445628      0.00921969 
        5.84339       0.0456963      0.00915631 
        5.85911       0.0468706       0.0090934 
        5.87484       0.0477381      0.00903109 
        5.89053       0.0492291       0.0089695 
        5.90623       0.0501377      0.00890844 
        5.92195       0.0515456      0.00884785 
        5.93767       0.0530459      0.00878786 
        5.95336       0.0536223      0.00872852 
        5.96905        0.055251      0.00866975 
        5.98476       0.0562417      0.00861144 
        6.00048        0.058022      0.00855364 
        6.01617       0.0594328      0.00849646 
        6.03185       0.0607234      0.00843986 
        6.04756       0.0624185      0.00838364 
        6.06331       0.0643615      0.00832782 
        6.07903       0.0656251      0.00827262 
        6.09473       0.0671179      0.00821797 
        6.11044       0.0690847      0.00816377 
        6.12616       0.0705601      0.00811006 
        6.14186       0.0725877      0.00805689 
        6.15755       0.0743661       0.0080042 
        6.17326       0.0762323      0.00795194 
        6.18898       0.0787255      0.00790012 
        6.20467       0.0807059      0.00784886 
        6.22036       0.0827778      0.00779805 
         6.2361       0.0849437      0.00774755 
         6.2518       0.0875288      0.00769759 
        6.26748       0.0884865      0.00764817 
        6.28319       0.0918265      0.00759906 
        6.29893       0.0935877      0.00755033 
        6.31463       0.0968612      0.00750211 
        6.33033       0.0991252      0.00745432 
        6.34604        0.102376      0.00740692 
        6.36177        0.103964      0.00735989 
        6.37747         0.10681      0.00731335 
