# k  (h/Mpc)    Pcb(k)  (Mpc/h)^3    Pcb_linear(k) (Mpc/h)^3   ShotnoiseSubtracted = true
      0.0200456         4851.25         4916.01 
      0.0350414         3645.21         3573.78 
      0.0492313         2593.74         2596.64 
      0.0637834          2111.5         2158.56 
      0.0800726         1668.46          1713.2 
       0.096163         1275.96         1243.07 
       0.111083         1031.01         991.507 
       0.126058         872.879         878.677 
       0.142273         742.891         744.433 
       0.158546         604.697         587.946 
        0.17375         521.414         495.344 
       0.188953         473.499         448.523 
       0.204907         403.168         396.851 
       0.220756         357.815          335.76 
        0.23588         314.596         292.082 
         0.2514         283.102         265.354 
       0.267535         267.507           240.1 
       0.283568         233.648         211.736 
       0.299022         217.568         188.645 
       0.314451         209.244         172.409 
       0.330372         183.449         158.166 
       0.346141         168.978          143.56 
       0.361624          157.84         130.476 
       0.377134         144.274         120.059 
       0.392932         140.306         111.088 
       0.408854         130.951         102.402 
       0.424564         124.797          94.385 
       0.440253         113.365         87.5059 
       0.455999         105.039         81.5242 
       0.471626         100.966          76.027 
        0.48727         97.8757         70.8848 
       0.502856         90.0788         66.2652 
       0.518488         86.9305         62.1434 
       0.534347         81.9302         58.3115 
       0.550082         79.3517         54.7784 
       0.565732         76.9701          51.546 
       0.581496         71.2447         48.5856 
       0.597222         68.7747         45.8705 
       0.612804         66.3422          43.374 
       0.628434         64.8591          41.047 
       0.644267         61.3423         38.8714 
       0.660051         59.0035         36.8663 
       0.675724         57.0649         35.0149 
       0.691403         56.0673          33.289 
       0.707174         54.0981         31.6697 
       0.722871         52.5318         30.1646 
        0.73838         50.2992         28.7734 
       0.754018          47.695         27.4594 
       0.769845         47.0877         26.2132 
        0.78569         45.4002         25.0433 
       0.801365         44.1823         23.9564 
       0.817031          42.493         22.9351 
       0.832809         41.7694         21.9671 
       0.848511         40.5055         21.0595 
       0.864097         39.6056         20.2098 
       0.879701         38.8288         19.4063 
       0.895507         37.4103         18.6372 
       0.911279         36.4279         17.9116 
        0.92691         35.6767         17.2309 
       0.942635         34.9373         16.5819 
       0.958396         34.3685         15.9651 
       0.974128         33.4265         15.3809 
       0.989692         32.2364         14.8319 
        1.00528         31.8883          14.309 
        1.02113         31.0628         13.8031 
        1.03692         30.5864         13.3237 
        1.05264         29.9081         12.8694 
        1.06832         29.3616         12.4371 
        1.08405         28.5592         12.0235 
        1.09979         28.3039         11.6286 
        1.11537         27.4051         11.2554 
        1.13105         26.9292         10.8964 
        1.14679         26.3273         10.5518 
        1.16256         25.9781         10.2214 
        1.17828          25.599         9.90633 
        1.19395         25.0838         9.60565 
         1.2097         24.6554         9.31596 
        1.22537         24.1899         9.03966 
          1.241          23.736         8.77544 
        1.25666         23.4205         8.52116 
        1.27241         23.0734          8.2758 
        1.28819         22.2157         8.03971 
        1.30392          22.455         7.81356 
        1.31957          21.917         7.59713 
        1.33529         21.4769         7.38814 
        1.35108         21.2721         7.18621 
        1.36674         20.9289         6.99329 
         1.3824         20.5257         6.80765 
        1.39811         20.1081         6.62815 
        1.41389         19.9083         6.45446 
        1.42964         19.6972          6.2873 
        1.44531         19.3595          6.1269 
        1.46101         19.1143         5.97176 
        1.47667         18.8468         5.82248 
        1.49229         18.4384         5.67871 
        1.50793         18.3048         5.53964 
        1.52367         18.0577         5.40435 
        1.53953         17.8299         5.27268 
        1.55526         17.4892         5.14646 
        1.57092          17.449         5.02491 
        1.58662         17.1948           4.907 
        1.60235         16.9031         4.79265 
        1.61809         16.7316          4.6819 
        1.63369          16.498         4.57564 
        1.64941         16.3115         4.47192 
        1.66519         16.0675         4.37106 
        1.68085          15.756         4.27403 
        1.69652         15.8069         4.17992 
        1.71228         15.4918         4.08811 
        1.72806         15.2736           3.999 
        1.74368         15.1457         3.91344 
        1.75933         14.9903         3.83022 
        1.77505         14.8019         3.74904 
        1.79081          14.634         3.67007 
         1.8065         14.5064         3.59371 
        1.82218         14.3852          3.5196 
        1.83797         14.2456         3.44708 
        1.85367         14.1212           3.377 
        1.86928         13.9438         3.30929 
        1.88497         13.7848         3.24308 
        1.90073         13.5953         3.17844 
        1.91647         13.3187         3.11561 
        1.93218         13.3528         3.05463 
        1.94787         13.0916         2.99536 
        1.96363          13.048         2.93744 
        1.97935          12.871         2.88117 
        1.99499         12.7198          2.8267 
        2.01064         12.6074         2.77355 
         2.0264          12.428         2.72144 
        2.04216         12.4472          2.6707 
        2.05781         12.2943         2.62157 
        2.07353          12.153          2.5735 
        2.08928         12.0031         2.52654 
        2.10499         11.8678         2.48088 
        2.12065         11.7902         2.43648 
        2.13633         11.6589         2.39313 
        2.15211         11.5537         2.35056 
        2.16785         11.4295         2.30914 
        2.18349         11.3006         2.26899 
        2.19916         11.2085          2.2297 
        2.21489         11.1052         2.19122 
        2.23063         11.0623         2.15361 
         2.2463         10.8645         2.11707 
        2.26194         10.7975         2.08146 
        2.27765         10.6653         2.04648 
        2.29341         10.5559         2.01223 
        2.30914         10.5034         1.97882 
        2.32486         10.4187          1.9462 
        2.34061         10.3367         1.91425 
        2.35635         10.2296         1.88306 
        2.37203         10.1007         1.85266 
        2.38768         9.99224           1.823 
        2.40339         9.96686         1.79389 
        2.41914         9.83217         1.76534 
        2.43483         9.78777         1.73751 
         2.4505         9.69785         1.71033 
        2.46622         9.60041         1.68364 
        2.48195         9.56865         1.65752 
        2.49759         9.40266         1.63209 
        2.51328         9.38339         1.60713 
        2.52906          9.2695         1.58254 
        2.54479         9.18512         1.55855 
        2.56049         9.09451          1.5351 
        2.57618          9.0518         1.51216 
        2.59189         9.04922         1.48965 
        2.60758         8.89469         1.46764 
        2.62325          8.8244          1.4461 
        2.63898         8.81542         1.42491 
        2.65468         8.67958          1.4042 
        2.67044         8.64398          1.3838 
        2.68618         8.54521         1.36386 
        2.70184         8.50003          1.3444 
        2.71755         8.42262         1.32526 
        2.73329         8.31874         1.30647 
        2.74897         8.27012          1.2881 
        2.76462         8.24351         1.27013 
        2.78034         8.14181         1.25242 
        2.79607         8.12177         1.23504 
        2.81179         8.01952           1.218 
        2.82749         7.95897         1.20131 
        2.84321         7.90924         1.18491 
        2.85893         7.86285         1.16882 
        2.87462         7.79727         1.15306 
        2.89033         7.71128         1.13757 
        2.90605         7.68218         1.12235 
        2.92176         7.60757         1.10743 
        2.93747         7.54436         1.09278 
        2.95318         7.48224         1.07839 
        2.96891         7.42767         1.06425 
        2.98456         7.37419         1.05043 
        3.00023         7.32845         1.03684 
        3.01596         7.23012         1.02344 
        3.03164         7.22144         1.01032 
        3.04738         7.15059        0.997392 
         3.0631          7.0914        0.984693 
        3.07883         7.04691        0.972215 
        3.09456         6.97169        0.959955 
        3.11026         6.93272        0.947926 
        3.12596         6.86949        0.936104 
        3.14163         6.85562        0.924511 
        3.15734         6.78025        0.913087 
        3.17308         6.76858        0.901828 
        3.18879         6.68592         0.89079 
        3.20447         6.63184        0.879953 
         3.2202         6.59451        0.869263 
         3.2359         6.54199        0.858769 
        3.25157         6.50466        0.848474 
        3.26729         6.45485        0.838316 
        3.28304         6.40632        0.828305 
        3.29877         6.37426         0.81847 
        3.31446         6.33917        0.808816 
        3.33014          6.2732        0.799326 
        3.34585         6.24078        0.789974 
        3.36158         6.18312        0.780758 
        3.37727         6.14246        0.771717 
        3.39294         6.10112        0.762829 
        3.40867         6.07099        0.754048 
        3.42439         6.00444         0.74541 
        3.44008         5.97283        0.736924 
        3.45578         5.93173        0.728564 
        3.47153         5.87789        0.720315 
        3.48724         5.84065        0.712208 
        3.50292            5.79        0.704245 
        3.51859         5.77293        0.696408 
        3.53431         5.72547        0.688665 
        3.55007         5.68431        0.681021 
        3.56577         5.62785        0.673523 
        3.58146         5.60489        0.666142 
        3.59719         5.56536        0.658854 
        3.61292         5.52598        0.651677 
        3.62859         5.49595        0.644634 
        3.64429         5.45684        0.637682 
        3.66003         5.41858        0.630811 
        3.67578         5.39178        0.624044 
        3.69146         5.35044        0.617402 
        3.70712         5.31939        0.610868 
        3.72284         5.28085        0.604405 
        3.73853         5.24144        0.598046 
        3.75422         5.19642        0.591777 
        3.76993         5.19102        0.585592 
        3.78564         5.13842        0.579497 
        3.80137         5.10746         0.57348 
        3.81707         5.05536         0.56756 
        3.83279         5.03765         0.56172 
        3.84853         4.98688        0.555952 
        3.86424         4.95763        0.550276 
        3.87992         4.93921        0.544688 
        3.89561         4.91683        0.539177 
        3.91134         4.86975        0.533731 
        3.92704         4.83757        0.528367 
        3.94273         4.81131        0.523081 
        3.95845         4.77969        0.517859 
        3.97418         4.73689        0.512706 
        3.98988         4.70968        0.507631 
        4.00554         4.68697        0.502637 
        4.02125         4.64202        0.497697 
        4.03698          4.6195        0.492816 
        4.05268         4.57459        0.488011 
        4.06839         4.55148        0.483266 
         4.0841         4.51613        0.478586 
        4.09983         4.49395        0.473962 
        4.11555         4.45509          0.4694 
        4.13124         4.42561        0.464911 
        4.14693         4.41054        0.460477 
        4.16266          4.3751         0.45609 
        4.17839         4.35305        0.451763 
        4.19408         4.32411        0.447502 
        4.20977         4.28996        0.443294 
        4.22551         4.25968         0.43913 
        4.24123         4.21913        0.435024 
        4.25691         4.19873        0.430982 
        4.27259         4.17056        0.426989 
        4.28831         4.13523        0.423039 
        4.30404         4.11803        0.419136 
        4.31974         4.08531         0.41529 
        4.33543         4.05715        0.411494 
        4.35116         4.04024        0.407737 
        4.36688         4.01676        0.404028 
        4.38255         3.99719        0.400379 
        4.39825         3.96763        0.396767 
        4.41398         3.94225        0.393192 
         4.4297         3.92447        0.389666 
        4.44541         3.89569        0.386183 
        4.46111         3.86046        0.382745 
        4.47683         3.84166        0.379347 
        4.49251         3.81605        0.375997 
        4.50819          3.7944        0.372688 
         4.5239         3.76533        0.369414 
        4.53962         3.73498        0.366175 
        4.55535         3.72244        0.362974 
        4.57106          3.6985        0.359815 
        4.58678         3.67058        0.356694 
         4.6025          3.6561        0.353608 
        4.61821         3.62188         0.35056 
        4.63391         3.59811        0.347552 
         4.6496         3.57755         0.34458 
        4.66532         3.55906        0.341638 
        4.68103         3.53823        0.338732 
        4.69673         3.51883        0.335862 
        4.71241         3.49677        0.333028 
        4.72811         3.47645        0.330223 
        4.74384         3.46037        0.327446 
        4.75955         3.42936        0.324705 
        4.77525         3.41073        0.321997 
        4.79096          3.3941        0.319317 
        4.80669         3.36704        0.316666 
         4.8224         3.34956        0.314048 
        4.83809         3.33331        0.311462 
        4.85379         3.31188        0.308904 
         4.8695         3.29209        0.306373 
        4.88521         3.26953        0.303871 
        4.90093         3.25487        0.301396 
        4.91663         3.23429        0.298951 
        4.93234         3.21555        0.296531 
        4.94807         3.20079        0.294136 
        4.96377         3.18249        0.291772 
        4.97943         3.16371        0.289439 
        4.99514         3.14445        0.287125 
        5.01086         3.12091        0.284835 
        5.02654         3.10283        0.282575 
        5.04227         3.08952        0.280334 
          5.058         3.07712        0.278115 
        5.07371         3.05594        0.275925 
        5.08942         3.02578        0.273758 
        5.10513         3.01374        0.271615 
        5.12084         2.99545        0.269493 
        5.13656         2.98559        0.267394 
        5.15225         2.96862        0.265321 
        5.16796         2.94787        0.263267 
        5.18369          2.9258        0.261233 
         5.1994         2.91271        0.259224 
        5.21509         2.89497        0.257237 
        5.23079          2.8862        0.255269 
        5.24649         2.86289        0.253324 
        5.26217         2.84474          0.2514 
        5.27788         2.83436        0.249493 
        5.29359         2.82218        0.247605 
        5.30933         2.80724        0.245735 
        5.32504         2.79201        0.243887 
        5.34073         2.77498        0.242059 
        5.35646         2.75289        0.240247 
        5.37218         2.74571        0.238453 
        5.38789         2.73013        0.236681 
        5.40357         2.71345        0.234928 
        5.41929         2.69666        0.233189 
        5.43502         2.68759        0.231468 
         5.4507         2.66329        0.229768 
        5.46639         2.65216        0.228085 
        5.48212         2.63786        0.226414 
        5.49786         2.62354        0.224759 
        5.51353         2.61154        0.223128 
        5.52921         2.59582        0.221512 
        5.54495         2.58213        0.219907 
        5.56066         2.56875        0.218319 
        5.57637         2.55801        0.216748 
        5.59207           2.538        0.215193 
        5.60778         2.53331        0.213653 
        5.62346         2.51076        0.212131 
        5.63916         2.50258        0.210621 
        5.65487          2.4819        0.209126 
         5.6706         2.47756        0.207643 
        5.68633         2.46101        0.206174 
        5.70203         2.44774        0.204722 
        5.71773         2.43391        0.203285 
        5.73344         2.42222        0.201861 
        5.74916         2.41007        0.200448 
        5.76486          2.4009        0.199052 
        5.78054         2.38185         0.19767 
        5.79626         2.37213        0.196298 
          5.812         2.35509        0.194938 
         5.8277         2.34409        0.193595 
        5.84339         2.33677        0.192264 
        5.85911         2.32381        0.190943 
        5.87484         2.31217        0.189635 
        5.89053         2.30092        0.188341 
        5.90623         2.28814        0.187059 
        5.92195         2.27859        0.185787 
        5.93767         2.26589        0.184527 
        5.95336         2.25152        0.183281 
        5.96905         2.24311        0.182047 
        5.98476         2.22804        0.180823 
        6.00048         2.21928        0.179609 
        6.01617         2.20652        0.178408 
        6.03185         2.19357         0.17722 
        6.04756         2.18848        0.176039 
        6.06331         2.17858        0.174867 
        6.07903         2.16418        0.173708 
        6.09473         2.15434        0.172561 
        6.11044         2.14464        0.171422 
        6.12616          2.1347        0.170295 
        6.14186         2.12828        0.169178 
        6.15755         2.11329        0.168072 
        6.17326         2.10253        0.166974 
        6.18898         2.09487        0.165886 
        6.20467         2.08026         0.16481 
        6.22036         2.07054        0.163743 
         6.2361         2.06541        0.162683 
         6.2518          2.0545        0.161634 
        6.26748         2.04393        0.160596 
        6.28319         2.03416        0.159565 
        6.29893         2.02414        0.158541 
        6.31463         2.01388        0.157529 
        6.33033          2.0022        0.156526 
        6.34604         1.99538         0.15553 
        6.36177         1.98771        0.154543 
        6.37747          1.9771        0.153565 
