# k  (h/Mpc)    Pcb(k)  (Mpc/h)^3    Pcb_linear(k) (Mpc/h)^3   ShotnoiseSubtracted = true
      0.0200456         22733.8         23139.7 
      0.0350414         17356.4         16821.8 
      0.0492313         11945.9         12222.4 
      0.0637834         9628.48         10160.3 
      0.0800726         7553.75         8064.02 
       0.096163         6082.37         5851.15 
       0.111083         4953.84         4667.02 
       0.126058            4093         4135.93 
       0.142273         3589.54         3504.05 
       0.158546         2945.12         2767.46 
        0.17375         2637.22         2331.58 
       0.188953         2504.38          2111.2 
       0.204907         2154.57         1867.98 
       0.220756         1949.63         1580.42 
        0.23588         1740.55         1374.83 
         0.2514         1577.89         1249.02 
       0.267535          1521.1         1130.15 
       0.283568         1357.43         996.639 
       0.299022         1293.53         887.954 
       0.314451         1347.98          811.53 
       0.330372         1194.61         744.487 
       0.346141         1096.69         675.736 
       0.361624         1052.05         614.151 
       0.377134         1009.68         565.116 
       0.392932         961.354         522.891 
       0.408854         922.451         482.004 
       0.424564         902.773          444.27 
       0.440253         838.187          411.89 
       0.455999         801.242         383.734 
       0.471626         814.617         357.859 
        0.48727         768.936         333.655 
       0.502856          739.64          311.91 
       0.518488         716.209         292.509 
       0.534347         688.786         274.472 
       0.550082         656.665         257.842 
       0.565732         646.613         242.627 
       0.581496         632.773         228.692 
       0.597222         619.899         215.913 
       0.612804         604.606         204.161 
       0.628434         579.552         193.208 
       0.644267         563.641         182.968 
       0.660051         557.404          173.53 
       0.675724         545.903         164.815 
       0.691403         529.413         156.691 
       0.707174           513.7         149.069 
       0.722871         508.477         141.985 
        0.73838         496.703         135.436 
       0.754018         484.697         129.251 
       0.769845         478.491         123.385 
        0.78569         468.104         117.879 
       0.801365         452.295         112.763 
       0.817031         448.426         107.955 
       0.832809         441.247         103.399 
       0.848511         433.883         99.1272 
       0.864097         423.911         95.1274 
       0.879701         423.103         91.3454 
       0.895507         406.313         87.7254 
       0.911279         400.829         84.3101 
        0.92691         396.024         81.1056 
       0.942635         391.152         78.0508 
       0.958396         378.523         75.1476 
       0.974128          373.45          72.398 
       0.989692         362.712         69.8137 
        1.00528         359.325         67.3522 
        1.02113         353.144         64.9713 
        1.03692         347.688         62.7149 
        1.05264         342.586         60.5763 
        1.06832         335.162         58.5413 
        1.08405         333.464         56.5947 
        1.09979         326.171         54.7358 
        1.11537         317.638         52.9792 
        1.13105         314.034         51.2894 
        1.14679         308.634         49.6672 
        1.16256         306.871         48.1122 
        1.17828         301.681         46.6291 
        1.19395         293.952         45.2138 
         1.2097         292.282         43.8502 
        1.22537         287.355         42.5497 
          1.241         280.922          41.306 
        1.25666         278.254         40.1091 
        1.27241         274.427         38.9542 
        1.28819         267.851         37.8429 
        1.30392         267.801         36.7784 
        1.31957         260.086         35.7597 
        1.33529         256.714          34.776 
        1.35108          255.32         33.8255 
        1.36674         248.334         32.9174 
         1.3824         245.971         32.0436 
        1.39811         243.164         31.1987 
        1.41389         237.185         30.3811 
        1.42964         234.174         29.5943 
        1.44531         231.745         28.8393 
        1.46101          227.54         28.1091 
        1.47667         224.872         27.4064 
        1.49229         221.705         26.7297 
        1.50793         218.411         26.0751 
        1.52367         214.937         25.4383 
        1.53953         211.201         24.8185 
        1.55526         209.049         24.2244 
        1.57092         207.235         23.6522 
        1.58662         202.462         23.0972 
        1.60235          200.17          22.559 
        1.61809         197.998         22.0377 
        1.63369         194.173         21.5375 
        1.64941         191.407         21.0493 
        1.66519         188.938         20.5746 
        1.68085         185.584         20.1178 
        1.69652         183.808         19.6749 
        1.71228         180.899         19.2427 
        1.72806         178.858         18.8233 
        1.74368         176.517         18.4206 
        1.75933         175.284         18.0288 
        1.77505         172.466         17.6467 
        1.79081         169.067          17.275 
         1.8065         167.975         16.9156 
        1.82218         163.828         16.5668 
        1.83797         162.724         16.2254 
        1.85367         160.267         15.8955 
        1.86928         157.858         15.5768 
        1.88497         156.448         15.2652 
        1.90073         154.813         14.9609 
        1.91647         151.724         14.6652 
        1.93218         149.531         14.3781 
        1.94787         147.664         14.0992 
        1.96363         146.975         13.8265 
        1.97935         145.121         13.5617 
        1.99499         142.732         13.3053 
        2.01064          139.77         13.0551 
         2.0264         139.325         12.8098 
        2.04216         136.875          12.571 
        2.05781         134.463         12.3397 
        2.07353         133.695         12.1135 
        2.08928         131.917         11.8924 
        2.10499         130.539         11.6775 
        2.12065         129.015         11.4685 
        2.13633          127.04         11.2645 
        2.15211         125.022         11.0641 
        2.16785         123.752         10.8691 
        2.18349         122.395         10.6801 
        2.19916         120.611         10.4952 
        2.21489         119.077         10.3141 
        2.23063         117.521         10.1371 
         2.2463         115.868         9.96502 
        2.26194         114.918         9.79741 
        2.27765         113.033          9.6328 
        2.29341         112.054         9.47155 
        2.30914         110.769         9.31432 
        2.32486         108.876         9.16075 
        2.34061         107.562         9.01039 
        2.35635         106.755         8.86355 
        2.37203         104.893         8.72049 
        2.38768         104.143         8.58088 
        2.40339         102.177         8.44383 
        2.41914         101.246         8.30945 
        2.43483         100.467         8.17848 
         2.4505          99.059         8.05054 
        2.46622         97.5194         7.92491 
        2.48195          96.718         7.80196 
        2.49759         95.2261         7.68227 
        2.51328         94.3262         7.56478 
        2.52906          93.338           7.449 
        2.54479         92.0141         7.33608 
        2.56049         90.7716         7.22573 
        2.57618         89.8702         7.11774 
        2.59189         89.1457         7.01179 
        2.60758         87.6022         6.90817 
        2.62325         87.1627         6.80677 
        2.63898         86.0402         6.70706 
        2.65468         85.1325         6.60955 
        2.67044          84.077         6.51356 
        2.68618         82.7948          6.4197 
        2.70184         81.8915         6.32807 
        2.71755         81.3295           6.238 
        2.73329          79.907         6.14954 
        2.74897         79.1308         6.06309 
        2.76462         78.7592         5.97849 
        2.78034         77.3111         5.89516 
        2.79607         76.3595         5.81332 
        2.81179         75.7234         5.73314 
        2.82749           75.03         5.65456 
        2.84321         73.8516         5.57736 
        2.85893          72.782         5.50163 
        2.87462         72.3602         5.42743 
        2.89033         71.4827         5.35454 
        2.90605         70.6848         5.28292 
        2.92176         70.0545         5.21265 
        2.93747         69.2508         5.14369 
        2.95318         68.1417         5.07597 
        2.96891         67.7325         5.00943 
        2.98456         66.7377         4.94438 
        3.00023         66.1245          4.8804 
        3.01596         65.5729         4.81734 
        3.03164         64.7368         4.75558 
        3.04738         64.4315         4.69472 
         3.0631         63.2747         4.63495 
        3.07883         62.8357         4.57622 
        3.09456         61.9496         4.51851 
        3.11026         61.5374         4.46189 
        3.12596         60.7511         4.40624 
        3.14163         60.1201         4.35167 
        3.15734         59.2787          4.2979 
        3.17308         58.8756          4.2449 
        3.18879         58.3085         4.19295 
        3.20447         57.8056         4.14194 
         3.2202         56.8999         4.09162 
         3.2359         56.3124         4.04223 
        3.25157         56.0269         3.99377 
        3.26729         55.3243         3.94595 
        3.28304         54.5364         3.89883 
        3.29877         54.2007         3.85254 
        3.31446          53.498          3.8071 
        3.33014         53.0829         3.76243 
        3.34585          52.549         3.71841 
        3.36158         52.1772         3.67503 
        3.37727          51.572         3.63247 
        3.39294         50.9828         3.59063 
        3.40867         50.5632          3.5493 
        3.42439         49.9797         3.50864 
        3.44008         49.4281          3.4687 
        3.45578         48.9647         3.42935 
        3.47153         48.4979         3.39052 
        3.48724         48.0437         3.35236 
        3.50292         47.5674         3.31488 
        3.51859         47.1308         3.27799 
        3.53431         46.5637         3.24155 
        3.55007         46.0668         3.20557 
        3.56577         45.5968         3.17027 
        3.58146         45.1234         3.13553 
        3.59719         44.7576         3.10122 
        3.61292         44.1904         3.06744 
        3.62859         43.8991         3.03429 
        3.64429         43.5486         3.00157 
        3.66003         43.1756         2.96923 
        3.67578         42.6487         2.93738 
        3.69146         42.2693         2.90611 
        3.70712         41.9522         2.87536 
        3.72284         41.5063         2.84493 
        3.73853          41.109           2.815 
        3.75422         40.6863         2.78549 
        3.76993         40.3382         2.75638 
        3.78564         39.9428         2.72769 
        3.80137         39.6636         2.69937 
        3.81707         39.1353         2.67151 
        3.83279         38.8875         2.64401 
        3.84853         38.4611         2.61686 
        3.86424         38.0694         2.59015 
        3.87992         37.6961         2.56385 
        3.89561         37.4421         2.53791 
        3.91134         37.0906         2.51227 
        3.92704         36.7376         2.48702 
        3.94273          36.409         2.46214 
        3.95845          36.011         2.43756 
        3.97418         35.7559         2.41331 
        3.98988         35.4031         2.38942 
        4.00554         35.0278         2.36591 
        4.02125         34.8308         2.34266 
        4.03698         34.4231         2.31968 
        4.05268         34.2227         2.29707 
        4.06839         33.8994         2.27473 
         4.0841         33.6397         2.25271 
        4.09983         33.2382         2.23094 
        4.11555         33.0109         2.20947 
        4.13124         32.5951         2.18834 
        4.14693         32.3714         2.16746 
        4.16266           32.13         2.14682 
        4.17839         31.7834         2.12645 
        4.19408         31.5462         2.10639 
        4.20977         31.2998         2.08659 
        4.22551         30.9688         2.06699 
        4.24123         30.7442         2.04766 
        4.25691         30.4484         2.02863 
        4.27259         30.1966         2.00984 
        4.28831         29.9388         1.99125 
        4.30404         29.6999         1.97287 
        4.31974         29.4377         1.95477 
        4.33543         29.1856          1.9369 
        4.35116         28.9256         1.91922 
        4.36688         28.6352         1.90176 
        4.38255         28.4757         1.88458 
        4.39825          28.187         1.86758 
        4.41398         27.9647         1.85076 
         4.4297         27.6985         1.83416 
        4.44541         27.5742         1.81776 
        4.46111         27.1934         1.80158 
        4.47683         27.0534         1.78558 
        4.49251         26.8426         1.76982 
        4.50819         26.6118         1.75424 
         4.5239         26.3116         1.73883 
        4.53962         26.1585         1.72359 
        4.55535         25.9319         1.70852 
        4.57106         25.6728         1.69365 
        4.58678         25.4942         1.67896 
         4.6025         25.3224         1.66443 
        4.61821         25.1342         1.65009 
        4.63391         24.8588         1.63593 
         4.6496         24.6366         1.62194 
        4.66532         24.4754         1.60809 
        4.68103         24.2747         1.59441 
        4.69673          24.086          1.5809 
        4.71241         23.9095         1.56756 
        4.72811         23.7001         1.55436 
        4.74384         23.5452         1.54129 
        4.75955         23.3715         1.52839 
        4.77525         23.1152         1.51564 
        4.79096         22.8985         1.50303 
        4.80669         22.7835         1.49055 
         4.8224         22.5975         1.47822 
        4.83809         22.3615         1.46605 
        4.85379         22.2079         1.45401 
         4.8695         22.0478          1.4421 
        4.88521         21.8274         1.43032 
        4.90093         21.7331         1.41867 
        4.91663          21.518         1.40716 
        4.93234          21.312         1.39577 
        4.94807         21.1495          1.3845 
        4.96377         21.0096         1.37337 
        4.97943         20.8545         1.36239 
        4.99514         20.7198          1.3515 
        5.01086         20.5349         1.34072 
        5.02654         20.3655         1.33008 
        5.04227         20.2301         1.31953 
          5.058         20.0312         1.30909 
        5.07371         19.8525         1.29878 
        5.08942         19.6837         1.28858 
        5.10513         19.6153         1.27849 
        5.12084         19.4543          1.2685 
        5.13656         19.2879         1.25862 
        5.15225         19.1976         1.24887 
        5.16796         18.9977          1.2392 
        5.18369         18.8419         1.22962 
         5.1994         18.6646         1.22016 
        5.21509         18.5433         1.21082 
        5.23079         18.4184         1.20155 
        5.24649         18.2782         1.19239 
        5.26217         18.1568         1.18334 
        5.27788         18.0266         1.17436 
        5.29359         17.8619         1.16548 
        5.30933         17.7132         1.15667 
        5.32504         17.6034         1.14797 
        5.34073         17.4438         1.13937 
        5.35646         17.3342         1.13084 
        5.37218         17.1848          1.1224 
        5.38789         17.0729         1.11406 
        5.40357         16.9419         1.10581 
        5.41929         16.8419         1.09762 
        5.43502         16.6957         1.08952 
         5.4507         16.5427         1.08152 
        5.46639         16.4196         1.07359 
        5.48212         16.3139         1.06573 
        5.49786         16.2104         1.05794 
        5.51353         16.1159         1.05026 
        5.52921           15.98         1.04266 
        5.54495          15.851          1.0351 
        5.56066         15.7421         1.02763 
        5.57637         15.6225         1.02023 
        5.59207         15.4936         1.01292 
        5.60778          15.437         1.00567 
        5.62346          15.297        0.998499 
        5.63916         15.1834        0.991394 
        5.65487         15.0533        0.984355 
         5.6706         14.9637        0.977376 
        5.68633          14.873        0.970462 
        5.70203         14.7455        0.963628 
        5.71773         14.6514        0.956862 
        5.73344         14.5568        0.950157 
        5.74916         14.4358        0.943511 
        5.76486         14.3331        0.936936 
        5.78054         14.2177        0.930435 
        5.79626         14.1207        0.923977 
          5.812          14.052        0.917574 
         5.8277         13.9193         0.91125 
        5.84339         13.8296        0.904985 
        5.85911         13.7553        0.898768 
        5.87484         13.6232         0.89261 
        5.89053         13.5145        0.886521 
        5.90623         13.4576        0.880487 
        5.92195         13.3401        0.874498 
        5.93767         13.2683        0.868569 
        5.95336         13.1688        0.862704 
        5.96905         13.0749        0.856895 
        5.98476         13.0002        0.851132 
        6.00048         12.9018        0.845419 
        6.01617         12.8404        0.839767 
        6.03185         12.7256        0.834173 
        6.04756         12.6503        0.828617 
        6.06331         12.5636          0.8231 
        6.07903         12.4512        0.817644 
        6.09473         12.3674        0.812243 
        6.11044         12.2923        0.806885 
        6.12616         12.2157        0.801577 
        6.14186         12.1453        0.796322 
        6.15755         12.0413        0.791114 
        6.17326         11.9526        0.785949 
        6.18898         11.8705        0.780827 
        6.20467         11.7707         0.77576 
        6.22036          11.701        0.770739 
         6.2361         11.6192        0.765748 
         6.2518         11.5477        0.760809 
        6.26748         11.4935        0.755925 
        6.28319         11.4033        0.751071 
        6.29893         11.3348        0.746254 
        6.31463         11.2594        0.741488 
        6.33033          11.186        0.736766 
        6.34604         11.0886        0.732081 
        6.36177         11.0196        0.727432 
        6.37747         10.9569        0.722832 
