# k  (h/Mpc)    Pcb(k)  (Mpc/h)^3    Pcb_linear(k) (Mpc/h)^3   ShotnoiseSubtracted = true
      0.0200456         11463.7         11634.7 
      0.0350414         8680.35         8458.02 
      0.0492313         6088.55         6145.44 
      0.0637834         4927.39         5108.65 
      0.0800726         3881.94         4054.61 
       0.096163          3042.4         2941.97 
       0.111083         2471.67         2346.59 
       0.126058         2061.19         2079.56 
       0.142273         1776.75         1761.84 
       0.158546         1458.48         1391.49 
        0.17375         1275.24         1172.33 
       0.188953         1180.49         1061.51 
       0.204907         1007.98         939.224 
       0.220756          903.19          794.64 
        0.23588         802.221         691.268 
         0.2514          718.33          628.01 
       0.267535         695.945         568.241 
       0.283568         607.931         501.112 
       0.299022         578.979         446.465 
       0.314451         583.534         408.039 
       0.330372           501.5          374.33 
       0.346141         464.646         339.761 
       0.361624         443.435         308.797 
       0.377134         414.041         284.142 
       0.392932         401.783         262.911 
       0.408854         381.812         242.353 
       0.424564         368.565          223.38 
       0.440253          333.18         207.099 
       0.455999         318.581         192.942 
       0.471626         318.789         179.932 
        0.48727         302.737         167.762 
       0.502856         277.512         156.829 
       0.518488         278.492         147.074 
       0.534347         258.653         138.005 
       0.550082         251.533         129.643 
       0.565732         249.826         121.993 
       0.581496          235.78         114.987 
       0.597222           229.7         108.561 
       0.612804         223.233         102.653 
       0.628434         215.315         97.1454 
       0.644267         205.611         91.9966 
       0.660051         201.714         87.2511 
       0.675724         199.472         82.8693 
       0.691403         194.089         78.7846 
       0.707174         187.388         74.9523 
       0.722871         184.447         71.3902 
        0.73838         182.633         68.0976 
       0.754018         172.398         64.9878 
       0.769845          172.26         62.0385 
        0.78569         167.737         59.2697 
       0.801365         162.919         56.6974 
       0.817031         158.898         54.2802 
       0.832809         156.241         51.9892 
       0.848511         152.461         49.8414 
       0.864097         149.414         47.8302 
       0.879701         147.935         45.9287 
       0.895507         143.988         44.1085 
       0.911279          140.12         42.3913 
        0.92691         137.703         40.7801 
       0.942635         135.405         39.2441 
       0.958396         133.366         37.7844 
       0.974128         130.552         36.4019 
       0.989692         127.236         35.1025 
        1.00528         125.956         33.8648 
        1.02113          122.72         32.6677 
        1.03692         121.821         31.5332 
        1.05264         120.257         30.4579 
        1.06832         117.223         29.4347 
        1.08405         115.676         28.4559 
        1.09979          114.87         27.5213 
        1.11537           111.9          26.638 
        1.13105         110.784         25.7884 
        1.14679         108.795         24.9728 
        1.16256         106.738         24.1909 
        1.17828         105.699         23.4452 
        1.19395         103.005         22.7336 
         1.2097         102.514          22.048 
        1.22537         100.276         21.3941 
          1.241         99.7085         20.7687 
        1.25666         96.6703         20.1669 
        1.27241         95.4424         19.5862 
        1.28819         94.9736         19.0275 
        1.30392         93.1731         18.4923 
        1.31957         91.9163         17.9801 
        1.33529         90.7384         17.4854 
        1.35108         90.1743         17.0075 
        1.36674         88.4018         16.5509 
         1.3824         87.9989         16.1116 
        1.39811         85.6907         15.6868 
        1.41389          84.734         15.2757 
        1.42964         83.3218         14.8801 
        1.44531         82.7041         14.5005 
        1.46101         81.7597         14.1333 
        1.47667         80.7863           13.78 
        1.49229         79.9144         13.4397 
        1.50793         78.5889         13.1106 
        1.52367         77.9922         12.7904 
        1.53953         76.8535         12.4788 
        1.55526         75.4968         12.1801 
        1.57092         75.3295         11.8924 
        1.58662          74.245         11.6133 
        1.60235         73.1137         11.3427 
        1.61809         72.1173         11.0806 
        1.63369         71.1443         10.8291 
        1.64941         71.0841         10.5837 
        1.66519         69.3285         10.3449 
        1.68085          68.733         10.1153 
        1.69652         67.4616         9.89256 
        1.71228         66.8672         9.67529 
        1.72806         66.4899         9.46439 
        1.74368         65.3839          9.2619 
        1.75933         64.7977         9.06494 
        1.77505         64.1751          8.8728 
        1.79081         63.0962         8.68591 
         1.8065         62.8962          8.5052 
        1.82218         61.2095          8.3298 
        1.83797         60.9149         8.15816 
        1.85367         60.1898         7.99231 
        1.86928         59.6365         7.83207 
        1.88497         58.8293         7.67536 
        1.90073         58.0131         7.52237 
        1.91647         57.5737         7.37369 
        1.93218         57.0175         7.22935 
        1.94787         56.1794          7.0891 
        1.96363         55.4234         6.95201 
        1.97935         54.8497         6.81884 
        1.99499         54.3126         6.68991 
        2.01064          53.706         6.56413 
         2.0264         53.2444         6.44081 
        2.04216         52.4409         6.32071 
        2.05781         51.8111         6.20444 
        2.07353         51.0849         6.09069 
        2.08928         50.7112         5.97954 
        2.10499           50.23         5.87147 
        2.12065         49.6777         5.76639 
        2.13633          49.269          5.6638 
        2.15211         48.5401         5.56305 
        2.16785         47.7903         5.46503 
        2.18349         47.2946         5.36999 
        2.19916          46.807         5.27701 
        2.21489         46.5776         5.18593 
        2.23063         45.7888         5.09694 
         2.2463         45.4127         5.01044 
        2.26194         45.0618         4.92616 
        2.27765         44.3817         4.84339 
        2.29341         43.7313         4.76231 
        2.30914         43.3457         4.68326 
        2.32486          42.773         4.60605 
        2.34061         42.4759         4.53045 
        2.35635         41.8644         4.45661 
        2.37203         41.4864         4.38468 
        2.38768         41.2223         4.31448 
        2.40339         40.7726         4.24557 
        2.41914         40.3739         4.17801 
        2.43483         39.6004         4.11216 
         2.4505         39.4795         4.04783 
        2.46622         39.0339         3.98466 
        2.48195         38.6014         3.92284 
        2.49759          38.132         3.86266 
        2.51328          37.777         3.80359 
        2.52906          37.399         3.74537 
        2.54479         37.0337          3.6886 
        2.56049          36.566         3.63311 
        2.57618         36.2678         3.57881 
        2.59189         35.8115         3.52554 
        2.60758         35.3648         3.47344 
        2.62325         35.3149         3.42246 
        2.63898         34.7793         3.37232 
        2.65468         34.3869         3.32329 
        2.67044         34.1416         3.27503 
        2.68618         33.8222         3.22784 
        2.70184         33.3457         3.18177 
        2.71755         33.0909         3.13648 
        2.73329         32.6119           3.092 
        2.74897         32.3277         3.04853 
        2.76462         31.9615           3.006 
        2.78034         31.7501          2.9641 
        2.79607         31.3376         2.92295 
        2.81179         31.1051         2.88263 
        2.82749           30.77         2.84312 
        2.84321         30.4264         2.80431 
        2.85893         30.1367         2.76623 
        2.87462         29.9007         2.72893 
        2.89033         29.5744         2.69227 
        2.90605         29.3555         2.65626 
        2.92176          29.136         2.62093 
        2.93747         28.7586         2.58626 
        2.95318         28.4936         2.55221 
        2.96891          28.258         2.51875 
        2.98456         27.9211         2.48605 
        3.00023         27.5806         2.45387 
        3.01596         27.3577         2.42217 
        3.03164         27.0556         2.39112 
        3.04738         26.8768         2.36052 
         3.0631         26.6357         2.33046 
        3.07883         26.2595         2.30093 
        3.09456         25.9907         2.27192 
        3.11026         25.7328         2.24345 
        3.12596         25.4584         2.21547 
        3.14163         25.2457         2.18803 
        3.15734         25.0606         2.16099 
        3.17308         24.7327         2.13435 
        3.18879          24.563         2.10822 
        3.20447          24.308         2.08258 
         3.2202         24.0226         2.05728 
         3.2359         23.8329         2.03244 
        3.25157         23.6459         2.00807 
        3.26729         23.4624         1.98403 
        3.28304         23.1385         1.96034 
        3.29877         22.9282         1.93706 
        3.31446         22.7566         1.91422 
        3.33014         22.5215         1.89176 
        3.34585          22.366         1.86962 
        3.36158         22.0931         1.84781 
        3.37727          21.895         1.82642 
        3.39294         21.7343         1.80538 
        3.40867         21.5273          1.7846 
        3.42439          21.307         1.76415 
        3.44008         21.0667         1.74407 
        3.45578         20.9458         1.72428 
        3.47153          20.697         1.70476 
        3.48724         20.5963         1.68558 
        3.50292         20.3436         1.66673 
        3.51859         20.1891         1.64818 
        3.53431         20.0245         1.62986 
        3.55007         19.7955         1.61177 
        3.56577         19.6514         1.59402 
        3.58146         19.4266         1.57655 
        3.59719         19.2562          1.5593 
        3.61292         19.1013         1.54232 
        3.62859         18.8738         1.52565 
        3.64429         18.6752          1.5092 
        3.66003         18.6312         1.49293 
        3.67578          18.449         1.47692 
        3.69146         18.2143          1.4612 
        3.70712         18.0654         1.44574 
        3.72284         17.9202         1.43044 
        3.73853         17.7743         1.41539 
        3.75422         17.6136         1.40055 
        3.76993         17.4426         1.38591 
        3.78564         17.3078         1.37149 
        3.80137         17.1455         1.35725 
        3.81707         16.9951         1.34324 
        3.83279         16.8055         1.32942 
        3.84853          16.666         1.31577 
        3.86424         16.5098         1.30233 
        3.87992         16.3745         1.28911 
        3.89561         16.2512         1.27606 
        3.91134          16.109         1.26318 
        3.92704         15.9916         1.25048 
        3.94273         15.8607         1.23797 
        3.95845         15.6663         1.22561 
        3.97418         15.5321         1.21342 
        3.98988          15.412          1.2014 
        4.00554         15.3281         1.18959 
        4.02125         15.1147         1.17789 
        4.03698         14.9809         1.16634 
        4.05268          14.917         1.15497 
        4.06839         14.7586         1.14374 
         4.0841         14.6516         1.13267 
        4.09983         14.4515         1.12172 
        4.11555         14.4129         1.11092 
        4.13124         14.2908          1.1003 
        4.14693         14.1432         1.08981 
        4.16266         14.0537         1.07942 
        4.17839         13.8979         1.06918 
        4.19408         13.7694          1.0591 
        4.20977         13.6941         1.04914 
        4.22551         13.5562         1.03929 
        4.24123         13.4292         1.02957 
        4.25691         13.3168            1.02 
        4.27259         13.2019         1.01055 
        4.28831         13.1454          1.0012 
        4.30404         13.0466        0.991964 
        4.31974         12.9088        0.982862 
        4.33543         12.7728        0.973879 
        4.35116         12.6863        0.964986 
        4.36688         12.5587        0.956208 
        4.38255         12.4869        0.947572 
        4.39825         12.3744        0.939024 
        4.41398         12.2692        0.930564 
         4.4297         12.1578        0.922217 
        4.44541         12.0701        0.913975 
        4.46111          11.978        0.905839 
        4.47683         11.8615        0.897796 
        4.49251         11.7638        0.889867 
        4.50819         11.6676        0.882036 
         4.5239         11.5937        0.874288 
        4.53962         11.5037        0.866623 
        4.55535         11.3945        0.859047 
        4.57106         11.3334        0.851571 
        4.58678         11.2216        0.844183 
         4.6025          11.134        0.836881 
        4.61821         11.0396        0.829667 
        4.63391         10.9676        0.822547 
         4.6496         10.8773        0.815513 
        4.66532         10.7994        0.808551 
        4.68103         10.6913        0.801673 
        4.69673         10.5976        0.794881 
        4.71241          10.534        0.788175 
        4.72811         10.4566        0.781535 
        4.74384         10.3444        0.774963 
        4.75955         10.2886        0.768476 
        4.77525         10.2016        0.762068 
        4.79096         10.1457        0.755724 
        4.80669         10.0382         0.74945 
         4.8224          9.9648        0.743254 
        4.83809         9.88082        0.737135 
        4.85379         9.81549         0.73108 
         4.8695         9.72851        0.725089 
        4.88521         9.64371        0.719167 
        4.90093         9.58469        0.713311 
        4.91663         9.48682        0.707525 
        4.93234         9.43989        0.701797 
        4.94807          9.3437        0.696128 
        4.96377         9.29938        0.690533 
        4.97943         9.21073        0.685011 
        4.99514         9.13148        0.679535 
        5.01086         9.10356        0.674115 
        5.02654         9.01801        0.668768 
        5.04227         8.92868        0.663462 
          5.058         8.86242        0.658212 
        5.07371         8.79768        0.653029 
        5.08942         8.74344        0.647901 
        5.10513         8.66011        0.642828 
        5.12084          8.6307        0.637806 
        5.13656         8.54541        0.632839 
        5.15225          8.4652        0.627933 
        5.16796          8.4155        0.623071 
        5.18369         8.34521        0.618257 
         5.1994         8.29614        0.613502 
        5.21509         8.24338        0.608801 
        5.23079         8.16598        0.604143 
        5.24649         8.09681        0.599539 
        5.26217          8.0498        0.594985 
        5.27788         7.99998        0.590472 
        5.29359          7.9335        0.586005 
        5.30933         7.87419        0.581578 
        5.32504         7.83137        0.577204 
        5.34073         7.77513        0.572879 
        5.35646         7.69482        0.568591 
        5.37218         7.64965        0.564345 
        5.38789         7.57383         0.56015 
        5.40357          7.5397        0.556002 
        5.41929         7.49058        0.551886 
        5.43502         7.43399        0.547812 
         5.4507         7.38298        0.543789 
        5.46639         7.32925        0.539805 
        5.48212         7.27312        0.535852 
        5.49786         7.23594        0.531934 
        5.51353         7.18525        0.528075 
        5.52921           7.122         0.52425 
        5.54495         7.06465        0.520451 
        5.56066         7.01271        0.516694 
        5.57637         6.98661        0.512975 
        5.59207         6.93227        0.509296 
        5.60778         6.87332        0.505651 
        5.62346         6.82657        0.502047 
        5.63916         6.79195        0.498475 
        5.65487         6.74959        0.494936 
         5.6706         6.69595        0.491427 
        5.68633         6.65559         0.48795 
        5.70203         6.60407        0.484514 
        5.71773         6.56539        0.481112 
        5.73344         6.51476        0.477741 
        5.74916         6.45614        0.474399 
        5.76486         6.42579        0.471094 
        5.78054          6.3694        0.467825 
        5.79626         6.32707        0.464578 
          5.812         6.29248        0.461358 
         5.8277         6.24231        0.458178 
        5.84339         6.20899        0.455029 
        5.85911         6.15496        0.451902 
        5.87484         6.12877        0.448806 
        5.89053         6.07826        0.445745 
        5.90623          6.0487        0.442711 
        5.92195          5.9986          0.4397 
        5.93767         5.96508        0.436718 
        5.95336         5.91108        0.433769 
        5.96905         5.88333        0.430849 
        5.98476         5.84607        0.427951 
        6.00048          5.8038        0.425079 
        6.01617         5.76241        0.422237 
        6.03185          5.7315        0.419424 
        6.04756         5.69115        0.416631 
        6.06331          5.6542        0.413856 
        6.07903         5.60723        0.411113 
        6.09473         5.57907        0.408397 
        6.11044         5.53673        0.405704 
        6.12616         5.49823        0.403035 
        6.14186         5.46714        0.400392 
        6.15755         5.44236        0.397774 
        6.17326         5.39805        0.395177 
        6.18898         5.36248        0.392602 
        6.20467         5.32708        0.390054 
        6.22036         5.29899        0.387529 
         6.2361         5.26304         0.38502 
         6.2518         5.22309        0.382537 
        6.26748         5.19363        0.380081 
        6.28319         5.16364         0.37764 
        6.29893         5.12767        0.375218 
        6.31463         5.11158        0.372822 
        6.33033         5.05848        0.370447 
        6.34604         5.03425        0.368092 
        6.36177         4.99925        0.365754 
        6.37747         4.96906        0.363442 
