# k  (h/Mpc)    Pcb(k)  (Mpc/h)^3    Pcb_linear(k) (Mpc/h)^3   ShotnoiseSubtracted = true
      0.0200456         23416.8         23838.9 
      0.0350414         17885.2           17330 
      0.0492313         12297.3         12591.7 
      0.0637834         9910.68         10467.4 
      0.0800726         7773.47         8307.68 
       0.096163         6267.92         6027.94 
       0.111083         5105.01         4808.04 
       0.126058         4217.26          4260.9 
       0.142273         3701.51         3609.92 
       0.158546         3036.51         2851.08 
        0.17375         2723.03         2402.03 
       0.188953         2589.46         2174.99 
       0.204907         2228.28         1924.42 
       0.220756         2017.69         1628.18 
        0.23588         1801.57         1416.37 
         0.2514         1634.84         1286.76 
       0.267535         1574.84          1164.3 
       0.283568         1407.37         1026.75 
       0.299022          1340.7         914.784 
       0.314451         1397.95         836.051 
       0.330372         1242.37         766.983 
       0.346141         1140.49         696.154 
       0.361624          1093.9         632.708 
       0.377134         1050.85         582.192 
       0.392932         999.332          538.69 
       0.408854         959.884         496.569 
       0.424564         939.709         457.694 
       0.440253         873.957         424.336 
       0.455999         835.396         395.329 
       0.471626         848.537         368.672 
        0.48727         801.392         343.736 
       0.502856         773.028         321.335 
       0.518488         746.951         301.347 
       0.534347          719.86         282.766 
       0.550082         686.433         265.633 
       0.565732          675.23         249.958 
       0.581496         660.705         235.602 
       0.597222         648.167         222.437 
       0.612804         631.812          210.33 
       0.628434         605.834         199.046 
       0.644267         589.564         188.496 
       0.660051         583.155         178.773 
       0.675724         571.448         169.795 
       0.691403         553.156         161.426 
       0.707174         537.527         153.573 
       0.722871         532.762         146.275 
        0.73838         519.549         139.528 
       0.754018         507.896         133.157 
       0.769845         500.952         127.114 
        0.78569         489.917         121.441 
       0.801365         473.805          116.17 
       0.817031         469.391         111.217 
       0.832809         461.751         106.523 
       0.848511           454.2         102.122 
       0.864097         444.295         98.0017 
       0.879701             444         94.1055 
       0.895507         426.255         90.3761 
       0.911279         420.859         86.8576 
        0.92691         415.314         83.5563 
       0.942635         409.964         80.4092 
       0.958396           397.4         77.4183 
       0.974128         391.621         74.5855 
       0.989692         381.028         71.9231 
        1.00528         376.849         69.3873 
        1.02113         370.373         66.9345 
        1.03692         364.818         64.6098 
        1.05264         359.699         62.4067 
        1.06832         351.412         60.3102 
        1.08405         350.093         58.3047 
        1.09979         342.085         56.3897 
        1.11537         333.371           54.58 
        1.13105         329.564         52.8392 
        1.14679         323.698         51.1679 
        1.16256         321.866         49.5659 
        1.17828         316.554          48.038 
        1.19395         308.482         46.5799 
         1.2097         306.061         45.1752 
        1.22537         301.246         43.8353 
          1.241         294.663         42.5541 
        1.25666         291.762          41.321 
        1.27241          287.97         40.1312 
        1.28819         280.732         38.9864 
        1.30392         280.637         37.8897 
        1.31957         272.972         36.8402 
        1.33529         269.214         35.8268 
        1.35108         267.863         34.8475 
        1.36674         260.665          33.912 
         1.3824         257.615         33.0118 
        1.39811         254.481         32.1414 
        1.41389         248.861         31.2991 
        1.42964         245.475         30.4885 
        1.44531         242.626         29.7107 
        1.46101         238.165         28.9584 
        1.47667         235.596         28.2345 
        1.49229         232.328         27.5373 
        1.50793         228.631          26.863 
        1.52367         224.964         26.2069 
        1.53953         221.402         25.5684 
        1.55526         218.706         24.9564 
        1.57092         216.831         24.3669 
        1.58662         211.943         23.7951 
        1.60235         209.359         23.2406 
        1.61809         207.326         22.7036 
        1.63369         203.331         22.1883 
        1.64941         200.397         21.6854 
        1.66519         197.693         21.1962 
        1.68085         194.156         20.7257 
        1.69652         192.162         20.2693 
        1.71228         189.224         19.8242 
        1.72806         187.058          19.392 
        1.74368          184.63         18.9772 
        1.75933         183.261         18.5736 
        1.77505         180.322         18.1799 
        1.79081         177.071          17.797 
         1.8065         176.045         17.4267 
        1.82218         171.486         17.0673 
        1.83797         170.233         16.7156 
        1.85367         167.727         16.3758 
        1.86928         165.129         16.0475 
        1.88497         163.491         15.7264 
        1.90073         161.921         15.4129 
        1.91647         158.853         15.1083 
        1.93218         156.317         14.8126 
        1.94787           154.4         14.5252 
        1.96363          153.58         14.2443 
        1.97935         151.676         13.9714 
        1.99499         149.218         13.7073 
        2.01064         146.156         13.4496 
         2.0264         145.676         13.1969 
        2.04216         142.962         12.9508 
        2.05781         140.651         12.7126 
        2.07353         139.877         12.4795 
        2.08928         138.023         12.2518 
        2.10499         136.392         12.0303 
        2.12065         134.851          11.815 
        2.13633         132.817         11.6048 
        2.15211         130.789         11.3984 
        2.16785         129.484         11.1976 
        2.18349         128.068         11.0028 
        2.19916         126.157         10.8123 
        2.21489         124.463         10.6257 
        2.23063         122.977         10.4434 
         2.2463         121.224         10.2661 
        2.26194         120.235         10.0934 
        2.27765         118.224         9.92386 
        2.29341          117.26         9.75774 
        2.30914         115.809         9.59576 
        2.32486          114.02         9.43755 
        2.34061         112.439         9.28265 
        2.35635         111.641         9.13137 
        2.37203         109.824         8.98398 
        2.38768         108.971         8.84016 
        2.40339         106.885         8.69896 
        2.41914          105.85         8.56053 
        2.43483         104.947         8.42559 
         2.4505         103.741          8.2938 
        2.46622         101.937         8.16437 
        2.48195         101.059          8.0377 
        2.49759         99.4604         7.91439 
        2.51328         98.4939         7.79335 
        2.52906         97.5659         7.67408 
        2.54479         96.1942         7.55775 
        2.56049         94.8695         7.44406 
        2.57618         93.8752          7.3328 
        2.59189         93.2451         7.22366 
        2.60758         91.6317         7.11691 
        2.62325         91.0234         7.01244 
        2.63898         89.8319         6.90971 
        2.65468         88.9847         6.80926 
        2.67044         88.0343         6.71037 
        2.68618         86.5958         6.61368 
        2.70184         85.6961         6.51928 
        2.71755         85.0423         6.42648 
        2.73329          83.578         6.33535 
        2.74897         82.7674         6.24629 
        2.76462         82.4592         6.15913 
        2.78034         81.0466         6.07328 
        2.79607         79.9364         5.98898 
        2.81179         79.2392         5.90637 
        2.82749          78.592         5.82541 
        2.84321         77.3465         5.74589 
        2.85893         76.1661         5.66787 
        2.87462         75.7874         5.59143 
        2.89033         74.8311         5.51633 
        2.90605         73.9707         5.44255 
        2.92176         73.4093         5.37015 
        2.93747         72.4864         5.29911 
        2.95318         71.3764         5.22934 
        2.96891         70.9676          5.1608 
        2.98456         69.8619         5.09378 
        3.00023          69.243         5.02786 
        3.01596         68.6329          4.9629 
        3.03164         67.7792         4.89927 
        3.04738         67.4238         4.83658 
         3.0631         66.2556           4.775 
        3.07883         65.7559         4.71449 
        3.09456         64.8244         4.65504 
        3.11026          64.472         4.59671 
        3.12596         63.5843         4.53938 
        3.14163         62.9819         4.48316 
        3.15734         62.0511         4.42776 
        3.17308         61.6727         4.37317 
        3.18879          61.023         4.31964 
        3.20447         60.4607         4.26709 
         3.2202         59.5078         4.21525 
         3.2359         58.9563         4.16437 
        3.25157         58.5873         4.11444 
        3.26729         57.8217         4.06518 
        3.28304         57.0786         4.01663 
        3.29877         56.7165         3.96894 
        3.31446         55.8763         3.92213 
        3.33014         55.4809         3.87611 
        3.34585         54.8983         3.83076 
        3.36158         54.4961         3.78607 
        3.37727         53.9731         3.74223 
        3.39294         53.2777         3.69913 
        3.40867         52.8687         3.65655 
        3.42439         52.2546         3.61466 
        3.44008          51.726         3.57351 
        3.45578         51.1835         3.53297 
        3.47153         50.6984         3.49297 
        3.48724         50.2806         3.45366 
        3.50292         49.7816         3.41504 
        3.51859         49.2892         3.37704 
        3.53431         48.7136         3.33949 
        3.55007         48.1517         3.30242 
        3.56577         47.6764         3.26607 
        3.58146         47.2118         3.23027 
        3.59719         46.8591         3.19493 
        3.61292         46.2395         3.16013 
        3.62859         45.9105         3.12598 
        3.64429         45.5112         3.09226 
        3.66003         45.1348         3.05895 
        3.67578         44.5572         3.02613 
        3.69146         44.2091         2.99392 
        3.70712          43.856         2.96224 
        3.72284         43.3831         2.93089 
        3.73853         42.9848         2.90006 
        3.75422         42.5528         2.86966 
        3.76993         42.1911         2.83967 
        3.78564         41.7851         2.81011 
        3.80137          41.439         2.78093 
        3.81707         40.9337         2.75223 
        3.83279         40.6253          2.7239 
        3.84853         40.2257         2.69593 
        3.86424         39.8319         2.66841 
        3.87992         39.4052         2.64131 
        3.89561         39.1498         2.61459 
        3.91134          38.747         2.58818 
        3.92704         38.3964         2.56217 
        3.94273         38.0812         2.53654 
        3.95845         37.6271         2.51121 
        3.97418         37.3606         2.48623 
        3.98988         37.0331         2.46161 
        4.00554         36.5774          2.4374 
        4.02125         36.3804         2.41345 
        4.03698         35.9761         2.38977 
        4.05268         35.7242         2.36647 
        4.06839         35.4245         2.34347 
         4.0841         35.1186         2.32077 
        4.09983         34.7229         2.29835 
        4.11555         34.5033         2.27623 
        4.13124         34.0333         2.25446 
        4.14693         33.8411         2.23296 
        4.16266         33.5686         2.21168 
        4.17839         33.1816          2.1907 
        4.19408         32.9295         2.17004 
        4.20977         32.6619         2.14963 
        4.22551         32.3666         2.12944 
        4.24123         32.1117         2.10953 
        4.25691         31.7843         2.08993 
        4.27259         31.5259         2.07057 
        4.28831         31.3119         2.05141 
        4.30404         31.0357         2.03248 
        4.31974          30.747         2.01383 
        4.33543         30.4478         1.99543 
        4.35116           30.21         1.97721 
        4.36688         29.9072         1.95922 
        4.38255         29.7462         1.94153 
        4.39825         29.4847         1.92401 
        4.41398         29.2217         1.90668 
         4.4297         28.9261         1.88958 
        4.44541         28.7791         1.87269 
        4.46111         28.3921         1.85602 
        4.47683         28.2971         1.83954 
        4.49251         28.0537         1.82329 
        4.50819         27.7611         1.80725 
         4.5239         27.4784         1.79137 
        4.53962         27.2844         1.77567 
        4.55535         27.0929         1.76014 
        4.57106         26.7714         1.74483 
        4.58678         26.6225         1.72969 
         4.6025          26.434         1.71473 
        4.61821         26.1927         1.69994 
        4.63391         25.9956         1.68536 
         4.6496         25.7166         1.67094 
        4.66532         25.5436         1.65668 
        4.68103         25.3175         1.64259 
        4.69673         25.1633         1.62867 
        4.71241         24.9334         1.61493 
        4.72811         24.7471         1.60132 
        4.74384           24.61         1.58786 
        4.75955           24.42         1.57457 
        4.77525         24.1385         1.56144 
        4.79096         23.9231         1.54844 
        4.80669         23.7595         1.53558 
         4.8224         23.6094         1.52289 
        4.83809         23.3545         1.51035 
        4.85379         23.2093         1.49795 
         4.8695         23.0104         1.48567 
        4.88521         22.8192         1.47354 
        4.90093          22.682         1.46154 
        4.91663         22.4999         1.44968 
        4.93234         22.2618         1.43795 
        4.94807          22.075         1.42633 
        4.96377         21.9352         1.41487 
        4.97943         21.8033         1.40355 
        4.99514         21.6556         1.39233 
        5.01086         21.4529         1.38123 
        5.02654         21.2745         1.37027 
        5.04227         21.1008          1.3594 
          5.058         20.8908         1.34864 
        5.07371          20.767         1.33802 
        5.08942         20.5566         1.32752 
        5.10513         20.4824         1.31712 
        5.12084         20.3067         1.30683 
        5.13656         20.1603         1.29665 
        5.15225         20.0546          1.2866 
        5.16796         19.8539         1.27664 
        5.18369         19.6879         1.26678 
         5.1994         19.4996         1.25703 
        5.21509         19.3863          1.2474 
        5.23079         19.2478         1.23786 
        5.24649          19.113         1.22842 
        5.26217         18.9438         1.21909 
        5.27788         18.8313         1.20985 
        5.29359         18.6541         1.20069 
        5.30933         18.5027         1.19162 
        5.32504         18.3782         1.18266 
        5.34073         18.2288          1.1738 
        5.35646         18.0759         1.16501 
        5.37218         17.9766         1.15631 
        5.38789         17.8461         1.14772 
        5.40357         17.7001         1.13922 
        5.41929         17.5912         1.13079 
        5.43502         17.4536         1.12244 
         5.4507         17.2974          1.1142 
        5.46639         17.1735         1.10603 
        5.48212         17.0442         1.09793 
        5.49786         16.9203         1.08991 
        5.51353         16.8121           1.082 
        5.52921         16.6697         1.07416 
        5.54495         16.5595         1.06638 
        5.56066         16.4355         1.05868 
        5.57637         16.2964         1.05106 
        5.59207         16.1761         1.04352 
        5.60778         16.1396         1.03605 
        5.62346          15.962         1.02867 
        5.63916         15.8468         1.02135 
        5.65487         15.7034          1.0141 
         5.6706         15.6326         1.00691 
        5.68633         15.5313        0.999785 
        5.70203         15.4074        0.992745 
        5.71773         15.3067        0.985775 
        5.73344         15.2049        0.978867 
        5.74916         15.0768        0.972019 
        5.76486         14.9633        0.965247 
        5.78054          14.844        0.958549 
        5.79626         14.7847        0.951895 
          5.812         14.6717        0.945299 
         5.8277          14.527        0.938784 
        5.84339         14.4315         0.93233 
        5.85911         14.3564        0.925925 
        5.87484         14.2285         0.91958 
        5.89053         14.1261        0.913308 
        5.90623           14.04        0.907092 
        5.92195         13.9193        0.900922 
        5.93767         13.8424        0.894813 
        5.95336         13.7447        0.888771 
        5.96905         13.6441        0.882787 
        5.98476         13.5631        0.876849 
        6.00048         13.4527        0.870964 
        6.01617         13.3938        0.865141 
        6.03185         13.2858        0.859379 
        6.04756          13.204        0.853654 
        6.06331         13.1133         0.84797 
        6.07903         12.9783         0.84235 
        6.09473         12.9078        0.836785 
        6.11044         12.8381        0.831266 
        6.12616         12.7626        0.825797 
        6.14186         12.6855        0.820383 
        6.15755         12.5621        0.815018 
        6.17326         12.4799        0.809697 
        6.18898         12.3878         0.80442 
        6.20467         12.2936          0.7992 
        6.22036         12.2264        0.794027 
         6.2361         12.1248        0.788885 
         6.2518          12.053        0.783798 
        6.26748         12.0025        0.778766 
        6.28319         11.8978        0.773765 
        6.29893         11.8305        0.768803 
        6.31463         11.7581        0.763893 
        6.33033         11.6747        0.759028 
        6.34604         11.5867        0.754201 
        6.36177         11.5209        0.749412 
        6.37747          11.447        0.744673 
