# k  (h/Mpc)    Pcb(k)  (Mpc/h)^3    Pcb_linear(k) (Mpc/h)^3   ShotnoiseSubtracted = true
      0.0200456         5636.68         5730.23 
      0.0350414         4087.28         4165.68 
      0.0492313          3020.8         3026.71 
      0.0637834         2557.96         2516.07 
      0.0800726         2026.99         1996.95 
       0.096163         1430.32         1448.96 
       0.111083         1134.65         1155.73 
       0.126058         1037.41         1024.21 
       0.142273         892.337          867.73 
       0.158546         725.419         685.325 
        0.17375         588.793         577.385 
       0.188953          557.05         522.809 
       0.204907         519.409          462.58 
       0.220756         435.205          391.37 
        0.23588          380.47         340.458 
         0.2514         336.214         309.303 
       0.267535         317.713         279.866 
       0.283568         286.952         246.804 
       0.299022         263.586          219.89 
       0.314451         240.394         200.964 
       0.330372         223.036         184.362 
       0.346141         200.917         167.337 
       0.361624         190.272         152.086 
       0.377134         178.837         139.943 
       0.392932          162.54         129.487 
       0.408854         156.058         119.362 
       0.424564         149.408         110.018 
       0.440253          139.76         101.999 
       0.455999         131.541         95.0266 
       0.471626         121.673          88.619 
        0.48727         117.934         82.6251 
       0.502856         112.419         77.2404 
       0.518488         108.767         72.4359 
       0.534347         104.175         67.9694 
       0.550082         96.1503          63.851 
       0.565732         91.9949         60.0833 
       0.581496         88.6579         56.6326 
       0.597222         85.7525         53.4678 
       0.612804         81.2524         50.5578 
       0.628434         79.3921         47.8454 
       0.644267          76.834         45.3095 
       0.660051         74.4256         42.9723 
       0.675724         71.4051         40.8142 
       0.691403          69.271         38.8024 
       0.707174         67.0075          36.915 
       0.722871         65.0982         35.1606 
        0.73838         63.5466         33.5389 
       0.754018         60.4399         32.0073 
       0.769845         59.1623         30.5547 
        0.78569         57.5958         29.1911 
       0.801365         55.5899         27.9242 
       0.817031         54.1314         26.7337 
       0.832809         53.3424         25.6054 
       0.848511         50.6877         24.5475 
       0.864097         49.5974          23.557 
       0.879701         48.8322         22.6205 
       0.895507         48.0732          21.724 
       0.911279         46.7685         20.8783 
        0.92691         45.5947         20.0847 
       0.942635         43.9938         19.3282 
       0.958396         43.7462         18.6093 
       0.974128         42.5147         17.9284 
       0.989692           41.83         17.2884 
        1.00528         40.9235         16.6789 
        1.02113         39.6566         16.0893 
        1.03692         38.8682         15.5305 
        1.05264         38.3911         15.0009 
        1.06832         37.4072          14.497 
        1.08405         36.8566         14.0149 
        1.09979         36.1725         13.5546 
        1.11537         35.0174         13.1196 
        1.13105         35.0432         12.7011 
        1.14679         34.4769         12.2994 
        1.16256         33.5009         11.9143 
        1.17828         32.9378         11.5471 
        1.19395         32.3242         11.1966 
         1.2097         32.0343         10.8589 
        1.22537         31.5529         10.5369 
          1.241         30.8436         10.2289 
        1.25666         30.0971         9.93248 
        1.27241         29.8536         9.64648 
        1.28819         29.0371         9.37129 
        1.30392         28.7825         9.10768 
        1.31957         28.5744         8.85541 
        1.33529         28.2775          8.6118 
        1.35108         27.6426         8.37643 
        1.36674         27.1602         8.15155 
         1.3824         26.6152         7.93517 
        1.39811         26.4567         7.72594 
        1.41389         26.1217         7.52348 
        1.42964         25.6376         7.32864 
        1.44531         25.4935         7.14167 
        1.46101          24.845         6.96084 
        1.47667         24.6304         6.78683 
        1.49229         24.4087         6.61925 
        1.50793         24.0526         6.45715 
        1.52367          23.799         6.29945 
        1.53953         23.5437         6.14597 
        1.55526         23.0862         5.99885 
        1.57092         22.7984         5.85716 
        1.58662         22.5319         5.71972 
        1.60235         22.2757         5.58643 
        1.61809         22.0108         5.45734 
        1.63369         21.7577         5.33348 
        1.64941           21.34         5.21259 
        1.66519         21.2613         5.09501 
        1.68085         20.9157         4.98191 
        1.69652         20.6783         4.87221 
        1.71228         20.4977         4.76521 
        1.72806         20.2302         4.66133 
        1.74368         19.9591         4.56161 
        1.75933         19.7556          4.4646 
        1.77505         19.5603         4.36997 
        1.79081         19.2835         4.27792 
         1.8065         19.1932         4.18892 
        1.82218         18.8774         4.10253 
        1.83797         18.6108           4.018 
        1.85367         18.4499         3.93631 
        1.86928         18.3016          3.8574 
        1.88497          18.015         3.78021 
        1.90073         18.0215         3.70486 
        1.91647          17.715         3.63164 
        1.93218         17.5525         3.56055 
        1.94787         17.4272         3.49147 
        1.96363         17.2671         3.42395 
        1.97935         17.0739         3.35836 
        1.99499         16.8399         3.29487 
        2.01064         16.7039         3.23292 
         2.0264         16.4818         3.17218 
        2.04216         16.3419         3.11303 
        2.05781          16.115         3.05577 
        2.07353          15.981         2.99974 
        2.08928         15.8681           2.945 
        2.10499         15.6678         2.89177 
        2.12065         15.4385         2.84002 
        2.13633         15.4327         2.78949 
        2.15211         15.1782         2.73987 
        2.16785         15.1558          2.6916 
        2.18349         15.0041         2.64479 
        2.19916         14.8024         2.59899 
        2.21489         14.6916         2.55414 
        2.23063          14.527         2.51031 
         2.2463         14.3806          2.4677 
        2.26194         14.2784          2.4262 
        2.27765         14.1661         2.38543 
        2.29341         14.0006          2.3455 
        2.30914         13.8261         2.30657 
        2.32486         13.8004         2.26854 
        2.34061         13.6338          2.2313 
        2.35635         13.4782         2.19494 
        2.37203          13.422         2.15951 
        2.38768         13.2606         2.12494 
        2.40339         13.0801           2.091 
        2.41914         12.9929         2.05772 
        2.43483         12.9292         2.02529 
         2.4505         12.7876         1.99361 
        2.46622          12.684          1.9625 
        2.48195          12.584         1.93205 
        2.49759         12.4773         1.90241 
        2.51328         12.3323         1.87332 
        2.52906         12.2316         1.84465 
        2.54479         12.1317         1.81668 
        2.56049         12.0771         1.78935 
        2.57618         11.9816         1.76261 
        2.59189         11.8043         1.73638 
        2.60758         11.7704         1.71072 
        2.62325          11.703         1.68561 
        2.63898         11.5093         1.66091 
        2.65468         11.4463         1.63677 
        2.67044         11.3401           1.613 
        2.68618         11.2313         1.58975 
        2.70184         11.1523         1.56706 
        2.71755         11.0455         1.54476 
        2.73329         10.9318         1.52285 
        2.74897         10.8635         1.50144 
        2.76462          10.845         1.48049 
        2.78034         10.6446         1.45986 
        2.79607         10.5956         1.43959 
        2.81179         10.4928         1.41973 
        2.82749         10.4602         1.40028 
        2.84321         10.3265         1.38116 
        2.85893         10.2633          1.3624 
        2.87462         10.2019         1.34403 
        2.89033         10.0589         1.32598 
        2.90605         9.99281         1.30824 
        2.92176         9.94562         1.29084 
        2.93747         9.84375         1.27377 
        2.95318         9.78973           1.257 
        2.96891         9.69899         1.24052 
        2.98456         9.60944         1.22441 
        3.00023          9.5536         1.20856 
        3.01596         9.47235         1.19295 
        3.03164         9.42864         1.17766 
        3.04738         9.33476         1.16258 
         3.0631         9.22856         1.14778 
        3.07883         9.18143         1.13324 
        3.09456         9.12949         1.11895 
        3.11026         9.01155         1.10493 
        3.12596         8.99408         1.09115 
        3.14163         8.89199         1.07763 
        3.15734         8.82851         1.06432 
        3.17308         8.78234         1.05119 
        3.18879         8.69668         1.03833 
        3.20447         8.61984          1.0257 
         3.2202         8.55497         1.01323 
         3.2359         8.51421           1.001 
        3.25157         8.44599        0.989002 
        3.26729         8.38739        0.977162 
        3.28304         8.29268        0.965492 
        3.29877         8.23061        0.954029 
        3.31446          8.1987        0.942776 
        3.33014         8.09904        0.931715 
        3.34585         8.08171        0.920814 
        3.36158         8.00889        0.910071 
        3.37727         7.95443        0.899533 
        3.39294         7.90784        0.889172 
        3.40867         7.78948        0.878937 
        3.42439          7.7746        0.868868 
        3.44008         7.70448        0.858977 
        3.45578         7.65397        0.849232 
        3.47153         7.61446        0.839617 
        3.48724         7.54484        0.830168 
        3.50292         7.50455        0.820886 
        3.51859         7.43474         0.81175 
        3.53431         7.37611        0.802725 
        3.55007         7.34554        0.793815 
        3.56577         7.29094        0.785076 
        3.58146         7.22935        0.776471 
        3.59719         7.16673        0.767976 
        3.61292         7.12937        0.759611 
        3.62859         7.06747        0.751402 
        3.64429         7.01726        0.743298 
        3.66003         6.94717         0.73529 
        3.67578         6.92326        0.727402 
        3.69146         6.86358        0.719659 
        3.70712         6.84771        0.712043 
        3.72284         6.74677        0.704509 
        3.73853         6.72987        0.697098 
        3.75422         6.66946         0.68979 
        3.76993         6.64235         0.68258 
        3.78564         6.57977        0.675477 
        3.80137          6.5447        0.668462 
        3.81707         6.48004        0.661563 
        3.83279         6.47857        0.654755 
        3.84853         6.39786        0.648031 
        3.86424         6.33791        0.641416 
        3.87992         6.30987        0.634902 
        3.89561         6.26243        0.628478 
        3.91134         6.21499         0.62213 
        3.92704         6.17835        0.615878 
        3.94273         6.12996        0.609717 
        3.95845         6.09357        0.603629 
        3.97418           6.066        0.597623 
        3.98988         6.00744        0.591707 
        4.00554         5.96731        0.585887 
        4.02125         5.91318        0.580128 
        4.03698         5.88612        0.574438 
        4.05268         5.85217        0.568838 
        4.06839         5.81295        0.563307 
         4.0841         5.76917        0.557852 
        4.09983         5.72535        0.552462 
        4.11555         5.68381        0.547145 
        4.13124         5.64795        0.541912 
        4.14693         5.58539        0.536743 
        4.16266         5.54509         0.53163 
        4.17839         5.51356        0.526587 
        4.19408         5.46924         0.52162 
        4.20977         5.43604        0.516715 
        4.22551         5.39009        0.511861 
        4.24123         5.35682        0.507075 
        4.25691         5.32913        0.502363 
        4.27259         5.28987        0.497709 
        4.28831         5.25113        0.493105 
        4.30404         5.20861        0.488555 
        4.31974         5.18407        0.484072 
        4.33543         5.14209        0.479648 
        4.35116         5.10804        0.475268 
        4.36688          5.0575        0.470945 
        4.38255         5.02146        0.466691 
        4.39825         5.00859        0.462481 
        4.41398         4.96634        0.458315 
         4.4297         4.94183        0.454204 
        4.44541         4.89773        0.450144 
        4.46111         4.88027        0.446137 
        4.47683         4.81847        0.442176 
        4.49251         4.80297        0.438271 
        4.50819           4.766        0.434414 
         4.5239         4.73646        0.430598 
        4.53962         4.71576        0.426823 
        4.55535         4.67761        0.423091 
        4.57106         4.65135         0.41941 
        4.58678         4.61779        0.415771 
         4.6025         4.58639        0.412175 
        4.61821         4.55361        0.408622 
        4.63391         4.53209        0.405115 
         4.6496         4.49451        0.401651 
        4.66532         4.47433        0.398222 
        4.68103         4.42977        0.394834 
        4.69673         4.40944        0.391489 
        4.71241         4.37529        0.388186 
        4.72811         4.35828        0.384916 
        4.74384         4.33515        0.381679 
        4.75955         4.29328        0.378485 
        4.77525         4.26086        0.375328 
        4.79096         4.23731        0.372204 
        4.80669         4.20218        0.369114 
         4.8224         4.18836        0.366062 
        4.83809         4.15836        0.363048 
        4.85379         4.12805        0.360066 
         4.8695         4.10217        0.357116 
        4.88521         4.07995        0.354199 
        4.90093         4.06303        0.351315 
        4.91663         4.02514        0.348465 
        4.93234          4.0045        0.345644 
        4.94807         3.98473        0.342852 
        4.96377         3.94254        0.340096 
        4.97943         3.92414        0.337377 
        4.99514         3.89994         0.33468 
        5.01086         3.87792         0.33201 
        5.02654         3.85189        0.329377 
        5.04227          3.8273        0.326764 
          5.058         3.80572        0.324178 
        5.07371          3.7798        0.321625 
        5.08942         3.75965          0.3191 
        5.10513         3.73686        0.316601 
        5.12084         3.71293        0.314128 
        5.13656         3.69715        0.311681 
        5.15225         3.67552        0.309265 
        5.16796         3.64424        0.306871 
        5.18369         3.62129        0.304499 
         5.1994         3.59831        0.302157 
        5.21509         3.58282        0.299842 
        5.23079           3.555        0.297548 
        5.24649         3.53427         0.29528 
        5.26217          3.5166        0.293038 
        5.27788         3.48679        0.290815 
        5.29359         3.46362        0.288615 
        5.30933         3.45348        0.286435 
        5.32504         3.43135         0.28428 
        5.34073         3.40472        0.282151 
        5.35646         3.39207        0.280038 
        5.37218         3.36708        0.277947 
        5.38789         3.35104        0.275881 
        5.40357         3.33134        0.273838 
        5.41929         3.30407        0.271811 
        5.43502         3.29019        0.269805 
         5.4507         3.27291        0.267823 
        5.46639         3.24585        0.265861 
        5.48212         3.23394        0.263914 
        5.49786         3.21365        0.261984 
        5.51353         3.19151        0.260084 
        5.52921         3.17201          0.2582 
        5.54495         3.15384        0.256329 
        5.56066         3.13608        0.254479 
        5.57637         3.12444        0.252647 
        5.59207         3.10568        0.250835 
        5.60778         3.08797         0.24904 
        5.62346         3.06493        0.247265 
        5.63916         3.04808        0.245505 
        5.65487         3.03209        0.243762 
         5.6706         3.01196        0.242034 
        5.68633          2.9937        0.240322 
        5.70203         2.98346         0.23863 
        5.71773         2.96203        0.236954 
        5.73344         2.94358        0.235294 
        5.74916         2.92684        0.233648 
        5.76486          2.9139         0.23202 
        5.78054         2.88932         0.23041 
        5.79626         2.87953         0.22881 
          5.812         2.86714        0.227225 
         5.8277          2.8507        0.225659 
        5.84339         2.83087        0.224107 
        5.85911         2.81751        0.222568 
        5.87484         2.80697        0.221043 
        5.89053         2.78085        0.219535 
        5.90623         2.76758        0.218041 
        5.92195          2.7556        0.216558 
        5.93767         2.73929        0.215089 
        5.95336         2.72369        0.213637 
        5.96905         2.70889        0.212199 
        5.98476         2.69761        0.210771 
        6.00048         2.68375        0.209357 
        6.01617         2.66278        0.207957 
        6.03185         2.65104        0.206572 
        6.04756         2.63468        0.205196 
        6.06331         2.61898         0.20383 
        6.07903         2.60474        0.202479 
        6.09473           2.597        0.201141 
        6.11044         2.57654        0.199814 
        6.12616         2.56607          0.1985 
        6.14186         2.54885        0.197198 
        6.15755         2.53658        0.195909 
        6.17326         2.52501         0.19463 
        6.18898         2.51012        0.193361 
        6.20467         2.49955        0.192107 
        6.22036          2.4843        0.190863 
         6.2361         2.46982        0.189627 
         6.2518         2.46053        0.188404 
        6.26748         2.44611        0.187195 
        6.28319            2.43        0.185993 
        6.29893         2.42406          0.1848 
        6.31463         2.40761         0.18362 
        6.33033         2.39412         0.18245 
        6.34604         2.38116         0.18129 
        6.36177         2.37212        0.180139 
        6.37747         2.35984           0.179 
