# k  (h/Mpc)    Pcb(k)  (Mpc/h)^3    Pcb_linear(k) (Mpc/h)^3   ShotnoiseSubtracted = true
      0.0200456         230.991         234.119 
      0.0350414         170.152         170.196 
      0.0492313         124.185         123.661 
      0.0637834         103.194         102.799 
      0.0800726          81.792         81.5888 
       0.096163         59.2926         59.1997 
       0.111083         47.1808         47.2192 
       0.126058         41.8838         41.8459 
       0.142273         35.5326         35.4526 
       0.158546         28.1827         28.0002 
        0.17375         23.5712         23.5901 
       0.188953         21.3807         21.3603 
       0.204907         19.1513         18.8995 
       0.220756          16.108         15.9901 
        0.23588         14.0125           13.91 
         0.2514         12.6553         12.6371 
       0.267535         11.4603         11.4344 
       0.283568         10.1405         10.0836 
       0.299022         9.06673         8.98399 
       0.314451          8.1881         8.21076 
       0.330372         7.54866         7.53245 
       0.346141         6.85714         6.83685 
       0.361624         6.25667         6.21376 
       0.377134         5.78104         5.71764 
       0.392932         5.24159         5.29042 
       0.408854         4.92219         4.87674 
       0.424564         4.51234         4.49496 
       0.440253         4.18699         4.16735 
       0.455999         3.92226         3.88248 
       0.471626         3.66947         3.62069 
        0.48727         3.40017         3.37579 
       0.502856         3.16867         3.15579 
       0.518488         3.00717          2.9595 
       0.534347         2.84036         2.77701 
       0.550082         2.62455         2.60875 
       0.565732         2.43885         2.45481 
       0.581496         2.34042         2.31382 
       0.597222         2.21698         2.18452 
       0.612804         2.08297         2.06563 
       0.628434         1.99059         1.95481 
       0.644267         1.87514          1.8512 
       0.660051         1.77156         1.75571 
       0.675724         1.68846         1.66754 
       0.691403         1.61332         1.58534 
       0.707174         1.52732         1.50823 
       0.722871         1.44824         1.43655 
        0.73838         1.39278         1.37029 
       0.754018         1.33809         1.30772 
       0.769845         1.27126         1.24837 
        0.78569          1.2141         1.19265 
       0.801365         1.15814         1.14089 
       0.817031         1.11227         1.09225 
       0.832809         1.06496         1.04615 
       0.848511         1.01617         1.00293 
       0.864097        0.970696        0.962464 
       0.879701        0.931971        0.924199 
       0.895507        0.902085        0.887574 
       0.911279        0.869588        0.853018 
        0.92691        0.833688        0.820597 
       0.942635        0.802034         0.78969 
       0.958396        0.769389        0.760316 
       0.974128        0.741513        0.732496 
       0.989692        0.718285        0.706349 
        1.00528        0.692836        0.681445 
        1.02113        0.662535        0.657356 
        1.03692        0.644893        0.634526 
        1.05264        0.621953        0.612889 
        1.06832        0.602189        0.592299 
        1.08405        0.576846        0.572604 
        1.09979        0.558715        0.553797 
        1.11537        0.545208        0.536024 
        1.13105         0.52729        0.518927 
        1.14679         0.51329        0.502514 
        1.16256        0.491252        0.486781 
        1.17828         0.47688        0.471776 
        1.19395        0.461251        0.457456 
         1.2097        0.445411         0.44366 
        1.22537        0.436501        0.430502 
          1.241        0.422568        0.417919 
        1.25666        0.413501        0.405809 
        1.27241        0.397734        0.394124 
        1.28819        0.386098        0.382881 
        1.30392         0.37618         0.37211 
        1.31957        0.366147        0.361804 
        1.33529        0.354678        0.351851 
        1.35108        0.344735        0.342234 
        1.36674        0.332514        0.333046 
         1.3824        0.328169        0.324205 
        1.39811        0.317436        0.315657 
        1.41389        0.309656        0.307385 
        1.42964        0.302887        0.299425 
        1.44531        0.292135        0.291786 
        1.46101        0.286449        0.284397 
        1.47667        0.276415        0.277288 
        1.49229        0.271671        0.270441 
        1.50793        0.263355        0.263818 
        1.52367        0.257895        0.257375 
        1.53953        0.251527        0.251105 
        1.55526        0.245667        0.245094 
        1.57092        0.237961        0.239305 
        1.58662        0.233564        0.233689 
        1.60235        0.228731        0.228244 
        1.61809        0.220951        0.222969 
        1.63369        0.218575        0.217909 
        1.64941         0.21259        0.212969 
        1.66519        0.207021        0.208166 
        1.68085        0.201661        0.203545 
        1.69652        0.197199        0.199063 
        1.71228        0.193903        0.194691 
        1.72806         0.18789        0.190447 
        1.74368        0.185301        0.186373 
        1.75933        0.180697        0.182409 
        1.77505        0.176486        0.178543 
        1.79081        0.173444        0.174782 
         1.8065        0.168133        0.171146 
        1.82218        0.165461        0.167616 
        1.83797        0.161478        0.164162 
        1.85367         0.15861        0.160825 
        1.86928        0.155475        0.157601 
        1.88497        0.152356        0.154447 
        1.90073         0.14871        0.151369 
        1.91647        0.145733        0.148377 
        1.93218        0.142391        0.145473 
        1.94787        0.139527         0.14265 
        1.96363        0.137019        0.139892 
        1.97935        0.133565        0.137212 
        1.99499        0.131492        0.134618 
        2.01064        0.129087        0.132087 
         2.0264        0.126101        0.129605 
        2.04216        0.124313        0.127188 
        2.05781        0.121629        0.124849 
        2.07353        0.118526         0.12256 
        2.08928         0.11644        0.120323 
        2.10499        0.114137        0.118149 
        2.12065        0.112665        0.116034 
        2.13633        0.109929         0.11397 
        2.15211        0.108627        0.111942 
        2.16785        0.106152         0.10997 
        2.18349         0.10349        0.108057 
        2.19916        0.102735        0.106187 
        2.21489         0.10064        0.104354 
        2.23063       0.0988326        0.102563 
         2.2463       0.0967097        0.100822 
        2.26194       0.0948729       0.0991266 
        2.27765       0.0931379       0.0974611 
        2.29341       0.0919261       0.0958296 
        2.30914       0.0898518       0.0942388 
        2.32486       0.0882846       0.0926851 
        2.34061       0.0869076       0.0911638 
        2.35635       0.0852599       0.0896781 
        2.37203       0.0838237       0.0882307 
        2.38768       0.0823493       0.0868182 
        2.40339        0.080963       0.0854315 
        2.41914       0.0798959        0.084072 
        2.43483       0.0781715       0.0827468 
         2.4505        0.076601       0.0814524 
        2.46622       0.0754278       0.0801814 
        2.48195       0.0740312       0.0789373 
        2.49759       0.0733987       0.0777263 
        2.51328       0.0721914       0.0765376 
        2.52906       0.0707588       0.0753663 
        2.54479       0.0694408       0.0742238 
        2.56049       0.0683968       0.0731072 
        2.57618       0.0672896       0.0720146 
        2.59189       0.0662793       0.0709427 
        2.60758       0.0654929       0.0698943 
        2.62325       0.0641861       0.0688684 
        2.63898       0.0632258       0.0678595 
        2.65468       0.0619357        0.066873 
        2.67044       0.0613979       0.0659018 
        2.68618       0.0603237       0.0649522 
        2.70184       0.0592481       0.0640251 
        2.71755       0.0581326       0.0631137 
        2.73329       0.0575142       0.0622188 
        2.74897       0.0567945       0.0613441 
        2.76462       0.0556847       0.0604881 
        2.78034       0.0549513        0.059645 
        2.79607       0.0540004       0.0588171 
        2.81179       0.0533932       0.0580058 
        2.82749       0.0524172       0.0572107 
        2.84321       0.0516835       0.0564297 
        2.85893       0.0509993       0.0556635 
        2.87462       0.0504813       0.0549128 
        2.89033       0.0495547       0.0541753 
        2.90605       0.0486149       0.0534507 
        2.92176       0.0481667       0.0527397 
        2.93747       0.0474192        0.052042 
        2.95318       0.0466026       0.0513568 
        2.96891       0.0460792       0.0506836 
        2.98456       0.0455259       0.0500255 
        3.00023       0.0447054        0.049378 
        3.01596       0.0441147       0.0487401 
        3.03164        0.043713       0.0481152 
        3.04738       0.0429447       0.0474995 
         3.0631       0.0422351       0.0468947 
        3.07883       0.0416913       0.0463005 
        3.09456       0.0412944       0.0457166 
        3.11026       0.0406253       0.0451437 
        3.12596       0.0402332       0.0445807 
        3.14163         0.03959       0.0440286 
        3.15734       0.0391299       0.0434845 
        3.17308       0.0386218       0.0429484 
        3.18879       0.0380337       0.0424227 
        3.20447        0.037659       0.0419066 
         3.2202       0.0371717       0.0413975 
         3.2359       0.0367572       0.0408978 
        3.25157       0.0361528       0.0404075 
        3.26729       0.0357027       0.0399237 
        3.28304       0.0353789       0.0394469 
        3.29877       0.0349023       0.0389785 
        3.31446       0.0344272       0.0385188 
        3.33014       0.0340923       0.0380669 
        3.34585       0.0336308       0.0376215 
        3.36158       0.0331514       0.0371826 
        3.37727       0.0328664        0.036752 
        3.39294       0.0324948       0.0363287 
        3.40867       0.0320449       0.0359105 
        3.42439       0.0317028       0.0354992 
        3.44008       0.0313226        0.035095 
        3.45578        0.031105       0.0346969 
        3.47153       0.0306168        0.034304 
        3.48724       0.0304481        0.033918 
        3.50292       0.0299406       0.0335387 
        3.51859       0.0295408       0.0331655 
        3.53431       0.0293904       0.0327968 
        3.55007       0.0290138       0.0324327 
        3.56577       0.0287569       0.0320757 
        3.58146       0.0283654       0.0317241 
        3.59719       0.0281456        0.031377 
        3.61292       0.0277649       0.0310353 
        3.62859        0.027482       0.0306999 
        3.64429       0.0272732       0.0303688 
        3.66003       0.0269122       0.0300416 
        3.67578       0.0266876       0.0297193 
        3.69146       0.0264418        0.029403 
        3.70712       0.0262653       0.0290918 
        3.72284       0.0259484        0.028784 
        3.73853       0.0256176       0.0284812 
        3.75422       0.0255322       0.0281826 
        3.76993        0.025164        0.027888 
        3.78564       0.0249722       0.0275978 
        3.80137        0.024697       0.0273112 
        3.81707       0.0244268       0.0270293 
        3.83279       0.0242713       0.0267512 
        3.84853       0.0240631       0.0264765 
        3.86424       0.0238134       0.0262062 
        3.87992       0.0236223         0.02594 
        3.89561       0.0234353       0.0256776 
        3.91134        0.023215       0.0254182 
        3.92704       0.0229538       0.0251628 
        3.94273       0.0227524       0.0249111 
        3.95845       0.0225745       0.0246623 
        3.97418       0.0224001        0.024417 
        3.98988       0.0221386       0.0241752 
        4.00554        0.021909       0.0239374 
        4.02125       0.0216009       0.0237022 
        4.03698       0.0213422       0.0234697 
        4.05268       0.0210607       0.0232409 
        4.06839       0.0207409       0.0230149 
         4.0841       0.0204622        0.022792 
        4.09983       0.0201302       0.0225718 
        4.11555       0.0199353       0.0223546 
        4.13124       0.0196594       0.0221408 
        4.14693       0.0193035       0.0219296 
        4.16266       0.0190728       0.0217207 
        4.17839       0.0188929       0.0215146 
        4.19408       0.0186642       0.0213117 
        4.20977       0.0184259       0.0211113 
        4.22551       0.0181434        0.020913 
        4.24123       0.0179429       0.0207175 
        4.25691       0.0177545       0.0205249 
        4.27259       0.0175416       0.0203348 
        4.28831       0.0174165       0.0201467 
        4.30404       0.0172077       0.0199608 
        4.31974       0.0170634       0.0197776 
        4.33543       0.0169205       0.0195969 
        4.35116       0.0167481       0.0194179 
        4.36688        0.016612       0.0192413 
        4.38255       0.0164328       0.0190675 
        4.39825       0.0163754       0.0188955 
        4.41398       0.0163035       0.0187253 
         4.4297        0.016169       0.0185573 
        4.44541       0.0160411       0.0183914 
        4.46111       0.0159478       0.0182277 
        4.47683        0.015902       0.0180659 
        4.49251       0.0157666       0.0179063 
        4.50819        0.015724       0.0177488 
         4.5239       0.0156224       0.0175929 
        4.53962       0.0156335       0.0174386 
        4.55535       0.0155697       0.0172862 
        4.57106       0.0155717       0.0171357 
        4.58678       0.0154775       0.0169871 
         4.6025       0.0154982       0.0168401 
        4.61821       0.0154878        0.016695 
        4.63391       0.0154424       0.0165517 
         4.6496       0.0154476       0.0164102 
        4.66532       0.0154482       0.0162701 
        4.68103       0.0154728       0.0161317 
        4.69673       0.0155006        0.015995 
        4.71241       0.0155815         0.01586 
        4.72811       0.0155385       0.0157264 
        4.74384       0.0155893       0.0155942 
        4.75955       0.0156868       0.0154637 
        4.77525       0.0157249       0.0153347 
        4.79096       0.0157842       0.0152071 
        4.80669        0.015814       0.0150808 
         4.8224       0.0159846       0.0149561 
        4.83809       0.0160338        0.014833 
        4.85379       0.0161634       0.0147112 
         4.8695       0.0162489       0.0145906 
        4.88521       0.0163722       0.0144714 
        4.90093       0.0164932       0.0143536 
        4.91663       0.0166993       0.0142372 
        4.93234        0.016763       0.0141219 
        4.94807       0.0168214       0.0140078 
        4.96377       0.0170536       0.0138952 
        4.97943       0.0172338       0.0137841 
        4.99514       0.0174016       0.0136739 
        5.01086       0.0175201       0.0135649 
        5.02654       0.0177544       0.0134573 
        5.04227       0.0179721       0.0133505 
          5.058       0.0181559       0.0132449 
        5.07371       0.0182877       0.0131406 
        5.08942       0.0186967       0.0130374 
        5.10513       0.0188825       0.0129353 
        5.12084       0.0190282       0.0128342 
        5.13656       0.0193963       0.0127343 
        5.15225       0.0195881       0.0126356 
        5.16796       0.0199931       0.0125377 
        5.18369        0.020134       0.0124409 
         5.1994       0.0204888       0.0123452 
        5.21509       0.0207959       0.0122506 
        5.23079       0.0210202       0.0121569 
        5.24649       0.0214088       0.0120642 
        5.26217        0.021765       0.0119726 
        5.27788       0.0220819       0.0118818 
        5.29359       0.0225147       0.0117919 
        5.30933       0.0227509       0.0117028 
        5.32504       0.0231766       0.0116148 
        5.34073       0.0237329       0.0115278 
        5.35646       0.0240386       0.0114415 
        5.37218       0.0244512        0.011356 
        5.38789       0.0250181       0.0112716 
        5.40357       0.0254311       0.0111881 
        5.41929       0.0258145       0.0111053 
        5.43502       0.0264067       0.0110233 
         5.4507       0.0267723       0.0109424 
        5.46639       0.0273405       0.0108622 
        5.48212       0.0277569       0.0107827 
        5.49786       0.0283677       0.0107038 
        5.51353       0.0291068       0.0106262 
        5.52921        0.029595       0.0105492 
        5.54495       0.0303236       0.0104728 
        5.56066       0.0308792       0.0103972 
        5.57637       0.0314677       0.0103223 
        5.59207       0.0320873       0.0102483 
        5.60778       0.0328506        0.010175 
        5.62346       0.0335176       0.0101024 
        5.63916       0.0341733       0.0100306 
        5.65487       0.0348418      0.00995934 
         5.6706       0.0355585      0.00988873 
        5.68633       0.0365849      0.00981877 
        5.70203       0.0373573      0.00974964 
        5.71773       0.0381069      0.00968118 
        5.73344       0.0389016      0.00961334 
        5.74916        0.039976      0.00954609 
        5.76486       0.0407925      0.00947958 
        5.78054       0.0417048       0.0094138 
        5.79626       0.0426257      0.00934846 
          5.812       0.0436206      0.00928367 
         5.8277       0.0448075      0.00921969 
        5.84339       0.0455601      0.00915631 
        5.85911       0.0466371       0.0090934 
        5.87484       0.0478666      0.00903109 
        5.89053       0.0491155       0.0089695 
        5.90623       0.0503057      0.00890844 
        5.92195       0.0514832      0.00884785 
        5.93767       0.0528144      0.00878786 
        5.95336       0.0539605      0.00872852 
        5.96905       0.0554361      0.00866975 
        5.98476       0.0564115      0.00861144 
        6.00048       0.0578162      0.00855364 
        6.01617       0.0592506      0.00849646 
        6.03185       0.0606079      0.00843986 
        6.04756       0.0624703      0.00838364 
        6.06331       0.0641336      0.00832782 
        6.07903       0.0654958      0.00827262 
        6.09473        0.067291      0.00821797 
        6.11044       0.0693676      0.00816377 
        6.12616       0.0709253      0.00811006 
        6.14186        0.072806      0.00805689 
        6.15755       0.0745507       0.0080042 
        6.17326       0.0760663      0.00795194 
        6.18898       0.0785272      0.00790012 
        6.20467       0.0804473      0.00784886 
        6.22036       0.0824996      0.00779805 
         6.2361       0.0842439      0.00774755 
         6.2518       0.0872707      0.00769759 
        6.26748       0.0887149      0.00764817 
        6.28319       0.0920604      0.00759906 
        6.29893        0.094461      0.00755033 
        6.31463       0.0965882      0.00750211 
        6.33033       0.0993371      0.00745432 
        6.34604        0.101617      0.00740692 
        6.36177        0.104312      0.00735989 
        6.37747        0.107277      0.00731335 
