# k  (h/Mpc)    Pcb(k)  (Mpc/h)^3    Pcb_linear(k) (Mpc/h)^3   ShotnoiseSubtracted = true
      0.0200456         14319.7         14614.8 
      0.0350414         10250.7         10624.4 
      0.0492313          7621.6         7719.52 
      0.0637834         6544.32         6417.17 
      0.0800726         5173.61         5093.15 
       0.096163         3603.62         3695.52 
       0.111083         2874.45         2947.64 
       0.126058         2650.53         2612.21 
       0.142273         2291.94         2213.12 
       0.158546         1946.13          1747.9 
        0.17375         1557.21          1472.6 
       0.188953         1511.09         1333.41 
       0.204907         1420.11          1179.8 
       0.220756         1215.81         998.178 
        0.23588         1075.13         868.328 
         0.2514         935.938         788.867 
       0.267535         921.826          713.79 
       0.283568         835.768         629.467 
       0.299022         783.493         560.822 
       0.314451         742.078         512.553 
       0.330372         683.489          470.21 
       0.346141         628.974         426.787 
       0.361624         604.784         387.891 
       0.377134         561.299         356.921 
       0.392932         537.944         330.252 
       0.408854         518.541         304.429 
       0.424564         488.172         280.596 
       0.440253         476.966         260.145 
       0.455999         449.888         242.362 
       0.471626         424.639          226.02 
        0.48727         410.465         210.733 
       0.502856         398.159         196.999 
       0.518488          394.22         184.745 
       0.534347         368.669         173.354 
       0.550082          350.94          162.85 
       0.565732         348.939         153.241 
       0.581496         328.833          144.44 
       0.597222         323.243         136.368 
       0.612804         313.296         128.946 
       0.628434         301.256         122.028 
       0.644267         292.537          115.56 
       0.660051         286.682           109.6 
       0.675724         282.049         104.095 
       0.691403         273.605         98.9644 
       0.707174         263.512         94.1505 
       0.722871         260.321         89.6759 
        0.73838         255.928           85.54 
       0.754018         249.088         81.6337 
       0.769845         240.557         77.9289 
        0.78569         240.231         74.4509 
       0.801365         231.776         71.2198 
       0.817031         224.765         68.1834 
       0.832809         222.611         65.3057 
       0.848511         216.591         62.6077 
       0.864097         213.752         60.0814 
       0.879701         209.804         57.6928 
       0.895507         204.534         55.4064 
       0.911279         198.296         53.2493 
        0.92691         198.324         51.2254 
       0.942635          193.22         49.2961 
       0.958396         191.793         47.4624 
       0.974128         187.392         45.7258 
       0.989692         182.983         44.0935 
        1.00528          180.66         42.5389 
        1.02113         179.242         41.0352 
        1.03692         174.075           39.61 
        1.05264         170.649         38.2594 
        1.06832         167.705          36.974 
        1.08405         165.029         35.7446 
        1.09979         163.818         34.5705 
        1.11537         159.253         33.4611 
        1.13105          157.17         32.3938 
        1.14679         156.933         31.3692 
        1.16256         154.113         30.3871 
        1.17828         150.881         29.4504 
        1.19395         148.623         28.5565 
         1.2097         147.562         27.6953 
        1.22537         144.754         26.8739 
          1.241         142.741         26.0884 
        1.25666         140.354         25.3325 
        1.27241         137.907          24.603 
        1.28819         136.392         23.9012 
        1.30392         134.308         23.2288 
        1.31957         133.306         22.5854 
        1.33529         129.718         21.9641 
        1.35108         128.921         21.3638 
        1.36674         127.621         20.7903 
         1.3824         125.094         20.2384 
        1.39811         124.535         19.7048 
        1.41389         122.217         19.1884 
        1.42964         119.624         18.6915 
        1.44531         117.547         18.2146 
        1.46101         116.413         17.7534 
        1.47667         115.019         17.3096 
        1.49229         113.403         16.8822 
        1.50793          112.45         16.4688 
        1.52367         111.009         16.0665 
        1.53953         108.805         15.6751 
        1.55526         107.818         15.2999 
        1.57092         106.538         14.9385 
        1.58662         104.613          14.588 
        1.60235         104.097          14.248 
        1.61809         102.009         13.9188 
        1.63369         101.212         13.6029 
        1.64941         100.312         13.2945 
        1.66519          98.154         12.9947 
        1.68085         97.6168         12.7062 
        1.69652         95.1296         12.4264 
        1.71228         95.3083         12.1535 
        1.72806         93.9051         11.8886 
        1.74368         92.6654         11.6342 
        1.75933         91.3074         11.3868 
        1.77505         90.3149         11.1455 
        1.79081         88.9467         10.9107 
         1.8065         87.9351         10.6837 
        1.82218         86.2962         10.4634 
        1.83797         85.3114         10.2478 
        1.85367          84.483         10.0394 
        1.86928         83.9526         9.83817 
        1.88497         82.2224         9.64132 
        1.90073         81.7186         9.44914 
        1.91647         80.6081         9.26238 
        1.93218          79.467         9.08107 
        1.94787         78.7965         8.90489 
        1.96363         77.4141         8.73269 
        1.97935         76.7013          8.5654 
        1.99499         75.7742         8.40345 
        2.01064         74.9956         8.24546 
         2.0264         73.5683         8.09055 
        2.04216         72.8208         7.93969 
        2.05781         71.9825         7.79364 
        2.07353         70.7003         7.65075 
        2.08928         69.7945         7.51113 
        2.10499         69.2376         7.37537 
        2.12065         68.8001         7.24338 
        2.13633         67.8819         7.11452 
        2.15211         67.0519         6.98796 
        2.16785         66.2703         6.86483 
        2.18349         65.5175         6.74545 
        2.19916         64.6533         6.62865 
        2.21489          63.963         6.51424 
        2.23063         63.4563         6.40246 
         2.2463         62.4924          6.2938 
        2.26194         61.9545         6.18794 
        2.27765          61.294         6.08397 
        2.29341         60.4788         5.98213 
        2.30914         59.5574         5.88282 
        2.32486         58.8054         5.78583 
        2.34061         58.2427         5.69087 
        2.35635         57.7134         5.59812 
        2.37203          56.773         5.50776 
        2.38768         56.2087         5.41959 
        2.40339         55.5116         5.33303 
        2.41914         55.1125         5.24816 
        2.43483          54.782         5.16544 
         2.4505         54.0699         5.08464 
        2.46622         53.4247         5.00529 
        2.48195         52.7649         4.92763 
        2.49759         51.9186         4.85204 
        2.51328         51.4757         4.77783 
        2.52906         51.0753         4.70471 
        2.54479         50.4247         4.63339 
        2.56049         49.7673         4.56369 
        2.57618         49.3606         4.49549 
        2.59189         48.7828         4.42857 
        2.60758         48.4476         4.36313 
        2.62325         47.7657         4.29908 
        2.63898         47.3389          4.2361 
        2.65468         46.8033         4.17452 
        2.67044         46.0421         4.11389 
        2.68618         45.7871         4.05461 
        2.70184         45.0913         3.99674 
        2.71755         44.9661         3.93985 
        2.73329         44.1424         3.88398 
        2.74897         43.7655         3.82938 
        2.76462         43.2779         3.77595 
        2.78034         42.9897         3.72332 
        2.79607         42.3724         3.67163 
        2.81179         41.9781         3.62099 
        2.82749         41.3339         3.57136 
        2.84321           41.06          3.5226 
        2.85893          40.595         3.47477 
        2.87462         40.0821         3.42791 
        2.89033         39.7154         3.38187 
        2.90605         39.3343         3.33664 
        2.92176         38.9428         3.29225 
        2.93747         38.5402          3.2487 
        2.95318         38.1161         3.20593 
        2.96891         37.5421          3.1639 
        2.98456         37.3803         3.12282 
        3.00023         36.9384          3.0824 
        3.01596         36.5757         3.04258 
        3.03164         36.1107         3.00357 
        3.04738         35.9207         2.96514 
         3.0631         35.3791         2.92738 
        3.07883         35.0799         2.89029 
        3.09456         34.7207         2.85384 
        3.11026         34.3145         2.81808 
        3.12596         34.0647         2.78293 
        3.14163         33.6596         2.74847 
        3.15734         33.1915         2.71451 
        3.17308         33.0519         2.68104 
        3.18879         32.7863         2.64822 
        3.20447         32.3013           2.616 
         3.2202         31.9131         2.58422 
         3.2359         31.6989         2.55303 
        3.25157         31.3682         2.52242 
        3.26729         31.1137         2.49222 
        3.28304         30.7423         2.46246 
        3.29877         30.4567         2.43322 
        3.31446         30.2134         2.40452 
        3.33014         29.8654         2.37631 
        3.34585         29.6255         2.34851 
        3.36158         29.3093         2.32111 
        3.37727          28.981         2.29423 
        3.39294         28.7011         2.26781 
        3.40867         28.4383          2.2417 
        3.42439         28.1832         2.21602 
        3.44008         28.0002         2.19079 
        3.45578         27.5122         2.16594 
        3.47153         27.3126         2.14142 
        3.48724         27.0691         2.11732 
        3.50292         26.7761         2.09364 
        3.51859         26.5615         2.07034 
        3.53431         26.3823         2.04732 
        3.55007         26.0769          2.0246 
        3.56577         25.8208         2.00231 
        3.58146         25.6212         1.98037 
        3.59719         25.3078          1.9587 
        3.61292         25.0974         1.93736 
        3.62859         24.8723         1.91643 
        3.64429         24.5754         1.89576 
        3.66003         24.3578         1.87533 
        3.67578         24.2254         1.85521 
        3.69146           23.96         1.83547 
        3.70712         23.7114         1.81604 
        3.72284         23.5766         1.79683 
        3.73853         23.3463         1.77793 
        3.75422         23.0744         1.75929 
        3.76993          22.916          1.7409 
        3.78564         22.6082         1.72278 
        3.80137         22.4783         1.70489 
        3.81707         22.2843         1.68729 
        3.83279          21.986         1.66993 
        3.84853         21.7364         1.65278 
        3.86424         21.5879         1.63591 
        3.87992         21.4115          1.6193 
        3.89561          21.238         1.60291 
        3.91134         21.0604         1.58672 
        3.92704         20.8571         1.57078 
        3.94273         20.6274         1.55506 
        3.95845         20.4642         1.53954 
        3.97418         20.3216         1.52422 
        3.98988         20.1132         1.50913 
        4.00554         19.9661         1.49429 
        4.02125         19.7956          1.4796 
        4.03698         19.5247         1.46509 
        4.05268         19.3891          1.4508 
        4.06839         19.2003          1.4367 
         4.0841         19.1129         1.42278 
        4.09983          18.918         1.40904 
        4.11555         18.7544         1.39548 
        4.13124         18.5079         1.38213 
        4.14693          18.335         1.36895 
        4.16266         18.2112         1.35591 
        4.17839         18.0337         1.34304 
        4.19408         17.8489         1.33037 
        4.20977         17.7819         1.31787 
        4.22551         17.6083         1.30549 
        4.24123          17.429         1.29328 
        4.25691         17.3195         1.28126 
        4.27259         17.1367         1.26939 
        4.28831         16.9855         1.25765 
        4.30404         16.8359         1.24604 
        4.31974         16.6663         1.23461 
        4.33543         16.5722         1.22333 
        4.35116         16.4336         1.21216 
        4.36688         16.2559         1.20113 
        4.38255          16.141         1.19028 
        4.39825          16.037         1.17954 
        4.41398           15.86         1.16892 
         4.4297         15.7374         1.15843 
        4.44541         15.6352         1.14808 
        4.46111         15.4818         1.13786 
        4.47683         15.3386         1.12776 
        4.49251         15.2583          1.1178 
        4.50819         15.0842         1.10796 
         4.5239         14.9936         1.09823 
        4.53962         14.8381          1.0886 
        4.55535         14.7384         1.07908 
        4.57106         14.5932         1.06969 
        4.58678         14.5313         1.06041 
         4.6025         14.3646         1.05124 
        4.61821         14.2457         1.04218 
        4.63391         14.1508         1.03323 
         4.6496         14.0056          1.0244 
        4.66532         13.8704         1.01565 
        4.68103         13.7771         1.00701 
        4.69673         13.7194        0.998481 
        4.71241         13.5838        0.990057 
        4.72811         13.4564        0.981716 
        4.74384         13.3572        0.973461 
        4.75955         13.2478        0.965313 
        4.77525          13.159        0.957263 
        4.79096          13.052        0.949294 
        4.80669         12.9413        0.941413 
         4.8224         12.8235         0.93363 
        4.83809         12.7386        0.925943 
        4.85379         12.6163        0.918338 
         4.8695         12.5686        0.910812 
        4.88521         12.4258        0.903374 
        4.90093         12.3315        0.896017 
        4.91663         12.2738        0.888749 
        4.93234         12.1206        0.881554 
        4.94807         12.0621        0.874434 
        4.96377         11.9488        0.867405 
        4.97943         11.8771        0.860469 
        4.99514          11.756         0.85359 
        5.01086         11.7011        0.846782 
        5.02654         11.5796        0.840065 
        5.04227         11.5141        0.833401 
          5.058         11.4329        0.826806 
        5.07371         11.3412        0.820295 
        5.08942         11.2412        0.813854 
        5.10513         11.1551        0.807481 
        5.12084          11.073        0.801173 
        5.13656         10.9909        0.794933 
        5.15225         10.8972        0.788771 
        5.16796         10.8444        0.782664 
        5.18369         10.7327        0.776616 
         5.1994         10.6745        0.770643 
        5.21509         10.5803        0.764738 
        5.23079          10.525        0.758888 
        5.24649         10.4477        0.753104 
        5.26217         10.3383        0.747383 
        5.27788         10.2659        0.741715 
        5.29359         10.2177        0.736104 
        5.30933         10.1366        0.730542 
        5.32504         10.0672        0.725048 
        5.34073          9.9728        0.719616 
        5.35646         9.90848        0.714229 
        5.37218         9.83826        0.708896 
        5.38789         9.76125        0.703625 
        5.40357         9.69389        0.698415 
        5.41929         9.60322        0.693246 
        5.43502         9.57854        0.688128 
         5.4507         9.47882        0.683074 
        5.46639         9.41848         0.67807 
        5.48212         9.35758        0.673105 
        5.49786         9.27488        0.668183 
        5.51353         9.20832        0.663335 
        5.52921         9.13772         0.65853 
        5.54495         9.06692        0.653759 
        5.56066         9.00408         0.64904 
        5.57637         8.93432        0.644368 
        5.59207         8.88831        0.639746 
        5.60778         8.80966        0.635168 
        5.62346         8.75445        0.630641 
        5.63916         8.68975        0.626154 
        5.65487         8.63129        0.621708 
         5.6706         8.57755          0.6173 
        5.68633         8.50474        0.612933 
        5.70203         8.46476        0.608617 
        5.71773         8.39627        0.604344 
        5.73344         8.33496        0.600109 
        5.74916         8.26125        0.595911 
        5.76486         8.24016        0.591759 
        5.78054          8.1592        0.587653 
        5.79626         8.08948        0.583574 
          5.812         8.05455         0.57953 
         5.8277         7.99164        0.575535 
        5.84339         7.94148        0.571579 
        5.85911         7.88104        0.567652 
        5.87484         7.82835        0.563763 
        5.89053         7.77447        0.559917 
        5.90623          7.7139        0.556106 
        5.92195         7.67793        0.552324 
        5.93767         7.62609        0.548579 
        5.95336         7.56771        0.544874 
        5.96905         7.49833        0.541206 
        5.98476          7.4747        0.537566 
        6.00048         7.42108        0.533958 
        6.01617         7.37462        0.530388 
        6.03185         7.31698        0.526855 
        6.04756         7.25763        0.523346 
        6.06331         7.22539        0.519861 
        6.07903         7.18271        0.516415 
        6.09473         7.11075        0.513004 
        6.11044         7.08081         0.50962 
        6.12616          7.0296        0.506267 
        6.14186         6.97965        0.502948 
        6.15755         6.92611        0.499659 
        6.17326         6.89052        0.496397 
        6.18898         6.84944        0.493162 
        6.20467         6.79903        0.489962 
        6.22036         6.75377         0.48679 
         6.2361         6.71556        0.483638 
         6.2518         6.66556        0.480519 
        6.26748         6.61214        0.477434 
        6.28319         6.57487        0.474368 
        6.29893         6.54418        0.471326 
        6.31463         6.50247        0.468316 
        6.33033         6.46018        0.465333 
        6.34604         6.41358        0.462374 
        6.36177         6.36261        0.459438 
        6.37747          6.3412        0.456533 
