# k  (h/Mpc)    Pcb(k)  (Mpc/h)^3    Pcb_linear(k) (Mpc/h)^3   ShotnoiseSubtracted = true
      0.0200456         11108.3         11321.2 
      0.0350414         7985.48         8230.13 
      0.0492313          5927.9         5979.86 
      0.0637834         5067.84            4971 
      0.0800726         4010.24         3945.36 
       0.096163         2803.15          2862.7 
       0.111083         2229.98         2283.37 
       0.126058         2054.04         2023.53 
       0.142273          1774.2         1714.37 
       0.158546         1483.76         1353.99 
        0.17375         1190.92         1140.74 
       0.188953         1148.53         1032.91 
       0.204907          1078.4         913.918 
       0.220756         916.418          773.23 
        0.23588         806.739         672.643 
         0.2514         704.762         611.089 
       0.267535          686.16         552.931 
       0.283568          622.05         487.611 
       0.299022         579.739         434.436 
       0.314451         544.188         397.045 
       0.330372          501.99         364.244 
       0.346141         455.783         330.607 
       0.361624         438.168         300.477 
       0.377134         407.692         276.486 
       0.392932         386.184         255.827 
       0.408854         370.597         235.823 
       0.424564         352.337         217.361 
       0.440253         340.172         201.519 
       0.455999         320.098         187.744 
       0.471626         298.605         175.084 
        0.48727         289.845         163.242 
       0.502856         280.183         152.604 
       0.518488         276.803         143.111 
       0.534347         260.562         134.287 
       0.550082         244.925          126.15 
       0.565732         241.082         118.706 
       0.581496         228.774         111.889 
       0.597222         223.308         105.636 
       0.612804          215.33         99.8869 
       0.628434         207.917          94.528 
       0.644267         201.184         89.5179 
       0.660051         198.709         84.9003 
       0.675724         194.299         80.6365 
       0.691403         188.729         76.6619 
       0.707174         180.807         72.9329 
       0.722871         179.239         69.4667 
        0.73838         175.323         66.2628 
       0.754018         170.138         63.2368 
       0.769845         165.199          60.367 
        0.78569         163.088         57.6728 
       0.801365         158.253         55.1698 
       0.817031         153.076         52.8177 
       0.832809         150.949         50.5885 
       0.848511         147.167         48.4985 
       0.864097         144.689         46.5415 
       0.879701         141.539         44.6912 
       0.895507         138.021         42.9201 
       0.911279         135.316         41.2491 
        0.92691         134.057         39.6813 
       0.942635         130.742         38.1868 
       0.958396         130.469         36.7663 
       0.974128         126.771         35.4211 
       0.989692         123.692         34.1567 
        1.00528         121.378         32.9524 
        1.02113         120.632         31.7876 
        1.03692         116.054         30.6836 
        1.05264         115.369         29.6373 
        1.06832         112.792         28.6416 
        1.08405         111.315         27.6892 
        1.09979         110.766         26.7798 
        1.11537         107.083         25.9203 
        1.13105         106.821         25.0936 
        1.14679         105.676         24.2999 
        1.16256         104.128         23.5391 
        1.17828         101.517         22.8135 
        1.19395         100.274         22.1211 
         1.2097         98.1352         21.4539 
        1.22537         98.1118         20.8176 
          1.241         95.8416         20.2092 
        1.25666         93.9679         19.6236 
        1.27241         92.7997         19.0585 
        1.28819         91.3847         18.5148 
        1.30392         90.2771          17.994 
        1.31957         88.9876         17.4956 
        1.33529         87.3789         17.0143 
        1.35108         86.4702         16.5493 
        1.36674         85.5266          16.105 
         1.3824         83.9493         15.6775 
        1.39811          83.074         15.2641 
        1.41389         81.8527         14.8641 
        1.42964         80.8404         14.4792 
        1.44531         79.1226         14.1098 
        1.46101         78.2244         13.7525 
        1.47667         78.0097         13.4087 
        1.49229          76.439         13.0776 
        1.50793         75.9301         12.7574 
        1.52367         74.7175         12.4458 
        1.53953         73.6191         12.1426 
        1.55526         72.9484         11.8519 
        1.57092         72.6573          11.572 
        1.58662         71.0543         11.3004 
        1.60235         70.5674         11.0371 
        1.61809         69.5821         10.7821 
        1.63369         68.5756         10.5373 
        1.64941         67.9441         10.2985 
        1.66519         66.5797         10.0662 
        1.68085         66.1571         9.84275 
        1.69652         64.9901         9.62602 
        1.71228         64.6837         9.41461 
        1.72806         63.9195         9.20939 
        1.74368         63.1116         9.01235 
        1.75933         62.3301          8.8207 
        1.77505         61.7815         8.63374 
        1.79081         60.8925         8.45188 
         1.8065         60.3574         8.27604 
        1.82218         59.5003         8.10537 
        1.83797          58.904         7.93835 
        1.85367         58.2362         7.77697 
        1.86928         57.7276         7.62105 
        1.88497         56.9369         7.46856 
        1.90073         56.1613         7.31969 
        1.91647         55.8692         7.17502 
        1.93218         55.1351         7.03457 
        1.94787         54.5156         6.89809 
        1.96363         53.7982          6.7647 
        1.97935         53.4191         6.63511 
        1.99499         52.6147         6.50966 
        2.01064          52.455         6.38727 
         2.0264         51.1695         6.26727 
        2.04216         50.9405         6.15041 
        2.05781         50.3188         6.03727 
        2.07353         49.7796         5.92658 
        2.08928         49.2011         5.81843 
        2.10499         48.8245         5.71327 
        2.12065         48.2075         5.61102 
        2.13633         47.9739          5.5112 
        2.15211         47.5718         5.41316 
        2.16785         46.6698         5.31778 
        2.18349         46.3793          5.2253 
        2.19916         45.9109         5.13483 
        2.21489         45.4564          5.0462 
        2.23063         44.7935         4.95961 
         2.2463         44.3837         4.87544 
        2.26194         43.6832         4.79343 
        2.27765         43.2599          4.7129 
        2.29341          42.758           4.634 
        2.30914         42.2734         4.55708 
        2.32486         41.7085         4.48194 
        2.34061         41.4487         4.40838 
        2.35635         40.9908         4.33654 
        2.37203          40.494         4.26654 
        2.38768         40.1174         4.19824 
        2.40339         39.8483         4.13118 
        2.41914         39.4692         4.06544 
        2.43483         38.8304         4.00136 
         2.4505         38.5534         3.93877 
        2.46622         38.1749          3.8773 
        2.48195         37.7935         3.81715 
        2.49759         37.3548         3.75859 
        2.51328         36.8508          3.7011 
        2.52906         36.6507         3.64446 
        2.54479         36.0528         3.58922 
        2.56049         35.7336         3.53522 
        2.57618         35.4176         3.48239 
        2.59189         35.0651         3.43055 
        2.60758         34.8308         3.37986 
        2.62325         34.3539         3.33025 
        2.63898         34.0401         3.28146 
        2.65468         33.6683         3.23375 
        2.67044         33.3032         3.18679 
        2.68618         33.0461         3.14087 
        2.70184         32.6576         3.09604 
        2.71755         32.4859         3.05197 
        2.73329          32.104         3.00869 
        2.74897         31.7498          2.9664 
        2.76462         31.3328         2.92501 
        2.78034         31.2169         2.88423 
        2.79607         30.8576          2.8442 
        2.81179         30.5918         2.80497 
        2.82749         30.2933         2.76652 
        2.84321         29.8476         2.72875 
        2.85893         29.5942          2.6917 
        2.87462         29.3129          2.6554 
        2.89033         29.0465         2.61974 
        2.90605         28.8599          2.5847 
        2.92176          28.675         2.55031 
        2.93747         28.2795         2.51658 
        2.95318         27.8968         2.48344 
        2.96891          27.722         2.45089 
        2.98456         27.3653         2.41906 
        3.00023         27.1176         2.38776 
        3.01596         26.8491         2.35691 
        3.03164         26.6867         2.32669 
        3.04738         26.4428         2.29692 
         3.0631         26.1779         2.26767 
        3.07883         25.9013         2.23894 
        3.09456         25.5979          2.2107 
        3.11026         25.3828           2.183 
        3.12596         25.2018         2.15577 
        3.14163         24.9377         2.12908 
        3.15734         24.6976         2.10277 
        3.17308         24.4381         2.07684 
        3.18879         24.2734         2.05142 
        3.20447         23.9855         2.02646 
         3.2202         23.7722         2.00185 
         3.2359         23.4986         1.97768 
        3.25157         23.4731         1.95397 
        3.26729          23.163         1.93058 
        3.28304          22.936         1.90752 
        3.29877         22.6476         1.88487 
        3.31446         22.4477         1.86264 
        3.33014         22.2453         1.84079 
        3.34585          22.105         1.81925 
        3.36158         21.8344         1.79803 
        3.37727          21.625         1.77721 
        3.39294         21.4959         1.75674 
        3.40867         21.2767         1.73651 
        3.42439         21.0857         1.71662 
        3.44008         20.8962         1.69708 
        3.45578         20.7154         1.67783 
        3.47153         20.4533         1.65883 
        3.48724         20.3111         1.64016 
        3.50292         20.1744         1.62182 
        3.51859         19.9466         1.60377 
        3.53431         19.7673         1.58594 
        3.55007          19.565         1.56834 
        3.56577          19.372         1.55107 
        3.58146         19.2598         1.53407 
        3.59719         19.0284         1.51729 
        3.61292         18.8877         1.50076 
        3.62859         18.7194         1.48454 
        3.64429         18.5729         1.46853 
        3.66003         18.4322         1.45271 
        3.67578         18.2051         1.43713 
        3.69146         18.1198         1.42183 
        3.70712         17.9281         1.40678 
        3.72284         17.8401          1.3919 
        3.73853         17.6051         1.37725 
        3.75422         17.4035         1.36282 
        3.76993         17.3082         1.34857 
        3.78564         17.1504         1.33454 
        3.80137         16.9763         1.32068 
        3.81707         16.8208         1.30705 
        3.83279         16.6985          1.2936 
        3.84853         16.5284         1.28031 
        3.86424         16.4086         1.26724 
        3.87992         16.2661         1.25437 
        3.89561         16.0802         1.24168 
        3.91134         16.0035         1.22914 
        3.92704         15.8472         1.21679 
        3.94273          15.719         1.20462 
        3.95845         15.5429         1.19259 
        3.97418         15.4708         1.18072 
        3.98988         15.2893         1.16903 
        4.00554         15.1818         1.15754 
        4.02125         15.0617         1.14616 
        4.03698         14.9792         1.13492 
        4.05268         14.7808         1.12385 
        4.06839         14.6718         1.11293 
         4.0841         14.5705         1.10215 
        4.09983         14.4104          1.0915 
        4.11555         14.2885         1.08099 
        4.13124         14.1873         1.07065 
        4.14693         14.0664         1.06044 
        4.16266         13.9492         1.05034 
        4.17839         13.8141         1.04038 
        4.19408         13.6858         1.03056 
        4.20977         13.6324         1.02087 
        4.22551          13.472         1.01128 
        4.24123         13.3839         1.00183 
        4.25691         13.2799        0.992518 
        4.27259         13.1376        0.983323 
        4.28831         13.0088        0.974227 
        4.30404         12.9349        0.965237 
        4.31974         12.8177         0.95638 
        4.33543         12.7325        0.947639 
        4.35116         12.6392        0.938986 
        4.36688          12.494        0.930445 
        4.38255         12.3965        0.922041 
        4.39825         12.2971        0.913724 
        4.41398          12.255        0.905492 
         4.4297         12.0921         0.89737 
        4.44541         12.0015        0.889349 
        4.46111         11.9089        0.881432 
        4.47683         11.8353        0.873606 
        4.49251         11.7302        0.865891 
        4.50819         11.6544        0.858271 
         4.5239         11.5493        0.850732 
        4.53962         11.4664        0.843273 
        4.55535         11.3584        0.835901 
        4.57106         11.2573        0.828627 
        4.58678         11.1583        0.821438 
         4.6025         11.0832        0.814333 
        4.61821         11.0049        0.807313 
        4.63391         10.9091        0.800385 
         4.6496         10.8166         0.79354 
        4.66532         10.7259        0.786766 
        4.68103         10.6591        0.780073 
        4.69673         10.5711        0.773464 
        4.71241         10.4637        0.766939 
        4.72811         10.3905        0.760478 
        4.74384         10.3393        0.754083 
        4.75955         10.2369        0.747771 
        4.77525         10.1533        0.741535 
        4.79096         10.1002        0.735363 
        4.80669         10.0161        0.729257 
         4.8224         9.94938        0.723228 
        4.83809         9.85781        0.717274 
        4.85379         9.78207        0.711383 
         4.8695         9.74264        0.705553 
        4.88521         9.63045        0.699791 
        4.90093         9.55734        0.694092 
        4.91663         9.49941        0.688462 
        4.93234         9.43738        0.682888 
        4.94807         9.34491        0.677372 
        4.96377         9.27074        0.671928 
        4.97943         9.20868        0.666555 
        4.99514         9.15117        0.661226 
        5.01086         9.08587        0.655952 
        5.02654          9.0119        0.650749 
        5.04227          8.9477        0.645586 
          5.058         8.85523        0.640478 
        5.07371         8.81579        0.635434 
        5.08942          8.7539        0.630445 
        5.10513         8.67646        0.625508 
        5.12084         8.60845        0.620621 
        5.13656         8.55144        0.615788 
        5.15225         8.49177        0.611014 
        5.16796         8.43632        0.606284 
        5.18369         8.37791        0.601599 
         5.1994         8.27825        0.596972 
        5.21509         8.25056        0.592397 
        5.23079         8.18413        0.587866 
        5.24649          8.1266        0.583385 
        5.26217         8.06757        0.578954 
        5.27788         8.00696        0.574563 
        5.29359         7.94551        0.570216 
        5.30933         7.87994        0.565908 
        5.32504         7.82945        0.561652 
        5.34073         7.79809        0.557444 
        5.35646         7.71114        0.553271 
        5.37218         7.67445         0.54914 
        5.38789         7.61183        0.545057 
        5.40357         7.56615        0.541021 
        5.41929         7.50848        0.537017 
        5.43502         7.45209        0.533052 
         5.4507          7.4063        0.529137 
        5.46639         7.37485        0.525261 
        5.48212         7.31192        0.521415 
        5.49786          7.2737        0.517602 
        5.51353         7.19831        0.513847 
        5.52921         7.15225        0.510125 
        5.54495         7.11164        0.506428 
        5.56066         7.05786        0.502773 
        5.57637         6.99255        0.499154 
        5.59207         6.96166        0.495574 
        5.60778         6.89377        0.492027 
        5.62346         6.85563        0.488521 
        5.63916          6.8078        0.485045 
        5.65487         6.77133        0.481601 
         5.6706         6.71036        0.478186 
        5.68633         6.66624        0.474803 
        5.70203         6.63495         0.47146 
        5.71773         6.58484         0.46815 
        5.73344         6.53647        0.464869 
        5.74916         6.49869        0.461617 
        5.76486         6.46001        0.458401 
        5.78054         6.41178         0.45522 
        5.79626          6.3622         0.45206 
          5.812          6.3286        0.448927 
         5.8277         6.28554        0.445833 
        5.84339         6.22853        0.442769 
        5.85911         6.20313        0.439727 
        5.87484         6.15426        0.436714 
        5.89053         6.11514        0.433735 
        5.90623         6.07451        0.430783 
        5.92195         6.01449        0.427853 
        5.93767         5.99793        0.424952 
        5.95336          5.9486        0.422082 
        5.96905         5.92286         0.41924 
        5.98476         5.87347         0.41642 
        6.00048         5.84938        0.413626 
        6.01617         5.80047         0.41086 
        6.03185         5.77574        0.408124 
        6.04756         5.72481        0.405405 
        6.06331         5.69009        0.402706 
        6.07903         5.66054        0.400036 
        6.09473         5.61236        0.397394 
        6.11044         5.57719        0.394773 
        6.12616         5.54826        0.392176 
        6.14186           5.508        0.389604 
        6.15755         5.47071        0.387056 
        6.17326         5.43276        0.384529 
        6.18898         5.39359        0.382024 
        6.20467         5.37033        0.379545 
        6.22036         5.33969        0.377088 
         6.2361         5.30011        0.374646 
         6.2518          5.2682         0.37223 
        6.26748          5.2416         0.36984 
        6.28319         5.19541        0.367465 
        6.29893         5.16734        0.365109 
        6.31463         5.14453        0.362777 
        6.33033          5.0985        0.360466 
        6.34604          5.0843        0.358174 
        6.36177         5.04504          0.3559 
        6.37747         5.00929        0.353649 
