# k  (h/Mpc)    Pcb(k)  (Mpc/h)^3    Pcb_linear(k) (Mpc/h)^3   ShotnoiseSubtracted = true
      0.0200456         1567.82         1590.52 
      0.0350414         1147.73         1156.25 
      0.0492313         842.459         840.111 
      0.0637834         705.322         698.377 
      0.0800726         559.176         554.284 
       0.096163         400.386         402.181 
       0.111083         317.833          320.79 
       0.126058         286.006         284.286 
       0.142273         243.994         240.852 
       0.158546         194.324         190.223 
        0.17375         160.542         160.263 
       0.188953         147.866         145.114 
       0.204907         135.146         128.396 
       0.220756         112.733         108.631 
        0.23588         98.1616         94.4997 
         0.2514         87.9706          85.852 
       0.267535         80.6112         77.6813 
       0.283568         71.8434         68.5045 
       0.299022         64.8999          61.034 
       0.314451         58.0868         55.7809 
       0.330372          53.951         51.1727 
       0.346141          48.977          46.447 
       0.361624         45.1502          42.214 
       0.377134         42.2431         38.8435 
       0.392932         37.5442         35.9412 
       0.408854         36.0253         33.1308 
       0.424564         33.5428         30.5371 
       0.440253         30.9075         28.3115 
       0.455999           29.12         26.3762 
       0.471626         27.3363         24.5976 
        0.48727         25.7248         22.9339 
       0.502856         24.0093         21.4393 
       0.518488         22.9207         20.1057 
       0.534347          21.911          18.866 
       0.550082         20.0091         17.7229 
       0.565732         18.5357         16.6771 
       0.581496         18.1557         15.7193 
       0.597222         17.4491         14.8409 
       0.612804         16.2372         14.0331 
       0.628434         15.6368         13.2803 
       0.644267         15.0585         12.5764 
       0.660051         14.2057         11.9277 
       0.675724         13.4768         11.3286 
       0.691403         13.0262         10.7702 
       0.707174         12.4283         10.2463 
       0.722871         11.9204         9.75938 
        0.73838          11.451         9.30927 
       0.754018         11.0557         8.88415 
       0.769845         10.5424         8.48096 
        0.78569         10.2011         8.10245 
       0.801365         9.77065         7.75082 
       0.817031         9.46003         7.42037 
       0.832809         9.19132         7.10718 
       0.848511         8.64425         6.81356 
       0.864097         8.39271         6.53863 
       0.879701         8.12576         6.27867 
       0.895507         7.76588         6.02985 
       0.911279         7.65217          5.7951 
        0.92691         7.37977         5.57484 
       0.942635         7.05426         5.36486 
       0.958396          6.8325         5.16531 
       0.974128         6.65299         4.97631 
       0.989692          6.5478         4.79868 
        1.00528         6.27698         4.62949 
        1.02113         6.03906         4.46584 
        1.03692         5.91944         4.31074 
        1.05264         5.73664         4.16375 
        1.06832         5.60185         4.02386 
        1.08405          5.3678         3.89006 
        1.09979         5.25249         3.76229 
        1.11537         5.14134         3.64155 
        1.13105         4.99509          3.5254 
        1.14679         4.87732          3.4139 
        1.16256         4.72625         3.30701 
        1.17828         4.63886         3.20507 
        1.19395         4.49987         3.10779 
         1.2097         4.34624         3.01407 
        1.22537         4.24291         2.92467 
          1.241         4.16469         2.83919 
        1.25666         4.12657         2.75692 
        1.27241         3.96299         2.67753 
        1.28819          3.8713         2.60115 
        1.30392         3.80595         2.52798 
        1.31957         3.72198         2.45796 
        1.33529         3.62832         2.39034 
        1.35108         3.54233         2.32501 
        1.36674         3.48469          2.2626 
         1.3824         3.35796         2.20253 
        1.39811         3.30608         2.14446 
        1.41389         3.25325         2.08826 
        1.42964         3.18412         2.03418 
        1.44531         3.12139         1.98228 
        1.46101         3.05525         1.93209 
        1.47667         2.97077         1.88379 
        1.49229          2.9454         1.83728 
        1.50793         2.86306         1.79229 
        1.52367          2.8356         1.74851 
        1.53953         2.75026         1.70591 
        1.55526         2.69773         1.66508 
        1.57092         2.65914         1.62575 
        1.58662         2.60237          1.5876 
        1.60235         2.55435          1.5506 
        1.61809         2.50861         1.51477 
        1.63369         2.47174         1.48039 
        1.64941         2.41878         1.44684 
        1.66519         2.38473          1.4142 
        1.68085         2.32421         1.38281 
        1.69652         2.28674         1.35236 
        1.71228         2.25664         1.32266 
        1.72806         2.20545         1.29383 
        1.74368         2.17247         1.26615 
        1.75933         2.13367         1.23922 
        1.77505         2.10332         1.21296 
        1.79081         2.06485         1.18741 
         1.8065         2.02915          1.1627 
        1.82218         2.00706         1.13872 
        1.83797         1.98148         1.11526 
        1.85367         1.94901         1.09259 
        1.86928         1.91894         1.07068 
        1.88497          1.8765         1.04926 
        1.90073         1.84414         1.02834 
        1.91647         1.82162         1.00802 
        1.93218         1.80494        0.988288 
        1.94787         1.77094        0.969114 
        1.96363         1.73877        0.950374 
        1.97935         1.71164        0.932168 
        1.99499         1.67821        0.914543 
        2.01064         1.66196        0.897349 
         2.0264         1.65053         0.88049 
        2.04216         1.61963        0.864072 
        2.05781         1.59307        0.848178 
        2.07353          1.5763        0.832627 
        2.08928         1.55229        0.817432 
        2.10499         1.52931        0.802658 
        2.12065         1.51789        0.788294 
        2.13633          1.4895        0.774269 
        2.15211         1.46697        0.760495 
        2.16785         1.44636        0.747096 
        2.18349          1.4318        0.734103 
        2.19916         1.40429        0.721393 
        2.21489         1.38823        0.708942 
        2.23063         1.36836        0.696776 
         2.2463         1.35764        0.684951 
        2.26194          1.3312         0.67343 
        2.27765           1.317        0.662115 
        2.29341         1.30448        0.651031 
        2.30914         1.28845        0.640224 
        2.32486         1.27588        0.629669 
        2.34061         1.25469        0.619334 
        2.35635         1.23542         0.60924 
        2.37203          1.2266        0.599407 
        2.38768         1.21291        0.589811 
        2.40339         1.19965        0.580391 
        2.41914         1.18472        0.571154 
        2.43483         1.16939        0.562152 
         2.4505         1.15144        0.553358 
        2.46622         1.14049        0.544723 
        2.48195         1.13209        0.536271 
        2.49759         1.11709        0.528044 
        2.51328         1.09985        0.519969 
        2.52906         1.08932        0.512011 
        2.54479         1.07835        0.504249 
        2.56049         1.06544        0.496664 
        2.57618         1.05579        0.489241 
        2.59189          1.0445        0.481959 
        2.60758         1.02914        0.474837 
        2.62325         1.02069        0.467867 
        2.63898         1.01043        0.461013 
        2.65468         1.00015        0.454311 
        2.67044        0.989289        0.447713 
        2.68618        0.974018        0.441261 
        2.70184        0.964418        0.434963 
        2.71755        0.955079        0.428772 
        2.73329        0.947303        0.422692 
        2.74897        0.936797        0.416749 
        2.76462        0.926654        0.410934 
        2.78034        0.920179        0.405206 
        2.79607        0.908427        0.399582 
        2.81179         0.89784         0.39407 
        2.82749        0.891595        0.388669 
        2.84321        0.884576        0.383363 
        2.85893        0.872678        0.378157 
        2.87462        0.867794        0.373057 
        2.89033        0.853205        0.368047 
        2.90605        0.847604        0.363124 
        2.92176        0.839373        0.358294 
        2.93747        0.832998        0.353554 
        2.95318        0.825171        0.348899 
        2.96891        0.816692        0.344326 
        2.98456        0.812654        0.339855 
        3.00023        0.802403        0.335456 
        3.01596        0.796865        0.331122 
        3.03164        0.790691        0.326877 
        3.04738        0.777803        0.322694 
         3.0631        0.773294        0.318586 
        3.07883        0.767064        0.314549 
        3.09456        0.760752        0.310582 
        3.11026        0.752845         0.30669 
        3.12596         0.74604        0.302865 
        3.14163        0.739843        0.299114 
        3.15734        0.736037        0.295418 
        3.17308        0.726971        0.291776 
        3.18879        0.720502        0.288205 
        3.20447         0.71486        0.284698 
         3.2202         0.70958         0.28124 
         3.2359        0.704551        0.277845 
        3.25157        0.697535        0.274514 
        3.26729        0.693595        0.271227 
        3.28304        0.685849        0.267988 
        3.29877        0.679196        0.264806 
        3.31446        0.675082        0.261683 
        3.33014        0.671656        0.258612 
        3.34585        0.665767        0.255587 
        3.36158        0.657746        0.252605 
        3.37727        0.655618         0.24968 
        3.39294        0.650273        0.246804 
        3.40867         0.64501        0.243963 
        3.42439        0.639248        0.241168 
        3.44008        0.635647        0.238423 
        3.45578        0.631904        0.235718 
        3.47153        0.625749        0.233049 
        3.48724        0.621884        0.230426 
        3.50292        0.619014         0.22785 
        3.51859        0.612838        0.225314 
        3.53431        0.609078        0.222809 
        3.55007        0.606433        0.220336 
        3.56577        0.600002         0.21791 
        3.58146        0.595689        0.215522 
        3.59719        0.593268        0.213164 
        3.61292        0.588635        0.210842 
        3.62859        0.582109        0.208564 
        3.64429        0.580972        0.206314 
        3.66003        0.575739        0.204091 
        3.67578        0.571053        0.201902 
        3.69146        0.568839        0.199753 
        3.70712        0.563544        0.197639 
        3.72284        0.561058        0.195548 
        3.73853        0.555511        0.193491 
        3.75422        0.551537        0.191462 
        3.76993         0.55097        0.189461 
        3.78564        0.546397        0.187489 
        3.80137        0.540613        0.185543 
        3.81707        0.540208        0.183627 
        3.83279        0.534342        0.181738 
        3.84853        0.530353        0.179871 
        3.86424        0.528124        0.178035 
        3.87992        0.524162        0.176227 
        3.89561        0.521821        0.174444 
        3.91134        0.517208        0.172682 
        3.92704        0.513635        0.170947 
        3.94273         0.51109        0.169237 
        3.95845        0.508322        0.167547 
        3.97418        0.503372         0.16588 
        3.98988        0.500645        0.164238 
        4.00554        0.497573        0.162622 
        4.02125        0.493051        0.161024 
        4.03698        0.487415        0.159445 
        4.05268        0.484431         0.15789 
        4.06839        0.480236        0.156355 
         4.0841        0.476714        0.154841 
        4.09983        0.473125        0.153345 
        4.11555        0.468638        0.151869 
        4.13124        0.464699        0.150416 
        4.14693        0.461036        0.148982 
        4.16266        0.457363        0.147563 
        4.17839        0.454623        0.146163 
        4.19408        0.451214        0.144784 
        4.20977         0.44772        0.143423 
        4.22551        0.444793        0.142075 
        4.24123        0.441379        0.140747 
        4.25691        0.438577        0.139439 
        4.27259        0.435908        0.138147 
        4.28831        0.432619        0.136869 
        4.30404         0.42943        0.135606 
        4.31974        0.426898        0.134362 
        4.33543        0.424256        0.133134 
        4.35116        0.422742        0.131918 
        4.36688        0.418962        0.130718 
        4.38255        0.417306        0.129538 
        4.39825        0.414654        0.128369 
        4.41398        0.411526        0.127213 
         4.4297        0.409742        0.126072 
        4.44541        0.407426        0.124945 
        4.46111        0.406605        0.123833 
        4.47683        0.403866        0.122733 
        4.49251        0.401494        0.121649 
        4.50819        0.399321        0.120579 
         4.5239        0.398763        0.119519 
        4.53962        0.396547        0.118472 
        4.55535        0.395355        0.117436 
        4.57106        0.392863        0.116414 
        4.58678        0.391131        0.115404 
         4.6025          0.3892        0.114406 
        4.61821        0.387717         0.11342 
        4.63391         0.38656        0.112446 
         4.6496        0.384619        0.111485 
        4.66532        0.383805        0.110533 
        4.68103        0.382533        0.109593 
        4.69673        0.381495        0.108664 
        4.71241        0.379771        0.107747 
        4.72811        0.379238         0.10684 
        4.74384        0.377749        0.105941 
        4.75955        0.377377        0.105054 
        4.77525        0.375701        0.104178 
        4.79096          0.3755        0.103311 
        4.80669        0.373795        0.102453 
         4.8224        0.373691        0.101606 
        4.83809        0.372157         0.10077 
        4.85379        0.372306       0.0999422 
         4.8695        0.371329       0.0991232 
        4.88521        0.370602       0.0983137 
        4.90093        0.370986       0.0975131 
        4.91663        0.369186       0.0967221 
        4.93234        0.368636        0.095939 
        4.94807        0.369076       0.0951641 
        4.96377        0.368817       0.0943992 
        4.97943        0.368539       0.0936444 
        4.99514        0.367364       0.0928958 
        5.01086        0.368374       0.0921548 
        5.02654        0.367671       0.0914238 
        5.04227        0.367462       0.0906985 
          5.058        0.367214       0.0899808 
        5.07371        0.366381       0.0892723 
        5.08942        0.367598       0.0885713 
        5.10513        0.366904       0.0878777 
        5.12084        0.367229       0.0871912 
        5.13656        0.367811       0.0865122 
        5.15225        0.368277       0.0858415 
        5.16796        0.368389       0.0851769 
        5.18369        0.369271       0.0845187 
         5.1994        0.370253       0.0838686 
        5.21509        0.369155        0.083226 
        5.23079        0.369889       0.0825894 
        5.24649        0.370577       0.0819598 
        5.26217        0.369855       0.0813373 
        5.27788        0.371104       0.0807204 
        5.29359        0.371514       0.0801097 
        5.30933        0.372424       0.0795045 
        5.32504        0.372956       0.0789066 
        5.34073        0.373398       0.0783154 
        5.35646        0.374393       0.0777291 
        5.37218        0.375899       0.0771487 
        5.38789        0.376361       0.0765752 
        5.40357        0.376938       0.0760081 
        5.41929        0.377415       0.0754455 
        5.43502        0.378688       0.0748886 
         5.4507        0.379381       0.0743386 
        5.46639        0.381412        0.073794 
        5.48212        0.381255       0.0732536 
        5.49786        0.381475        0.072718 
        5.51353        0.383921       0.0721904 
        5.52921        0.384344       0.0716675 
        5.54495        0.385365       0.0711482 
        5.56066         0.38757       0.0706346 
        5.57637           0.387       0.0701262 
        5.59207        0.388992       0.0696232 
        5.60778        0.389895        0.069125 
        5.62346        0.391024       0.0686323 
        5.63916        0.392102        0.068144 
        5.65487         0.39416       0.0676601 
         5.6706        0.394971       0.0671804 
        5.68633        0.397227       0.0667052 
        5.70203        0.399303       0.0662355 
        5.71773        0.399532       0.0657704 
        5.73344        0.400465       0.0653096 
        5.74916        0.402115       0.0648527 
        5.76486        0.403841       0.0644008 
        5.78054        0.405369       0.0639539 
        5.79626        0.405621         0.06351 
          5.812        0.408176       0.0630699 
         5.8277        0.408768       0.0626352 
        5.84339        0.411356       0.0622046 
        5.85911        0.411246       0.0617772 
        5.87484        0.412689        0.061354 
        5.89053         0.41537       0.0609355 
        5.90623         0.41677       0.0605207 
        5.92195        0.417589       0.0601091 
        5.93767         0.41964       0.0597015 
        5.95336        0.419812       0.0592984 
        5.96905        0.421712       0.0588991 
        5.98476         0.42347        0.058503 
        6.00048        0.426326       0.0581103 
        6.01617        0.426989       0.0577218 
        6.03185        0.427661       0.0573373 
        6.04756        0.430568       0.0569554 
        6.06331        0.432531       0.0565762 
        6.07903        0.434385       0.0562012 
        6.09473        0.435201       0.0558299 
        6.11044        0.437453       0.0554617 
        6.12616        0.438134       0.0550968 
        6.14186        0.439126       0.0547356 
        6.15755        0.441566       0.0543776 
        6.17326        0.442912       0.0540226 
        6.18898        0.444034       0.0536705 
        6.20467        0.447211       0.0533223 
        6.22036        0.446939       0.0529771 
         6.2361        0.448514       0.0526341 
         6.2518        0.449155       0.0522946 
        6.26748        0.451365       0.0519589 
        6.28319        0.453855       0.0516252 
        6.29893        0.455998       0.0512942 
        6.31463        0.455791       0.0509666 
        6.33033        0.456185        0.050642 
        6.34604        0.458291       0.0503199 
        6.36177        0.460064       0.0500004 
        6.37747        0.462459       0.0496842 
