# k  (h/Mpc)    Pcb(k)  (Mpc/h)^3    Pcb_linear(k) (Mpc/h)^3   ShotnoiseSubtracted = true
      0.0200456         20207.9         20675.6 
      0.0350414         14369.1         15030.5 
      0.0492313         10706.3         10920.8 
      0.0637834         9256.21         9078.41 
      0.0800726         7305.95         7205.31 
       0.096163         5067.79         5228.08 
       0.111083         4067.74         4170.05 
       0.126058         3747.88         3695.51 
       0.142273         3245.05         3130.91 
       0.158546         2826.06         2472.76 
        0.17375          2259.9          2083.3 
       0.188953         2208.14         1886.38 
       0.204907         2075.55         1669.06 
       0.220756         1795.98         1412.13 
        0.23588         1602.18         1228.43 
         0.2514         1394.23         1116.02 
       0.267535         1392.09          1009.8 
       0.283568         1262.28          890.51 
       0.299022         1192.74         793.399 
       0.314451         1136.94         725.113 
       0.330372         1044.42         665.209 
       0.346141         992.248         603.779 
       0.361624         953.834         548.752 
       0.377134         887.398         504.939 
       0.392932         853.115          467.21 
       0.408854         834.391         430.677 
       0.424564         773.994         396.961 
       0.440253         761.065         368.029 
       0.455999         729.738         342.872 
       0.471626         701.642         319.752 
        0.48727         673.255         298.125 
       0.502856         655.163         278.696 
       0.518488         648.043         261.361 
       0.534347         606.786         245.245 
       0.550082         589.402         230.385 
       0.565732         587.999          216.79 
       0.581496         554.265          204.34 
       0.597222         544.741         192.921 
       0.612804         533.235         182.421 
       0.628434          517.33         172.634 
       0.644267         503.971         163.484 
       0.660051         488.236         155.051 
       0.675724         483.985         147.264 
       0.691403         467.854         140.006 
       0.707174         452.472         133.195 
       0.722871         447.553         126.865 
        0.73838         439.972         121.014 
       0.754018         428.895         115.488 
       0.769845          420.23         110.247 
        0.78569         414.261         105.326 
       0.801365         403.255         100.755 
       0.817031         391.128         96.4596 
       0.832809         388.648         92.3883 
       0.848511         379.547         88.5715 
       0.864097         369.578         84.9975 
       0.879701         364.805         81.6183 
       0.895507         361.118         78.3838 
       0.911279         349.838         75.3322 
        0.92691         345.773          72.469 
       0.942635         337.815         69.7395 
       0.958396         330.047         67.1454 
       0.974128         324.804         64.6886 
       0.989692         321.835         62.3794 
        1.00528         314.379         60.1801 
        1.02113         312.543         58.0528 
        1.03692         303.754         56.0366 
        1.05264         301.708         54.1258 
        1.06832         293.929         52.3074 
        1.08405         289.546         50.5681 
        1.09979         284.167         48.9072 
        1.11537         279.738         47.3376 
        1.13105         274.132         45.8278 
        1.14679         269.617         44.3783 
        1.16256         264.753         42.9888 
        1.17828         262.659         41.6637 
        1.19395         256.364         40.3991 
         1.2097         254.737         39.1807 
        1.22537         248.889         38.0187 
          1.241         247.633         36.9074 
        1.25666         242.269          35.838 
        1.27241         239.169         34.8061 
        1.28819         235.847         33.8132 
        1.30392         230.141          32.862 
        1.31957         230.545         31.9518 
        1.33529         225.518         31.0728 
        1.35108         220.341         30.2235 
        1.36674         218.822         29.4121 
         1.3824         217.129         28.6314 
        1.39811         213.942         27.8765 
        1.41389         210.398          27.146 
        1.42964         208.154         26.4429 
        1.44531         205.075         25.7683 
        1.46101         202.191         25.1158 
        1.47667          198.79          24.488 
        1.49229         197.138         23.8833 
        1.50793         192.791         23.2984 
        1.52367         191.399         22.7294 
        1.53953         188.587         22.1757 
        1.55526         184.247         21.6448 
        1.57092         183.366         21.1336 
        1.58662         181.107         20.6377 
        1.60235         177.816         20.1568 
        1.61809          176.78          19.691 
        1.63369         173.195         19.2441 
        1.64941         169.745         18.8079 
        1.66519         169.172         18.3836 
        1.68085         166.961         17.9755 
        1.69652         164.399         17.5797 
        1.71228         161.302         17.1936 
        1.72806         159.686         16.8189 
        1.74368          157.98          16.459 
        1.75933         155.068          16.109 
        1.77505         153.907         15.7676 
        1.79081         152.574         15.4354 
         1.8065         150.426         15.1143 
        1.82218         147.969         14.8026 
        1.83797         146.962         14.4976 
        1.85367         144.764         14.2029 
        1.86928         142.265         13.9181 
        1.88497          140.49         13.6396 
        1.90073         139.278         13.3678 
        1.91647          137.49         13.1035 
        1.93218         135.874          12.847 
        1.94787         133.895         12.5978 
        1.96363         131.871         12.3542 
        1.97935         130.505         12.1175 
        1.99499         128.412         11.8884 
        2.01064         127.267         11.6649 
         2.0264         125.426         11.4457 
        2.04216         123.943         11.2323 
        2.05781          122.91         11.0257 
        2.07353         121.698         10.8236 
        2.08928         119.113          10.626 
        2.10499         117.927          10.434 
        2.12065         116.186         10.2473 
        2.13633         115.623          10.065 
        2.15211         113.171          9.8859 
        2.16785         111.608         9.71172 
        2.18349         110.855         9.54283 
        2.19916         109.602          9.3776 
        2.21489          108.18         9.21574 
        2.23063          106.46          9.0576 
         2.2463          105.34         8.90388 
        2.26194         104.026         8.75412 
        2.27765         103.005         8.60703 
        2.29341         101.986         8.46295 
        2.30914         100.709         8.32247 
        2.32486         99.6657         8.18525 
        2.34061         98.3744         8.05091 
        2.35635         97.0018          7.9197 
        2.37203         95.7396         7.79187 
        2.38768         94.7965         7.66713 
        2.40339          93.848         7.54467 
        2.41914         92.5871          7.4246 
        2.43483         91.6393         7.30758 
         2.4505          90.456         7.19327 
        2.46622         89.2656         7.08101 
        2.48195         88.2016         6.97115 
        2.49759         87.0132         6.86421 
        2.51328         86.6956         6.75923 
        2.52906         85.0574         6.65578 
        2.54479         84.2322         6.55489 
        2.56049         83.3646         6.45628 
        2.57618         82.4734         6.35979 
        2.59189         81.4867         6.26513 
        2.60758         80.8148         6.17254 
        2.62325          79.641         6.08194 
        2.63898         78.5276         5.99284 
        2.65468         77.8059         5.90572 
        2.67044         76.9399         5.81995 
        2.68618         76.1486         5.73609 
        2.70184         75.6787         5.65421 
        2.71755         74.6314         5.57373 
        2.73329         73.8313         5.49469 
        2.74897         72.9253         5.41745 
        2.76462         72.0708         5.34186 
        2.78034         71.4609          5.2674 
        2.79607         70.2561         5.19428 
        2.81179         69.6888         5.12264 
        2.82749          68.846         5.05242 
        2.84321         68.3719         4.98345 
        2.85893         67.5706         4.91578 
        2.87462         66.6147         4.84948 
        2.89033         65.9583         4.78435 
        2.90605         65.2517         4.72036 
        2.92176         64.6468         4.65757 
        2.93747         64.2247         4.59596 
        2.95318         63.3314         4.53544 
        2.96891          62.866         4.47599 
        2.98456         62.1672         4.41787 
        3.00023         61.2504          4.3607 
        3.01596          60.785         4.30436 
        3.03164         59.9609         4.24917 
        3.04738          59.514          4.1948 
         3.0631         58.8353         4.14139 
        3.07883         58.2422         4.08891 
        3.09456         57.6135         4.03735 
        3.11026         56.9066         3.98675 
        3.12596         56.3543         3.93703 
        3.14163         55.8078         3.88827 
        3.15734         55.3917         3.84023 
        3.17308         54.5733         3.79288 
        3.18879         54.3104         3.74646 
        3.20447         53.3578         3.70088 
         3.2202         53.1215         3.65592 
         3.2359         52.4925         3.61178 
        3.25157         51.9171         3.56848 
        3.26729         51.5084         3.52576 
        3.28304         50.9648         3.48366 
        3.29877         50.4963         3.44229 
        3.31446         49.7716         3.40169 
        3.33014         49.4598         3.36178 
        3.34585         49.1937         3.32245 
        3.36158         48.6048         3.28369 
        3.37727         48.1579         3.24566 
        3.39294          47.655         3.20828 
        3.40867         47.1601         3.17135 
        3.42439         46.5272         3.13502 
        3.44008         46.2339         3.09933 
        3.45578         45.7095         3.06417 
        3.47153          45.272         3.02948 
        3.48724         44.8738         2.99538 
        3.50292         44.5172         2.96189 
        3.51859         44.0142         2.92893 
        3.53431         43.6114         2.89636 
        3.55007          43.054         2.86422 
        3.56577         42.7935         2.83268 
        3.58146         42.3216         2.80164 
        3.59719         41.9644         2.77098 
        3.61292         41.4333          2.7408 
        3.62859         41.1913         2.71118 
        3.64429         40.8836         2.68194 
        3.66003         40.4197         2.65305 
        3.67578         39.9047         2.62458 
        3.69146         39.6308         2.59665 
        3.70712         39.2846         2.56917 
        3.72284         38.8024         2.54199 
        3.73853         38.5066         2.51524 
        3.75422          38.059         2.48887 
        3.76993          37.907         2.46286 
        3.78564           37.55         2.43723 
        3.80137         37.1468         2.41192 
        3.81707         36.7786         2.38703 
        3.83279         36.6251         2.36246 
        3.84853         36.1712          2.3382 
        3.86424         35.7314         2.31433 
        3.87992         35.5715         2.29083 
        3.89561         35.2019         2.26765 
        3.91134         34.7201         2.24475 
        3.92704         34.6078         2.22219 
        3.94273          34.155         2.19996 
        3.95845         33.9815         2.17799 
        3.97418         33.6343         2.15632 
        3.98988         33.3451         2.13498 
        4.00554         32.9885         2.11398 
        4.02125           32.67          2.0932 
        4.03698          32.447         2.07267 
        4.05268           32.18         2.05246 
        4.06839         31.8555         2.03251 
         4.0841         31.6498         2.01282 
        4.09983         31.3101         1.99337 
        4.11555         31.0291         1.97419 
        4.13124         30.8124         1.95531 
        4.14693         30.4571         1.93666 
        4.16266         30.2122         1.91821 
        4.17839         29.9381         1.90001 
        4.19408         29.6697         1.88209 
        4.20977         29.4311         1.86439 
        4.22551          29.172         1.84688 
        4.24123         29.0077         1.82961 
        4.25691         28.6888         1.81261 
        4.27259         28.4864         1.79582 
        4.28831         28.1741          1.7792 
        4.30404         27.9985         1.76279 
        4.31974         27.6907         1.74661 
        4.33543         27.4539         1.73065 
        4.35116         27.3708         1.71485 
        4.36688         27.0409         1.69925 
        4.38255         26.7585          1.6839 
        4.39825         26.5614         1.66871 
        4.41398         26.3096         1.65367 
         4.4297          26.134         1.63884 
        4.44541         25.8699         1.62419 
        4.46111         25.7083         1.60974 
        4.47683         25.5012         1.59544 
        4.49251         25.2497         1.58135 
        4.50819          25.042         1.56744 
         4.5239         24.8503         1.55367 
        4.53962         24.6512         1.54005 
        4.55535         24.4467         1.52658 
        4.57106         24.2577          1.5133 
        4.58678         24.0651         1.50017 
         4.6025          23.892         1.48719 
        4.61821           23.72         1.47437 
        4.63391         23.4684         1.46172 
         4.6496          23.277         1.44922 
        4.66532         23.1131         1.43685 
        4.68103         22.8926         1.42463 
        4.69673         22.7244         1.41256 
        4.71241         22.5868         1.40064 
        4.72811         22.3623         1.38884 
        4.74384          22.216         1.37716 
        4.75955          22.044         1.36563 
        4.77525         21.8291         1.35425 
        4.79096         21.7025         1.34297 
        4.80669         21.4977         1.33182 
         4.8224          21.326         1.32081 
        4.83809         21.1723         1.30994 
        4.85379         20.9084         1.29918 
         4.8695         20.8527         1.28853 
        4.88521         20.6708         1.27801 
        4.90093         20.4711          1.2676 
        4.91663         20.2909         1.25732 
        4.93234         20.1978         1.24714 
        4.94807         19.9921         1.23707 
        4.96377         19.8952         1.22712 
        4.97943         19.7532         1.21731 
        4.99514          19.564         1.20758 
        5.01086          19.421         1.19795 
        5.02654         19.2422         1.18844 
        5.04227         19.1308         1.17902 
          5.058         18.9436         1.16969 
        5.07371         18.8267         1.16048 
        5.08942          18.696         1.15136 
        5.10513         18.5402         1.14235 
        5.12084         18.3978         1.13342 
        5.13656         18.2081          1.1246 
        5.15225         18.1375         1.11588 
        5.16796         18.0195         1.10724 
        5.18369         17.8349         1.09868 
         5.1994         17.7503         1.09023 
        5.21509         17.5641         1.08188 
        5.23079         17.4495          1.0736 
        5.24649         17.3328         1.06542 
        5.26217          17.174         1.05733 
        5.27788         17.0481         1.04931 
        5.29359         16.9596         1.04137 
        5.30933         16.7783          1.0335 
        5.32504         16.6753         1.02573 
        5.34073         16.5653         1.01805 
        5.35646         16.4605         1.01042 
        5.37218          16.306         1.00288 
        5.38789         16.1966        0.995423 
        5.40357         16.0866        0.988052 
        5.41929         15.9993        0.980739 
        5.43502         15.8429        0.973499 
         5.4507         15.7499        0.966349 
        5.46639         15.6156         0.95927 
        5.48212         15.4856        0.952246 
        5.49786         15.3699        0.945283 
        5.51353         15.2743        0.938424 
        5.52921          15.201        0.931627 
        5.54495         15.0911        0.924877 
        5.56066         14.9848        0.918201 
        5.57637         14.8472        0.911592 
        5.59207         14.7274        0.905053 
        5.60778         14.6698        0.898576 
        5.62346         14.5574        0.892172 
        5.63916         14.4132        0.885824 
        5.65487         14.3374        0.879534 
         5.6706         14.2121        0.873298 
        5.68633         14.1274         0.86712 
        5.70203         14.0413        0.861015 
        5.71773         13.9354        0.854969 
        5.73344         13.8465        0.848978 
        5.74916         13.7438        0.843039 
        5.76486         13.6307        0.837165 
        5.78054          13.549        0.831356 
        5.79626          13.451        0.825585 
          5.812         13.3524        0.819864 
         5.8277         13.2495        0.814213 
        5.84339         13.1777        0.808616 
        5.85911         13.0766        0.803061 
        5.87484         12.9899        0.797558 
        5.89053         12.8867        0.792118 
        5.90623          12.804        0.786727 
        5.92195         12.7095        0.781376 
        5.93767         12.6252        0.776078 
        5.95336          12.539        0.770837 
        5.96905         12.4589        0.765647 
        5.98476         12.3809        0.760497 
        6.00048         12.2606        0.755393 
        6.01617         12.2109        0.750343 
        6.03185         12.1262        0.745345 
        6.04756         12.0581         0.74038 
        6.06331         11.9533         0.73545 
        6.07903         11.8691        0.730576 
        6.09473         11.7992         0.72575 
        6.11044         11.7202        0.720963 
        6.12616         11.6519         0.71622 
        6.14186         11.5707        0.711524 
        6.15755         11.4892        0.706871 
        6.17326         11.3793        0.702256 
        6.18898         11.3465        0.697679 
        6.20467         11.2535        0.693152 
        6.22036          11.167        0.688665 
         6.2361         11.1055        0.684206 
         6.2518          11.045        0.679793 
        6.26748         10.9623        0.675429 
        6.28319         10.8865        0.671091 
        6.29893         10.8092        0.666788 
        6.31463         10.7412         0.66253 
        6.33033         10.6577         0.65831 
        6.34604         10.6124        0.654124 
        6.36177         10.5259         0.64997 
        6.37747         10.4762         0.64586 
