# k  (h/Mpc)    Pcb(k)  (Mpc/h)^3    Pcb_linear(k) (Mpc/h)^3   ShotnoiseSubtracted = true
      0.0200456         16962.8         17240.2 
      0.0350414         12901.5           12533 
      0.0492313         8961.22         9106.24 
      0.0637834          7233.6         7569.94 
      0.0800726         5686.66         6008.07 
       0.096163         4521.84         4359.38 
       0.111083         3680.73         3477.15 
       0.126058         3050.57         3081.47 
       0.142273         2654.27         2610.68 
       0.158546         2180.37         2061.89 
        0.17375         1928.72         1737.14 
       0.188953         1809.59         1572.94 
       0.204907         1552.25         1391.73 
       0.220756         1397.52         1177.49 
        0.23588         1245.97         1024.31 
         0.2514         1120.55         930.579 
       0.267535         1086.51         842.014 
       0.283568         958.334         742.543 
       0.299022         915.385         661.568 
       0.314451         943.699         604.628 
       0.330372         818.789         554.678 
       0.346141         755.084         503.455 
       0.361624         724.068         457.572 
       0.377134         688.071         421.038 
       0.392932         661.857         389.578 
       0.408854         631.481         359.116 
       0.424564         614.764         331.002 
       0.440253         563.028         306.878 
       0.455999          539.14           285.9 
       0.471626         548.195         266.622 
        0.48727         517.751         248.588 
       0.502856         485.128         232.388 
       0.518488         480.476         217.933 
       0.534347         452.447         204.495 
       0.550082         434.126         192.104 
       0.565732         430.593         180.769 
       0.581496         418.769         170.387 
       0.597222         407.114         160.865 
       0.612804         397.675          152.11 
       0.628434         381.868         143.949 
       0.644267         367.949          136.32 
       0.660051         363.056         129.288 
       0.675724         356.797         122.795 
       0.691403         348.559         116.742 
       0.707174         335.518         111.064 
       0.722871         330.247         105.785 
        0.73838          326.02         100.906 
       0.754018         313.969         96.2983 
       0.769845         312.331          91.928 
        0.78569         305.365         87.8252 
       0.801365         296.308         84.0137 
       0.817031         292.745         80.4319 
       0.832809         287.657         77.0371 
       0.848511         280.783         73.8545 
       0.864097         273.997         70.8744 
       0.879701         272.536         68.0567 
       0.895507         264.948         65.3596 
       0.911279         258.409          62.815 
        0.92691         256.064         60.4275 
       0.942635         254.035         58.1516 
       0.958396         246.899         55.9885 
       0.974128         243.834         53.9399 
       0.989692         235.082         52.0145 
        1.00528         234.829         50.1806 
        1.02113         231.304         48.4067 
        1.03692         226.054         46.7255 
        1.05264         222.341         45.1322 
        1.06832         221.917          43.616 
        1.08405         215.808         42.1657 
        1.09979         214.187         40.7808 
        1.11537         209.738          39.472 
        1.13105         206.198          38.213 
        1.14679         204.403         37.0044 
        1.16256         201.556         35.8458 
        1.17828         199.219         34.7409 
        1.19395         193.951         33.6864 
         1.2097         193.306         32.6705 
        1.22537         191.657         31.7015 
          1.241           186.5         30.7749 
        1.25666         184.707         29.8832 
        1.27241         180.944         29.0227 
        1.28819          179.17         28.1948 
        1.30392         176.755         27.4017 
        1.31957         172.508         26.6427 
        1.33529         170.415         25.9098 
        1.35108         169.016         25.2016 
        1.36674         165.794          24.525 
         1.3824         164.618          23.874 
        1.39811         161.804         23.2445 
        1.41389         158.889         22.6354 
        1.42964         156.912         22.0492 
        1.44531         155.354         21.4866 
        1.46101          152.16         20.9426 
        1.47667         151.623         20.4191 
        1.49229         149.156         19.9149 
        1.50793          146.46         19.4272 
        1.52367         144.998         18.9527 
        1.53953         142.086          18.491 
        1.55526         141.704         18.0483 
        1.57092         139.952          17.622 
        1.58662         136.675         17.2085 
        1.60235           135.4         16.8075 
        1.61809         133.619         16.4191 
        1.63369         131.636         16.0465 
        1.64941         130.799         15.6828 
        1.66519         128.829          15.329 
        1.68085         126.434         14.9887 
        1.69652         125.363         14.6587 
        1.71228          124.24         14.3368 
        1.72806         122.829         14.0242 
        1.74368         120.917         13.7242 
        1.75933         119.924         13.4323 
        1.77505         117.755         13.1476 
        1.79081         116.209         12.8707 
         1.8065         114.248         12.6029 
        1.82218         113.024          12.343 
        1.83797         112.605         12.0887 
        1.85367         110.669         11.8429 
        1.86928         109.961         11.6055 
        1.88497         107.915         11.3733 
        1.90073         107.176         11.1466 
        1.91647         105.418         10.9263 
        1.93218         104.254         10.7124 
        1.94787         102.608         10.5046 
        1.96363         101.825         10.3014 
        1.97935         100.695         10.1041 
        1.99499         99.9143         9.91304 
        2.01064         97.5679         9.72667 
         2.0264         97.0768         9.54392 
        2.04216         94.9793         9.36597 
        2.05781         94.6378         9.19368 
        2.07353         93.3623         9.02512 
        2.08928         92.0226         8.86042 
        2.10499         90.9741         8.70028 
        2.12065         90.4424         8.54458 
        2.13633         89.2585         8.39256 
        2.15211         87.8483         8.24327 
        2.16785          86.626         8.09802 
        2.18349         85.4997         7.95719 
        2.19916         84.4913         7.81942 
        2.21489           83.74         7.68446 
        2.23063         82.4617         7.55259 
         2.2463         81.9995         7.42441 
        2.26194         80.8433         7.29954 
        2.27765         79.9162         7.17689 
        2.29341         79.0078         7.05675 
        2.30914          78.054         6.93961 
        2.32486         76.4861         6.82519 
        2.34061         76.1105         6.71317 
        2.35635         75.0981         6.60376 
        2.37203         74.0651         6.49717 
        2.38768         73.3846         6.39316 
        2.40339         72.6624         6.29105 
        2.41914         71.4447         6.19093 
        2.43483         70.9669         6.09335 
         2.4505         69.9677         5.99804 
        2.46622         69.4564         5.90444 
        2.48195         68.4394         5.81283 
        2.49759         67.6627         5.72365 
        2.51328         66.8482         5.63612 
        2.52906         65.9572         5.54986 
        2.54479         65.3701         5.46573 
        2.56049         64.6198         5.38351 
        2.57618         63.6982         5.30305 
        2.59189         63.3005         5.22412 
        2.60758         62.3822         5.14691 
        2.62325         61.6974         5.07137 
        2.63898         61.1041         4.99707 
        2.65468         60.5275         4.92442 
        2.67044         59.8264         4.85291 
        2.68618         59.2426         4.78298 
        2.70184         58.4795         4.71471 
        2.71755         57.6443          4.6476 
        2.73329         57.1861          4.5817 
        2.74897         56.6528         4.51729 
        2.76462         56.2957         4.45426 
        2.78034         55.5572         4.39217 
        2.79607         54.7666          4.3312 
        2.81179         54.1372         4.27146 
        2.82749         53.6757         4.21291 
        2.84321         53.2359          4.1554 
        2.85893          52.643         4.09898 
        2.87462         51.9078          4.0437 
        2.89033         51.3061         3.98939 
        2.90605         50.7469         3.93603 
        2.92176         50.3594         3.88367 
        2.93747         49.7292         3.83229 
        2.95318         49.2588         3.78184 
        2.96891         48.6579         3.73226 
        2.98456         48.2367          3.6838 
        3.00023         47.4983         3.63613 
        3.01596         47.1259         3.58915 
        3.03164         46.6882         3.54313 
        3.04738         46.2545         3.49779 
         3.0631          45.745         3.45326 
        3.07883         45.2429          3.4095 
        3.09456         44.7203          3.3665 
        3.11026         44.3122         3.32432 
        3.12596         43.9005         3.28286 
        3.14163         43.3848          3.2422 
        3.15734         42.9591         3.20214 
        3.17308         42.6008         3.16265 
        3.18879         42.2475         3.12395 
        3.20447         41.7662         3.08594 
         3.2202         41.2952         3.04845 
         3.2359         40.9593         3.01165 
        3.25157         40.4573         2.97554 
        3.26729         40.0848         2.93992 
        3.28304         39.7536         2.90481 
        3.29877         39.1728         2.87032 
        3.31446         38.9217         2.83647 
        3.33014         38.4897         2.80319 
        3.34585         38.0072         2.77039 
        3.36158         37.7274         2.73807 
        3.37727         37.3564         2.70636 
        3.39294         36.9623         2.67519 
        3.40867         36.6387          2.6444 
        3.42439         36.2079          2.6141 
        3.44008          35.947         2.58435 
        3.45578         35.5361         2.55503 
        3.47153         35.2897          2.5261 
        3.48724         34.9051         2.49767 
        3.50292         34.5421         2.46974 
        3.51859         34.3104         2.44226 
        3.53431         34.0105          2.4151 
        3.55007         33.4379          2.3883 
        3.56577         33.4039           2.362 
        3.58146         32.9281         2.33612 
        3.59719         32.6351         2.31056 
        3.61292         32.4077         2.28539 
        3.62859         32.0168         2.26069 
        3.64429         31.7394         2.23631 
        3.66003         31.4386         2.21222 
        3.67578         31.1933         2.18848 
        3.69146         30.9242         2.16519 
        3.70712         30.5292         2.14228 
        3.72284         30.2975         2.11961 
        3.73853         30.1194         2.09731 
        3.75422         29.8225         2.07532 
        3.76993          29.518         2.05363 
        3.78564         29.2647         2.03226 
        3.80137         29.0583         2.01116 
        3.81707         28.7343          1.9904 
        3.83279         28.4479         1.96992 
        3.84853         28.2194         1.94969 
        3.86424         27.8493         1.92978 
        3.87992         27.6029         1.91019 
        3.89561         27.4438         1.89086 
        3.91134         27.1834         1.87176 
        3.92704         26.8796         1.85295 
        3.94273         26.5864         1.83441 
        3.95845         26.4563          1.8161 
        3.97418         26.1534         1.79803 
        3.98988         25.9449         1.78023 
        4.00554         25.6706         1.76272 
        4.02125         25.5243         1.74539 
        4.03698         25.2709         1.72827 
        4.05268         25.0244         1.71142 
        4.06839         24.8004         1.69478 
         4.0841         24.6113         1.67837 
        4.09983         24.3233         1.66215 
        4.11555         24.1209         1.64616 
        4.13124         24.0609         1.63041 
        4.14693         23.7032         1.61486 
        4.16266         23.5372         1.59948 
        4.17839         23.3916         1.58431 
        4.19408         23.1213         1.56936 
        4.20977         22.9923         1.55461 
        4.22551         22.7884            1.54 
        4.24123         22.5502          1.5256 
        4.25691         22.3629         1.51143 
        4.27259         22.2159         1.49742 
        4.28831         22.0075         1.48357 
        4.30404         21.8188         1.46988 
        4.31974         21.6003         1.45639 
        4.33543         21.4536         1.44308 
        4.35116         21.2705         1.42991 
        4.36688         21.0607          1.4169 
        4.38255         20.8759          1.4041 
        4.39825         20.7382         1.39144 
        4.41398         20.5654          1.3789 
         4.4297         20.3944         1.36653 
        4.44541         20.1929         1.35432 
        4.46111         19.9962         1.34226 
        4.47683         19.8452         1.33035 
        4.49251         19.7321          1.3186 
        4.50819         19.5637         1.30699 
         4.5239         19.3999         1.29551 
        4.53962         19.2651         1.28415 
        4.55535         19.0668         1.27293 
        4.57106         18.9795         1.26185 
        4.58678          18.784          1.2509 
         4.6025          18.537         1.24008 
        4.61821         18.4419         1.22939 
        4.63391         18.3026         1.21884 
         4.6496         18.2091         1.20842 
        4.66532         17.9915          1.1981 
        4.68103         17.8717         1.18791 
        4.69673         17.7594         1.17785 
        4.71241         17.6389         1.16791 
        4.72811         17.4596         1.15807 
        4.74384         17.2993         1.14833 
        4.75955         17.1802         1.13872 
        4.77525         17.0562         1.12922 
        4.79096         16.8886         1.11982 
        4.80669         16.7642         1.11053 
         4.8224          16.616         1.10135 
        4.83809         16.4824         1.09228 
        4.85379         16.3826         1.08331 
         4.8695         16.2712         1.07443 
        4.88521         16.1256         1.06566 
        4.90093         15.9863         1.05698 
        4.91663         15.8373          1.0484 
        4.93234         15.7303         1.03992 
        4.94807         15.6291         1.03152 
        4.96377         15.4972         1.02323 
        4.97943         15.3909         1.01504 
        4.99514         15.2445         1.00693 
        5.01086         15.1672        0.998897 
        5.02654         15.0314        0.990973 
        5.04227         14.8964        0.983112 
          5.058         14.7923        0.975332 
        5.07371         14.6749        0.967652 
        5.08942         14.6066        0.960054 
        5.10513         14.4584        0.952536 
        5.12084         14.3652        0.945095 
        5.13656          14.262        0.937735 
        5.15225         14.1395        0.930465 
        5.16796         14.0055        0.923261 
        5.18369         13.8983        0.916127 
         5.1994         13.8184         0.90908 
        5.21509         13.6969        0.902115 
        5.23079         13.6207        0.895214 
        5.24649          13.517         0.88839 
        5.26217         13.4137        0.881643 
        5.27788         13.3004        0.874955 
        5.29359         13.1912        0.868336 
        5.30933         13.1317        0.861776 
        5.32504         13.0362        0.855295 
        5.34073         12.9267        0.848887 
        5.35646         12.8462        0.842532 
        5.37218         12.7252        0.836241 
        5.38789          12.618        0.830024 
        5.40357         12.5603        0.823878 
        5.41929          12.473         0.81778 
        5.43502         12.3681        0.811743 
         5.4507         12.2813        0.805781 
        5.46639         12.1737        0.799878 
        5.48212         12.1002        0.794021 
        5.49786          12.028        0.788215 
        5.51353         11.9248        0.782496 
        5.52921         11.8512        0.776828 
        5.54495         11.7671        0.771199 
        5.56066         11.6656        0.765633 
        5.57637         11.5954        0.760122 
        5.59207         11.5394         0.75467 
        5.60778         11.4429        0.749269 
        5.62346         11.3201        0.743929 
        5.63916         11.2726        0.738636 
        5.65487         11.2146        0.733391 
         5.6706         11.1061        0.728191 
        5.68633         11.0229         0.72304 
        5.70203         10.9565        0.717949 
        5.71773         10.8521        0.712908 
        5.73344         10.7865        0.707912 
        5.74916         10.7269         0.70296 
        5.76486         10.6579        0.698062 
        5.78054         10.5822        0.693218 
        5.79626         10.5267        0.688406 
          5.812          10.443        0.683636 
         5.8277         10.3617        0.678924 
        5.84339         10.2711        0.674257 
        5.85911         10.2027        0.669624 
        5.87484         10.1385        0.665036 
        5.89053          10.063          0.6605 
        5.90623         10.0045        0.656004 
        5.92195         9.93641        0.651543 
        5.93767          9.8933        0.647125 
        5.95336         9.79027        0.642755 
        5.96905         9.74506        0.638427 
        5.98476         9.66908        0.634133 
        6.00048         9.60866        0.629877 
        6.01617          9.5296        0.625666 
        6.03185         9.47153        0.621499 
        6.04756         9.40231        0.617359 
        6.06331          9.3523        0.613248 
        6.07903         9.28564        0.609183 
        6.09473         9.22467        0.605159 
        6.11044         9.15757        0.601168 
        6.12616         9.10057        0.597213 
        6.14186         9.04413        0.593297 
        6.15755         8.98139        0.589417 
        6.17326         8.92666        0.585569 
        6.18898         8.86099        0.581753 
        6.20467           8.792        0.577978 
        6.22036         8.73795        0.574237 
         6.2361         8.66938        0.570518 
         6.2518         8.64374        0.566839 
        6.26748          8.5606          0.5632 
        6.28319          8.5286        0.559583 
        6.29893          8.4719        0.555995 
        6.31463         8.38912        0.552444 
        6.33033         8.34581        0.548925 
        6.34604          8.3001        0.545435 
        6.36177         8.25817        0.541971 
        6.37747         8.18061        0.538544 
