# k  (h/Mpc)    Pcb(k)  (Mpc/h)^3    Pcb_linear(k) (Mpc/h)^3   ShotnoiseSubtracted = true
      0.0200456         1879.81         1904.02 
      0.0350414         1404.26         1384.16 
      0.0492313         1008.09          1005.7 
      0.0637834         825.021         836.033 
      0.0800726          652.85         663.538 
       0.096163         490.572         481.455 
       0.111083         394.391         384.021 
       0.126058         338.436         340.321 
       0.142273         286.417         288.326 
       0.158546         230.794         227.717 
        0.17375         197.408         191.852 
       0.188953         177.642         173.717 
       0.204907         152.329         153.705 
       0.220756         133.371         130.043 
        0.23588         116.493         113.126 
         0.2514           105.5         102.774 
       0.267535         97.2408          92.993 
       0.283568          85.434         82.0073 
       0.299022         77.6294         73.0643 
       0.314451         72.9148         66.7758 
       0.330372         65.3491         61.2593 
       0.346141          59.662         55.6022 
       0.361624         54.6291         50.5347 
       0.377134         49.9746         46.4999 
       0.392932         48.1892         43.0255 
       0.408854         43.8346         39.6612 
       0.424564         41.7568         36.5563 
       0.440253         38.0857         33.8919 
       0.455999         34.8192         31.5751 
       0.471626         32.8637          29.446 
        0.48727         31.8146         27.4544 
       0.502856         29.7255         25.6652 
       0.518488         27.6376         24.0688 
       0.534347         25.9558         22.5846 
       0.550082         24.9173         21.2162 
       0.565732         23.8956         19.9643 
       0.581496         22.4715         18.8177 
       0.597222         21.1875         17.7661 
       0.612804         20.0946         16.7992 
       0.628434         19.6271         15.8979 
       0.644267         18.5793         15.0553 
       0.660051         17.6033         14.2787 
       0.675724         16.7206         13.5616 
       0.691403         16.2983         12.8932 
       0.707174         15.5666          12.266 
       0.722871         15.0864          11.683 
        0.73838         14.2162         11.1442 
       0.754018         13.5208         10.6353 
       0.769845         13.0608         10.1526 
        0.78569         12.6866         9.69952 
       0.801365         12.1505         9.27857 
       0.817031         11.7315         8.88299 
       0.832809         11.2647         8.50807 
       0.848511         10.9343         8.15657 
       0.864097         10.5402         7.82745 
       0.879701         10.3255         7.51625 
       0.895507         9.93011         7.21839 
       0.911279         9.51751         6.93736 
        0.92691         9.27981         6.67369 
       0.942635         8.99691         6.42233 
       0.958396         8.68278         6.18344 
       0.974128         8.47539         5.95719 
       0.989692         8.07484         5.74454 
        1.00528         7.99299           5.542 
        1.02113         7.71961         5.34609 
        1.03692         7.52969         5.16042 
        1.05264         7.30041         4.98446 
        1.06832         7.12401           4.817 
        1.08405         6.94024         4.65683 
        1.09979         6.75828         4.50387 
        1.11537         6.58156         4.35933 
        1.13105         6.41683         4.22029 
        1.14679         6.27139         4.08681 
        1.16256         6.09326         3.95885 
        1.17828         5.98641         3.83682 
        1.19395         5.80924         3.72036 
         1.2097         5.63302         3.60817 
        1.22537         5.49881         3.50115 
          1.241          5.3677         3.39882 
        1.25666          5.3343         3.30033 
        1.27241         5.21112          3.2053 
        1.28819         5.00125         3.11386 
        1.30392         4.91516         3.02627 
        1.31957         4.82933         2.94245 
        1.33529         4.71351          2.8615 
        1.35108         4.61123         2.78329 
        1.36674         4.49632         2.70857 
         1.3824         4.44776         2.63667 
        1.39811         4.34133         2.56715 
        1.41389          4.2305         2.49988 
        1.42964         4.17051         2.43514 
        1.44531         4.08889         2.37301 
        1.46101         4.03051         2.31292 
        1.47667         3.93745          2.2551 
        1.49229         3.82185         2.19942 
        1.50793         3.75162         2.14556 
        1.52367         3.68311         2.09316 
        1.53953         3.60983         2.04216 
        1.55526         3.60557         1.99328 
        1.57092         3.50522          1.9462 
        1.58662         3.46173         1.90053 
        1.60235         3.38178         1.85624 
        1.61809          3.3247         1.81335 
        1.63369         3.26622         1.77219 
        1.64941         3.21068         1.73202 
        1.66519         3.16951         1.69295 
        1.68085         3.10412         1.65537 
        1.69652         3.05808         1.61892 
        1.71228          3.0111         1.58337 
        1.72806         2.96693         1.54885 
        1.74368         2.91912         1.51572 
        1.75933         2.87458         1.48348 
        1.77505         2.81897         1.45204 
        1.79081         2.78411         1.42145 
         1.8065         2.74357         1.39188 
        1.82218         2.69072         1.36318 
        1.83797         2.64459         1.33509 
        1.85367          2.6076         1.30795 
        1.86928         2.58124         1.28172 
        1.88497         2.52375         1.25608 
        1.90073         2.50454         1.23104 
        1.91647         2.46265         1.20671 
        1.93218         2.42859         1.18309 
        1.94787         2.39741         1.16013 
        1.96363           2.366          1.1377 
        1.97935         2.32701         1.11591 
        1.99499         2.29766         1.09481 
        2.01064         2.27127         1.07422 
         2.0264         2.23045         1.05404 
        2.04216         2.20556         1.03439 
        2.05781         2.17106         1.01536 
        2.07353         2.15802        0.996744 
        2.08928         2.12061        0.978555 
        2.10499         2.08563        0.960869 
        2.12065         2.07661        0.943673 
        2.13633         2.04165        0.926884 
        2.15211         2.00874        0.910396 
        2.16785           1.989        0.894355 
        2.18349         1.96093        0.878801 
        2.19916         1.94721        0.863585 
        2.21489         1.92469         0.84868 
        2.23063         1.88749        0.834117 
         2.2463         1.85967        0.819961 
        2.26194         1.84791        0.806169 
        2.27765         1.80849        0.792624 
        2.29341         1.79731        0.779355 
        2.30914         1.77248        0.766418 
        2.32486         1.76659        0.753782 
        2.34061         1.74237         0.74141 
        2.35635         1.72149        0.729327 
        2.37203         1.70365        0.717555 
        2.38768         1.68368        0.706068 
        2.40339         1.66333        0.694791 
        2.41914         1.64582        0.683734 
        2.43483         1.62772        0.672957 
         2.4505          1.6082         0.66243 
        2.46622         1.58657        0.652093 
        2.48195         1.57556        0.641975 
        2.49759         1.55409        0.632127 
        2.51328         1.54158        0.622459 
        2.52906          1.5287        0.612933 
        2.54479         1.50657        0.603641 
        2.56049         1.49393        0.594561 
        2.57618         1.47723        0.585675 
        2.59189          1.4679        0.576957 
        2.60758         1.44773        0.568431 
        2.62325         1.42944        0.560088 
        2.63898         1.41573        0.551883 
        2.65468         1.39647        0.543859 
        2.67044         1.39397        0.535961 
        2.68618         1.37884        0.528238 
        2.70184         1.36372        0.520698 
        2.71755         1.35514        0.513286 
        2.73329         1.33398        0.506008 
        2.74897         1.32458        0.498894 
        2.76462         1.31195        0.491933 
        2.78034         1.30843        0.485076 
        2.79607          1.2886        0.478343 
        2.81179         1.27638        0.471745 
        2.82749         1.26325        0.465279 
        2.84321         1.25504        0.458927 
        2.85893         1.24091        0.452695 
        2.87462         1.23282         0.44659 
        2.89033         1.22001        0.440592 
        2.90605          1.2121        0.434699 
        2.92176         1.20167        0.428917 
        2.93747         1.19068        0.423243 
        2.95318         1.17663         0.41767 
        2.96891         1.17444        0.412195 
        2.98456         1.15809        0.406843 
        3.00023         1.14748        0.401578 
        3.01596         1.13563        0.396389 
        3.03164         1.12927        0.391308 
        3.04738         1.12185          0.3863 
         3.0631         1.10903        0.381382 
        3.07883         1.10178        0.376549 
        3.09456         1.09018          0.3718 
        3.11026         1.08604        0.367141 
        3.12596         1.07295        0.362562 
        3.14163         1.06871        0.358072 
        3.15734         1.05705        0.353648 
        3.17308         1.05161        0.349287 
        3.18879         1.04438        0.345012 
        3.20447         1.03405        0.340815 
         3.2202         1.02547        0.336674 
         3.2359         1.01799         0.33261 
        3.25157         1.00977        0.328623 
        3.26729         1.00368        0.324688 
        3.28304        0.995622        0.320811 
        3.29877        0.986642        0.317002 
        3.31446        0.983298        0.313263 
        3.33014        0.967947        0.309587 
        3.34585        0.965915        0.305965 
        3.36158         0.95862        0.302395 
        3.37727        0.955186        0.298894 
        3.39294        0.943678        0.295451 
        3.40867        0.940848         0.29205 
        3.42439        0.936239        0.288705 
        3.44008         0.92682        0.285418 
        3.45578        0.919135         0.28218 
        3.47153        0.913358        0.278985 
        3.48724        0.906425        0.275845 
        3.50292        0.897723        0.272761 
        3.51859        0.898442        0.269726 
        3.53431        0.887692        0.266727 
        3.55007        0.884556        0.263766 
        3.56577        0.878489        0.260862 
        3.58146        0.873419        0.258003 
        3.59719        0.866678        0.255181 
        3.61292        0.859598        0.252401 
        3.62859        0.855203        0.249673 
        3.64429        0.847815        0.246981 
        3.66003         0.84248         0.24432 
        3.67578        0.837919        0.241699 
        3.69146        0.833638        0.239126 
        3.70712        0.828142        0.236595 
        3.72284        0.822831        0.234092 
        3.73853        0.815927        0.231629 
        3.75422        0.813309        0.229201 
        3.76993        0.806013        0.226806 
        3.78564        0.801575        0.224445 
        3.80137        0.797264        0.222115 
        3.81707        0.791421        0.219822 
        3.83279        0.786831         0.21756 
        3.84853        0.781886        0.215326 
        3.86424        0.774357        0.213127 
        3.87992        0.774588        0.210963 
        3.89561        0.768401        0.208829 
        3.91134        0.761642        0.206719 
        3.92704        0.757512        0.204642 
        3.94273        0.753064        0.202595 
        3.95845         0.74862        0.200572 
        3.97418        0.744468        0.198576 
        3.98988        0.740131         0.19661 
        4.00554        0.733417        0.194677 
        4.02125        0.729184        0.192763 
        4.03698        0.723819        0.190873 
        4.05268         0.71908        0.189012 
        4.06839        0.712631        0.187174 
         4.0841        0.707042        0.185361 
        4.09983        0.703423         0.18357 
        4.11555         0.69829        0.181803 
        4.13124         0.69133        0.180065 
        4.14693        0.689157        0.178347 
        4.16266        0.680613        0.176648 
        4.17839        0.676773        0.174972 
        4.19408        0.674778        0.173322 
        4.20977        0.669137        0.171692 
        4.22551        0.666564         0.17008 
        4.24123        0.659976        0.168489 
        4.25691        0.655635        0.166924 
        4.27259        0.652685        0.165377 
        4.28831        0.649429        0.163847 
        4.30404        0.646557        0.162335 
        4.31974         0.63988        0.160846 
        4.33543        0.636716        0.159376 
        4.35116        0.632602        0.157921 
        4.36688        0.628099        0.156484 
        4.38255        0.626166        0.155071 
        4.39825        0.623313        0.153672 
        4.41398        0.618436        0.152287 
         4.4297        0.617965        0.150921 
        4.44541        0.611782        0.149572 
        4.46111        0.609684        0.148241 
        4.47683        0.606978        0.146925 
        4.49251        0.604089        0.145627 
        4.50819        0.601314        0.144346 
         4.5239        0.598367        0.143078 
        4.53962        0.592642        0.141823 
        4.55535        0.593836        0.140583 
        4.57106         0.58979         0.13936 
        4.58678        0.587989        0.138151 
         4.6025        0.584924        0.136956 
        4.61821         0.58299        0.135775 
        4.63391        0.582566         0.13461 
         4.6496         0.57829        0.133459 
        4.66532        0.576095         0.13232 
        4.68103         0.57428        0.131194 
        4.69673        0.570432        0.130083 
        4.71241        0.570772        0.128985 
        4.72811         0.56802        0.127899 
        4.74384        0.567053        0.126823 
        4.75955        0.565665        0.125762 
        4.77525        0.562303        0.124713 
        4.79096         0.56192        0.123675 
        4.80669        0.559219        0.122648 
         4.8224         0.55721        0.121634 
        4.83809        0.555622        0.120633 
        4.85379        0.555241        0.119642 
         4.8695        0.553346        0.118661 
        4.88521        0.552101        0.117692 
        4.90093        0.550412        0.116734 
        4.91663        0.549297        0.115787 
        4.93234        0.547105        0.114849 
        4.94807        0.547396        0.113922 
        4.96377        0.547299        0.113006 
        4.97943          0.5451        0.112102 
        4.99514        0.543402        0.111206 
        5.01086        0.542504        0.110319 
        5.02654         0.54285        0.109444 
        5.04227        0.540528        0.108576 
          5.058        0.541115        0.107717 
        5.07371        0.538785        0.106869 
        5.08942         0.54003        0.106029 
        5.10513        0.538868        0.105199 
        5.12084        0.536507        0.104377 
        5.13656          0.5376        0.103564 
        5.15225        0.536864        0.102762 
        5.16796        0.536353        0.101966 
        5.18369         0.53485        0.101178 
         5.1994         0.53538          0.1004 
        5.21509        0.535012       0.0996306 
        5.23079        0.533249       0.0988684 
        5.24649        0.534469       0.0981148 
        5.26217        0.534538       0.0973696 
        5.27788        0.534756       0.0966311 
        5.29359        0.534293       0.0959001 
        5.30933         0.53396       0.0951756 
        5.32504        0.533001       0.0944597 
        5.34073        0.533492       0.0937521 
        5.35646        0.533143       0.0930502 
        5.37218        0.534624       0.0923554 
        5.38789        0.532204       0.0916688 
        5.40357        0.532528         0.09099 
        5.41929        0.533891       0.0903165 
        5.43502        0.533568       0.0896498 
         5.4507        0.533929       0.0889914 
        5.46639        0.533649       0.0883395 
        5.48212        0.534583       0.0876926 
        5.49786        0.534979       0.0870514 
        5.51353        0.534489       0.0864198 
        5.52921        0.534362       0.0857938 
        5.54495         0.53546       0.0851721 
        5.56066        0.535889       0.0845573 
        5.57637        0.535718       0.0839487 
        5.59207        0.537151       0.0833466 
        5.60778        0.536906       0.0827501 
        5.62346        0.536607       0.0821603 
        5.63916        0.537194       0.0815757 
        5.65487        0.536935       0.0809965 
         5.6706        0.537377       0.0804223 
        5.68633        0.539362       0.0798533 
        5.70203        0.539372       0.0792911 
        5.71773        0.539625       0.0787343 
        5.73344        0.540879       0.0781826 
        5.74916        0.540429       0.0776357 
        5.76486        0.541965       0.0770947 
        5.78054        0.541928       0.0765598 
        5.79626        0.541084       0.0760284 
          5.812        0.542321       0.0755015 
         5.8277        0.543344       0.0749811 
        5.84339        0.543816       0.0744657 
        5.85911        0.545307       0.0739541 
        5.87484        0.544816       0.0734474 
        5.89053         0.54675       0.0729464 
        5.90623        0.547323       0.0724499 
        5.92195        0.546848       0.0719571 
        5.93767        0.548543       0.0714692 
        5.95336        0.549426       0.0709866 
        5.96905        0.548208       0.0705086 
        5.98476        0.548531       0.0700344 
        6.00048        0.549995       0.0695644 
        6.01617        0.549736       0.0690993 
        6.03185        0.551353        0.068639 
        6.04756        0.551863       0.0681818 
        6.06331        0.553811       0.0677278 
        6.07903        0.554059       0.0672789 
        6.09473        0.553995       0.0668345 
        6.11044        0.553137       0.0663936 
        6.12616        0.556105       0.0659569 
        6.14186        0.555165       0.0655244 
        6.15755        0.556517       0.0650959 
        6.17326        0.557909       0.0646709 
        6.18898        0.557612       0.0642495 
        6.20467        0.559542       0.0638325 
        6.22036        0.559591       0.0634193 
         6.2361        0.559199       0.0630087 
         6.2518        0.559894       0.0626023 
        6.26748        0.560746       0.0622005 
        6.28319        0.561286        0.061801 
        6.29893        0.563213       0.0614047 
        6.31463        0.563338       0.0610125 
        6.33033        0.562404       0.0606239 
        6.34604        0.564096       0.0602384 
        6.36177        0.564028       0.0598559 
        6.37747        0.566225       0.0594774 
