# k  (h/Mpc)    Pcb(k)  (Mpc/h)^3    Pcb_linear(k) (Mpc/h)^3   ShotnoiseSubtracted = true
      0.0200456         2959.18         3004.29 
      0.0350414         2157.88         2184.02 
      0.0492313         1588.83         1586.87 
      0.0637834          1336.5         1319.15 
      0.0800726         1059.53         1046.97 
       0.096163         753.698         759.671 
       0.111083         597.874         605.933 
       0.126058         541.998          536.98 
       0.142273         464.103          454.94 
       0.158546         372.065         359.307 
        0.17375         305.043         302.716 
       0.188953           284.1         274.103 
       0.204907         262.273         242.525 
       0.220756         218.719         205.191 
        0.23588         190.677         178.498 
         0.2514         169.926         162.164 
       0.267535         157.496          146.73 
       0.283568          141.22         129.397 
       0.299022          128.46         115.286 
       0.314451         115.364         105.363 
       0.330372         107.295         96.6589 
       0.346141         97.1259         87.7327 
       0.361624         90.4599          79.737 
       0.377134         85.0633         73.3707 
       0.392932         75.7437         67.8884 
       0.408854         72.9163           62.58 
       0.424564          68.927         57.6809 
       0.440253         63.5864         53.4769 
       0.455999         59.9073         49.8213 
       0.471626         55.9235         46.4619 
        0.48727         53.4699         43.3193 
       0.502856         50.2778         40.4962 
       0.518488         48.0917         37.9773 
       0.534347         46.1756         35.6355 
       0.550082         42.2619         33.4763 
       0.565732         39.5952          31.501 
       0.581496         38.6399         29.6918 
       0.597222         37.3476         28.0326 
       0.612804         34.8979         26.5068 
       0.628434          33.708         25.0848 
       0.644267         32.8073         23.7552 
       0.660051         31.1713         22.5299 
       0.675724         29.5798         21.3984 
       0.691403         28.6405         20.3437 
       0.707174         27.6915         19.3541 
       0.722871         26.5829         18.4343 
        0.73838         25.6463         17.5841 
       0.754018         24.6126         16.7811 
       0.769845         23.8531         16.0195 
        0.78569          23.087         15.3045 
       0.801365         22.2237         14.6403 
       0.817031         21.6555         14.0162 
       0.832809         21.2002         13.4246 
       0.848511         19.9121           12.87 
       0.864097          19.554         12.3507 
       0.879701         19.0458         11.8596 
       0.895507          18.443         11.3896 
       0.911279          17.951         10.9462 
        0.92691         17.4721         10.5302 
       0.942635         16.7602         10.1336 
       0.958396          16.403         9.75663 
       0.974128         15.9292         9.39964 
       0.989692         15.7746         9.06411 
        1.00528         15.3337         8.74453 
        1.02113          14.695         8.43542 
        1.03692         14.3767         8.14245 
        1.05264         14.0923          7.8648 
        1.06832         13.7528         7.60058 
        1.08405         13.3322         7.34785 
        1.09979         13.0542         7.10651 
        1.11537         12.8293         6.87844 
        1.13105         12.5348         6.65905 
        1.14679         12.3362         6.44843 
        1.16256         11.8913         6.24654 
        1.17828         11.8583         6.05399 
        1.19395         11.4056         5.87023 
         1.2097         11.2484          5.6932 
        1.22537         10.9516         5.52435 
          1.241         10.7941         5.36288 
        1.25666         10.5776         5.20748 
        1.27241         10.3054         5.05753 
        1.28819         10.1008         4.91326 
        1.30392         10.0046         4.77505 
        1.31957         9.80729         4.64278 
        1.33529         9.62779         4.51507 
        1.35108          9.3766         4.39166 
        1.36674         9.33028         4.27376 
         1.3824         9.04321         4.16031 
        1.39811         8.91627         4.05062 
        1.41389         8.77616         3.94447 
        1.42964         8.66178         3.84232 
        1.44531         8.51909         3.74429 
        1.46101         8.31457         3.64948 
        1.47667         8.20909         3.55825 
        1.49229         8.10862         3.47039 
        1.50793         7.93306         3.38541 
        1.52367         7.81895         3.30273 
        1.53953         7.68949         3.22226 
        1.55526         7.57869         3.14512 
        1.57092          7.4954         3.07084 
        1.58662         7.36062         2.99878 
        1.60235         7.25317          2.9289 
        1.61809         7.13773         2.86122 
        1.63369         7.02701         2.79628 
        1.64941         6.92771          2.7329 
        1.66519         6.86378         2.67125 
        1.68085         6.73537         2.61196 
        1.69652         6.62497         2.55444 
        1.71228         6.54104         2.49834 
        1.72806         6.47573         2.44388 
        1.74368         6.35345         2.39159 
        1.75933         6.30067         2.34074 
        1.77505         6.21077         2.29112 
        1.79081         6.08532         2.24286 
         1.8065         6.05357          2.1962 
        1.82218         5.95807         2.15091 
        1.83797         5.91305         2.10659 
        1.85367         5.79953         2.06376 
        1.86928         5.77826         2.02239 
        1.88497         5.65869         1.98192 
        1.90073         5.58116         1.94242 
        1.91647         5.54182         1.90402 
        1.93218         5.47278         1.86675 
        1.94787         5.40802         1.83054 
        1.96363         5.34804         1.79514 
        1.97935         5.26468         1.76075 
        1.99499         5.19503         1.72746 
        2.01064         5.14718         1.69498 
         2.0264         5.08444         1.66314 
        2.04216         5.04122         1.63213 
        2.05781         4.97363          1.6021 
        2.07353         4.92379         1.57273 
        2.08928         4.88271         1.54403 
        2.10499         4.82921         1.51612 
        2.12065         4.77231         1.48899 
        2.13633         4.72049          1.4625 
        2.15211         4.65667         1.43648 
        2.16785         4.61106         1.41117 
        2.18349         4.56147         1.38663 
        2.19916         4.49798         1.36262 
        2.21489         4.47181          1.3391 
        2.23063          4.4152         1.31612 
         2.2463         4.37632         1.29379 
        2.26194         4.31712         1.27203 
        2.27765         4.30158         1.25065 
        2.29341         4.24044         1.22972 
        2.30914         4.20272          1.2093 
        2.32486         4.15505         1.18937 
        2.34061         4.13367         1.16985 
        2.35635         4.08189         1.15078 
        2.37203         4.06002         1.13221 
        2.38768         4.00852         1.11408 
        2.40339         3.96695         1.09629 
        2.41914          3.9181         1.07884 
        2.43483          3.9119         1.06183 
         2.4505         3.85052         1.04523 
        2.46622         3.83211         1.02891 
        2.48195         3.77881         1.01295 
        2.49759         3.76344        0.997411 
        2.51328         3.72014        0.982157 
        2.52906         3.70934        0.967125 
        2.54479         3.65163        0.952465 
        2.56049         3.63332        0.938137 
        2.57618         3.58567        0.924116 
        2.59189         3.57555        0.910361 
        2.60758         3.54392        0.896908 
        2.62325         3.50525        0.883743 
        2.63898         3.46022        0.870796 
        2.65468         3.44171        0.858136 
        2.67044         3.41353        0.845674 
        2.68618         3.38862        0.833488 
        2.70184         3.35321        0.821591 
        2.71755          3.3332        0.809897 
        2.73329          3.3046        0.798412 
        2.74897         3.29214        0.787188 
        2.76462          3.2577        0.776204 
        2.78034         3.21671        0.765385 
        2.79607         3.19366         0.75476 
        2.81179         3.18093         0.74435 
        2.82749         3.13485        0.734147 
        2.84321         3.12788        0.724125 
        2.85893         3.10254        0.714292 
        2.87462          3.0787        0.704659 
        2.89033         3.05538        0.695195 
        2.90605         3.03065        0.685897 
        2.92176         2.99735        0.676773 
        2.93747          2.9779         0.66782 
        2.95318         2.95677        0.659027 
        2.96891         2.94513        0.650389 
        2.98456         2.91859        0.641944 
        3.00023          2.8907        0.633636 
        3.01596           2.873        0.625449 
        3.03164         2.85347        0.617431 
        3.04738         2.83026        0.609529 
         3.0631         2.80799        0.601769 
        3.07883         2.79462        0.594143 
        3.09456         2.76958        0.586651 
        3.11026         2.75334        0.579299 
        3.12596         2.72675        0.572075 
        3.14163         2.70828         0.56499 
        3.15734         2.69046        0.558008 
        3.17308         2.67418        0.551128 
        3.18879         2.65952        0.544383 
        3.20447         2.64731         0.53776 
         3.2202          2.6144        0.531227 
         3.2359         2.60884        0.524814 
        3.25157         2.58935        0.518522 
        3.26729         2.56124        0.512314 
        3.28304         2.55778        0.506196 
        3.29877         2.53506        0.500186 
        3.31446          2.5139        0.494286 
        3.33014         2.50429        0.488487 
        3.34585          2.4875        0.482772 
        3.36158         2.47412        0.477139 
        3.37727         2.44212        0.471614 
        3.39294         2.44037        0.466182 
        3.40867         2.41413        0.460816 
        3.42439         2.40796        0.455537 
        3.44008         2.39056        0.450351 
        3.45578         2.37908        0.445242 
        3.47153          2.3591        0.440201 
        3.48724         2.34841        0.435247 
        3.50292         2.33903        0.430381 
        3.51859          2.3151        0.425591 
        3.53431         2.30206        0.420859 
        3.55007         2.28991        0.416188 
        3.56577          2.2707        0.411606 
        3.58146         2.26377        0.407095 
        3.59719         2.25128        0.402641 
        3.61292         2.23645        0.398255 
        3.62859         2.21775        0.393951 
        3.64429         2.20191        0.389702 
        3.66003         2.19798        0.385504 
        3.67578         2.18174        0.381368 
        3.69146         2.16681        0.377309 
        3.70712         2.15058        0.373316 
        3.72284         2.14011        0.369366 
        3.73853         2.12719         0.36548 
        3.75422         2.11559        0.361648 
        3.76993         2.09553        0.357869 
        3.78564         2.08991        0.354144 
        3.80137         2.07852        0.350467 
        3.81707         2.05908        0.346849 
        3.83279         2.04724         0.34328 
        3.84853           2.045        0.339755 
        3.86424         2.02713        0.336286 
        3.87992           2.018        0.332871 
        3.89561         2.00253        0.329504 
        3.91134           1.998        0.326176 
        3.92704         1.98182        0.322897 
        3.94273         1.97174        0.319667 
        3.95845         1.95884        0.316475 
        3.97418         1.94641        0.313327 
        3.98988          1.9314        0.310225 
        4.00554         1.91646        0.307173 
        4.02125         1.91476        0.304154 
        4.03698         1.89965        0.301171 
        4.05268         1.88998        0.298235 
        4.06839         1.87774        0.295335 
         4.0841         1.86644        0.292475 
        4.09983         1.85262        0.289649 
        4.11555         1.84235        0.286861 
        4.13124         1.83362        0.284118 
        4.14693         1.81748        0.281408 
        4.16266         1.80724        0.278727 
        4.17839         1.79389        0.276083 
        4.19408         1.78614        0.273479 
        4.20977         1.77159        0.270907 
        4.22551         1.76518        0.268363 
        4.24123         1.75284        0.265853 
        4.25691         1.74124        0.263383 
        4.27259         1.73207        0.260943 
        4.28831         1.72186        0.258529 
        4.30404         1.71236        0.256144 
        4.31974          1.7029        0.253793 
        4.33543         1.69332        0.251474 
        4.35116         1.68642        0.249177 
        4.36688         1.67273        0.246911 
        4.38255         1.66023        0.244681 
        4.39825         1.65273        0.242473 
        4.41398         1.64403        0.240289 
         4.4297         1.63767        0.238134 
        4.44541         1.62728        0.236005 
        4.46111         1.61936        0.233904 
        4.47683         1.61104        0.231828 
        4.49251         1.60263         0.22978 
        4.50819         1.59648        0.227758 
         4.5239         1.58858        0.225757 
        4.53962         1.58016        0.223778 
        4.55535         1.57196        0.221822 
        4.57106         1.56251        0.219892 
        4.58678         1.55587        0.217984 
         4.6025         1.54906        0.216098 
        4.61821         1.53746        0.214235 
        4.63391         1.53132        0.212397 
         4.6496         1.52483        0.210581 
        4.66532         1.52004        0.208783 
        4.68103         1.51227        0.207007 
        4.69673         1.50482        0.205253 
        4.71241         1.49869        0.203521 
        4.72811         1.48953        0.201807 
        4.74384         1.48433         0.20011 
        4.75955         1.47645        0.198435 
        4.77525          1.4696         0.19678 
        4.79096         1.46504        0.195142 
        4.80669          1.4543        0.193522 
         4.8224         1.45291        0.191922 
        4.83809         1.44608        0.190342 
        4.85379         1.43673        0.188779 
         4.8695         1.43247        0.187231 
        4.88521          1.4258        0.185702 
        4.90093         1.41934         0.18419 
        4.91663          1.4149        0.182696 
        4.93234         1.40945        0.181217 
        4.94807         1.39968        0.179753 
        4.96377         1.39507        0.178308 
        4.97943         1.39044        0.176883 
        4.99514         1.38338        0.175469 
        5.01086         1.38099        0.174069 
        5.02654         1.37388        0.172688 
        5.04227         1.36859        0.171318 
          5.058         1.36255        0.169963 
        5.07371         1.35749        0.168624 
        5.08942         1.35052          0.1673 
        5.10513         1.34454         0.16599 
        5.12084         1.34115        0.164693 
        5.13656         1.33615        0.163411 
        5.15225         1.33151        0.162144 
        5.16796         1.32631        0.160889 
        5.18369         1.31991        0.159645 
         5.1994         1.31626        0.158417 
        5.21509         1.31065        0.157204 
        5.23079         1.30812        0.156001 
        5.24649         1.30405        0.154812 
        5.26217         1.29644        0.153636 
        5.27788         1.29051        0.152471 
        5.29359         1.28795        0.151317 
        5.30933         1.28392        0.150174 
        5.32504           1.279        0.149045 
        5.34073         1.27544        0.147928 
        5.35646         1.27247        0.146821 
        5.37218         1.26621        0.145724 
        5.38789         1.26207        0.144641 
        5.40357         1.25503         0.14357 
        5.41929         1.24993        0.142507 
        5.43502         1.24721        0.141455 
         5.4507         1.24129        0.140416 
        5.46639         1.23929        0.139388 
        5.48212         1.23523        0.138367 
        5.49786         1.22994        0.137355 
        5.51353         1.22413        0.136359 
        5.52921         1.21996        0.135371 
        5.54495         1.21617         0.13439 
        5.56066         1.21602         0.13342 
        5.57637         1.21034         0.13246 
        5.59207         1.20645         0.13151 
        5.60778         1.20127        0.130569 
        5.62346         1.19876        0.129638 
        5.63916         1.19718        0.128716 
        5.65487          1.1915        0.127802 
         5.6706         1.18944        0.126895 
        5.68633         1.18469        0.125998 
        5.70203         1.18026        0.125111 
        5.71773         1.17642        0.124232 
        5.73344         1.17421        0.123362 
        5.74916         1.16962        0.122499 
        5.76486         1.16455        0.121645 
        5.78054         1.16444        0.120801 
        5.79626         1.16058        0.119963 
          5.812         1.15447        0.119131 
         5.8277          1.1522         0.11831 
        5.84339         1.15016        0.117497 
        5.85911         1.14704         0.11669 
        5.87484         1.14471         0.11589 
        5.89053         1.13864          0.1151 
        5.90623         1.13549        0.114316 
        5.92195         1.13352        0.113539 
        5.93767         1.13036        0.112769 
        5.95336           1.124        0.112007 
        5.96905         1.12228        0.111253 
        5.98476         1.11949        0.110505 
        6.00048         1.11521        0.109763 
        6.01617         1.11295        0.109029 
        6.03185         1.10811        0.108303 
        6.04756         1.10789        0.107582 
        6.06331          1.1047        0.106865 
        6.07903         1.10313        0.106157 
        6.09473         1.09835        0.105456 
        6.11044         1.09786         0.10476 
        6.12616         1.09154        0.104071 
        6.14186         1.08811        0.103389 
        6.15755         1.08856        0.102713 
        6.17326         1.08345        0.102042 
        6.18898         1.08166        0.101377 
        6.20467         1.07909        0.100719 
        6.22036         1.07296        0.100067 
         6.2361         1.07326       0.0994192 
         6.2518         1.06805       0.0987781 
        6.26748          1.0668       0.0981439 
        6.28319         1.06262       0.0975136 
        6.29893          1.0604       0.0968883 
        6.31463          1.0561       0.0962696 
        6.33033         1.05348       0.0956564 
        6.34604         1.05066       0.0950481 
        6.36177         1.04952       0.0944446 
        6.37747          1.0473       0.0938474 
