# k  (h/Mpc)    Pcb(k)  (Mpc/h)^3    Pcb_linear(k) (Mpc/h)^3   ShotnoiseSubtracted = true
      0.0200456          1287.9         1304.43 
      0.0350414         960.433         948.277 
      0.0492313         691.086             689 
      0.0637834         566.534         572.759 
      0.0800726         448.441         454.585 
       0.096163         335.311         329.841 
       0.111083         269.164          263.09 
       0.126058         231.928         233.151 
       0.142273         196.107          197.53 
       0.158546         157.537         156.007 
        0.17375         134.432         131.436 
       0.188953         120.798         119.012 
       0.204907         103.968         105.302 
       0.220756          90.575         89.0916 
        0.23588         79.0065          77.502 
         0.2514         71.6366         70.4098 
       0.267535         65.6304         63.7088 
       0.283568         57.7415         56.1826 
       0.299022         52.1349         50.0558 
       0.314451         48.7252         45.7476 
       0.330372         43.8835         41.9683 
       0.346141         39.9823         38.0926 
       0.361624         36.4564         34.6209 
       0.377134         33.3809         31.8567 
       0.392932         32.0391         29.4764 
       0.408854         29.0079         27.1716 
       0.424564         27.5616         25.0444 
       0.440253         25.1603         23.2191 
       0.455999         23.0269         21.6319 
       0.471626         21.6468         20.1732 
        0.48727         20.8593         18.8088 
       0.502856         19.5239          17.583 
       0.518488         18.0406         16.4893 
       0.534347         16.8983         15.4726 
       0.550082          16.204         14.5351 
       0.565732          15.501         13.6774 
       0.581496         14.5779         12.8918 
       0.597222         13.7227         12.1714 
       0.612804         12.9597          11.509 
       0.628434         12.5703         10.8915 
       0.644267         11.9201         10.3143 
       0.660051         11.2823         9.78222 
       0.675724         10.6759         9.29095 
       0.691403         10.3377         8.83299 
       0.707174         9.84416         8.40333 
       0.722871         9.57564         8.00396 
        0.73838         8.97068         7.63481 
       0.754018         8.55344         7.28616 
       0.769845         8.18017         6.95549 
        0.78569         7.96503         6.64506 
       0.801365         7.60995         6.35667 
       0.817031          7.3517         6.08566 
       0.832809         7.00017         5.82881 
       0.848511         6.80195           5.588 
       0.864097         6.55105         5.36252 
       0.879701         6.38763         5.14933 
       0.895507         6.12346         4.94526 
       0.911279         5.88801         4.75273 
        0.92691         5.72086         4.57209 
       0.942635          5.4983         4.39988 
       0.958396         5.31676         4.23622 
       0.974128         5.18065         4.08122 
       0.989692         4.93952         3.93554 
        1.00528         4.85338         3.79678 
        1.02113         4.69948         3.66257 
        1.03692         4.57674         3.53536 
        1.05264         4.40072         3.41481 
        1.06832         4.28916         3.30009 
        1.08405         4.16781         3.19036 
        1.09979         4.06328         3.08557 
        1.11537         3.94445         2.98654 
        1.13105          3.8197         2.89129 
        1.14679         3.72407         2.79984 
        1.16256         3.60633         2.71218 
        1.17828         3.55645         2.62858 
        1.19395         3.42551         2.54879 
         1.2097         3.32918         2.47193 
        1.22537         3.22713         2.39861 
          1.241         3.16107          2.3285 
        1.25666         3.11935         2.26103 
        1.27241         3.04553         2.19593 
        1.28819         2.92355         2.13328 
        1.30392         2.85687         2.07327 
        1.31957          2.8146         2.01585 
        1.33529         2.71196         1.96039 
        1.35108          2.6617         1.90681 
        1.36674         2.59276         1.85562 
         1.3824         2.56118         1.80636 
        1.39811         2.48988         1.75873 
        1.41389         2.42818         1.71265 
        1.42964         2.37988         1.66829 
        1.44531         2.33814         1.62573 
        1.46101          2.2848         1.58457 
        1.47667         2.23963         1.54495 
        1.49229         2.16492         1.50681 
        1.50793         2.11363         1.46991 
        1.52367         2.07791         1.43401 
        1.53953         2.02759         1.39907 
        1.55526          2.0259         1.36558 
        1.57092         1.97179         1.33332 
        1.58662         1.94982         1.30204 
        1.60235         1.88433          1.2717 
        1.61809         1.85485         1.24231 
        1.63369          1.8139         1.21411 
        1.64941         1.78382         1.18659 
        1.66519         1.75829         1.15983 
        1.68085         1.71433         1.13408 
        1.69652         1.68487         1.10911 
        1.71228         1.65058         1.08475 
        1.72806         1.62691         1.06111 
        1.74368         1.59699          1.0384 
        1.75933         1.57304         1.01632 
        1.77505         1.54397        0.994781 
        1.79081         1.50726        0.973826 
         1.8065         1.49029        0.953566 
        1.82218         1.45558        0.933901 
        1.83797         1.43119        0.914658 
        1.85367          1.4092        0.896063 
        1.86928         1.38628        0.878098 
        1.88497         1.35846        0.860529 
        1.90073         1.34782        0.843376 
        1.91647         1.31365        0.826707 
        1.93218         1.29718        0.810524 
        1.94787         1.27661        0.794799 
        1.96363           1.259         0.77943 
        1.97935         1.23528        0.764499 
        1.99499         1.21662        0.750044 
        2.01064         1.19896        0.735943 
         2.0264          1.1754        0.722116 
        2.04216         1.16326        0.708651 
        2.05781         1.14005        0.695615 
        2.07353         1.13031        0.682862 
        2.08928         1.10931          0.6704 
        2.10499         1.09182        0.658283 
        2.12065         1.07529        0.646503 
        2.13633         1.06157        0.635001 
        2.15211         1.04008        0.623705 
        2.16785         1.03059        0.612715 
        2.18349         1.01254         0.60206 
        2.19916         1.00288        0.591635 
        2.21489        0.988273        0.581424 
        2.23063        0.968077        0.571447 
         2.2463        0.955471        0.561749 
        2.26194        0.945925          0.5523 
        2.27765        0.929444         0.54302 
        2.29341        0.918654         0.53393 
        2.30914        0.901528        0.525067 
        2.32486        0.894511         0.51641 
        2.34061        0.881369        0.507934 
        2.35635        0.869064        0.499656 
        2.37203        0.857216        0.491591 
        2.38768        0.846947        0.483721 
        2.40339        0.838617        0.475996 
        2.41914        0.827746         0.46842 
        2.43483        0.816451        0.461037 
         2.4505        0.804374        0.453825 
        2.46622        0.794298        0.446743 
        2.48195        0.784738        0.439812 
        2.49759        0.774373        0.433065 
        2.51328        0.763043        0.426442 
        2.52906        0.756667        0.419915 
        2.54479        0.744796         0.41355 
        2.56049        0.737557        0.407329 
        2.57618        0.728197        0.401241 
        2.59189        0.719794        0.395269 
        2.60758        0.711291        0.389428 
        2.62325        0.701789        0.383711 
        2.63898        0.695784         0.37809 
        2.65468        0.683447        0.372593 
        2.67044        0.679095        0.367183 
        2.68618         0.67321        0.361892 
        2.70184        0.662226        0.356726 
        2.71755        0.656141        0.351648 
        2.73329        0.648615        0.346662 
        2.74897        0.640189        0.341788 
        2.76462        0.632381        0.337019 
        2.78034        0.627155        0.332322 
        2.79607        0.620527        0.327709 
        2.81179        0.612052        0.323189 
        2.82749        0.605956        0.318759 
        2.84321        0.598604        0.314407 
        2.85893        0.591245        0.310138 
        2.87462        0.585465        0.305955 
        2.89033        0.582626        0.301846 
        2.90605        0.576312        0.297809 
        2.92176        0.569406        0.293848 
        2.93747        0.563644         0.28996 
        2.95318        0.557205        0.286143 
        2.96891         0.55421        0.282392 
        2.98456         0.54385        0.278725 
        3.00023        0.540546        0.275118 
        3.01596        0.535463        0.271563 
        3.03164        0.530418        0.268082 
        3.04738        0.524641        0.264651 
         3.0631        0.517934        0.261282 
        3.07883        0.514356        0.257971 
        3.09456        0.510491        0.254717 
        3.11026        0.504749        0.251526 
        3.12596        0.499352        0.248389 
        3.14163        0.497418        0.245312 
        3.15734        0.491475        0.242281 
        3.17308        0.486181        0.239294 
        3.18879         0.48339        0.236365 
        3.20447        0.477985         0.23349 
         3.2202        0.471584        0.230653 
         3.2359        0.468332        0.227868 
        3.25157        0.462199        0.225137 
        3.26729        0.461183        0.222441 
        3.28304        0.456999        0.219785 
        3.29877        0.452495        0.217175 
        3.31446        0.450487        0.214614 
        3.33014        0.443697        0.212096 
        3.34585        0.440791        0.209614 
        3.36158         0.43714        0.207169 
        3.37727         0.43426         0.20477 
        3.39294        0.431476        0.202411 
        3.40867        0.426053        0.200081 
        3.42439        0.423154        0.197789 
        3.44008        0.419365        0.195538 
        3.45578        0.415914        0.193319 
        3.47153        0.413849        0.191131 
        3.48724        0.409869        0.188979 
        3.50292        0.406198        0.186867 
        3.51859        0.404082        0.184787 
        3.53431        0.399991        0.182732 
        3.55007        0.397453        0.180704 
        3.56577          0.3941        0.178715 
        3.58146        0.391195        0.176756 
        3.59719        0.388149        0.174822 
        3.61292        0.384818        0.172918 
        3.62859        0.382407        0.171049 
        3.64429        0.379023        0.169205 
        3.66003        0.375934        0.167381 
        3.67578        0.373971        0.165586 
        3.69146        0.370621        0.163823 
        3.70712         0.36917         0.16209 
        3.72284        0.366526        0.160375 
        3.73853        0.363536        0.158687 
        3.75422        0.360424        0.157024 
        3.76993        0.357633        0.155383 
        3.78564        0.354587        0.153766 
        3.80137        0.352639        0.152169 
        3.81707        0.350168        0.150598 
        3.83279        0.347793        0.149048 
        3.84853        0.344482        0.147518 
        3.86424        0.343168        0.146012 
        3.87992        0.340742        0.144529 
        3.89561         0.33811        0.143067 
        3.91134        0.335099        0.141622 
        3.92704         0.33257        0.140198 
        3.94273        0.331155        0.138796 
        3.95845        0.328829         0.13741 
        3.97418        0.327144        0.136043 
        3.98988        0.323893        0.134696 
        4.00554        0.320511        0.133371 
        4.02125        0.318617        0.132061 
        4.03698         0.31532        0.130765 
        4.05268        0.311362         0.12949 
        4.06839        0.309718        0.128231 
         4.0841        0.305938         0.12699 
        4.09983        0.304243        0.125762 
        4.11555        0.300642        0.124552 
        4.13124        0.298544        0.123361 
        4.14693        0.295927        0.122184 
        4.16266        0.292072         0.12102 
        4.17839         0.28994        0.119872 
        4.19408        0.287953        0.118742 
        4.20977        0.285679        0.117625 
        4.22551        0.283342         0.11652 
        4.24123        0.280813        0.115431 
        4.25691        0.279094        0.114358 
        4.27259        0.276457        0.113299 
        4.28831        0.274873        0.112251 
        4.30404        0.272618        0.111215 
        4.31974        0.270871        0.110194 
        4.33543         0.26857        0.109187 
        4.35116        0.267465         0.10819 
        4.36688        0.265508        0.107206 
        4.38255        0.263009        0.106238 
        4.39825        0.261896        0.105279 
        4.41398        0.260321        0.104331 
         4.4297        0.258679        0.103395 
        4.44541        0.256994        0.102471 
        4.46111           0.256        0.101559 
        4.47683         0.25492        0.100657 
        4.49251        0.253119       0.0997681 
        4.50819        0.252566       0.0988901 
         4.5239        0.251112       0.0980214 
        4.53962        0.249423       0.0971621 
        4.55535        0.248488       0.0963126 
        4.57106        0.247746       0.0954745 
        4.58678        0.245908       0.0946462 
         4.6025        0.245717       0.0938275 
        4.61821        0.244971       0.0930187 
        4.63391        0.244399       0.0922204 
         4.6496        0.242995       0.0914318 
        4.66532        0.242457       0.0906512 
        4.68103          0.2411       0.0898801 
        4.69673        0.240685       0.0891186 
        4.71241         0.24019       0.0883668 
        4.72811        0.240433       0.0876223 
        4.74384        0.239133       0.0868855 
        4.75955        0.238638       0.0861583 
        4.77525        0.238279       0.0854398 
        4.79096        0.237989       0.0847286 
        4.80669         0.23756       0.0840251 
         4.8224        0.237271       0.0833304 
        4.83809        0.236749       0.0826444 
        4.85379        0.236587       0.0819656 
         4.8695        0.237336       0.0812939 
        4.88521        0.236641       0.0806299 
        4.90093        0.236688       0.0799734 
        4.91663        0.236442       0.0793246 
        4.93234        0.236003       0.0786824 
        4.94807        0.236541       0.0780469 
        4.96377        0.236718       0.0774196 
        4.97943        0.236914       0.0768005 
        4.99514        0.236253       0.0761866 
        5.01086         0.23781       0.0755789 
        5.02654        0.237588       0.0749793 
        5.04227        0.237752       0.0743845 
          5.058        0.238692       0.0737959 
        5.07371        0.238479       0.0732148 
        5.08942        0.239763       0.0726399 
        5.10513         0.24016       0.0720711 
        5.12084        0.240343       0.0715081 
        5.13656        0.240791       0.0709512 
        5.15225        0.241679       0.0704012 
        5.16796         0.24246       0.0698561 
        5.18369        0.242698       0.0693163 
         5.1994        0.244364       0.0687832 
        5.21509        0.244276       0.0682561 
        5.23079        0.245016        0.067734 
        5.24649        0.246302       0.0672177 
        5.26217        0.247159       0.0667071 
        5.27788        0.248165       0.0662012 
        5.29359        0.249481       0.0657004 
        5.30933        0.250394        0.065204 
        5.32504        0.251284       0.0647136 
        5.34073        0.253379       0.0642288 
        5.35646        0.254078        0.063748 
        5.37218        0.255111       0.0632719 
        5.38789         0.25523       0.0628016 
        5.40357        0.257535       0.0623365 
        5.41929        0.258671       0.0618751 
        5.43502        0.260413       0.0614183 
         5.4507        0.261775       0.0609673 
        5.46639        0.263021       0.0605207 
        5.48212        0.264037       0.0600775 
        5.49786         0.26552       0.0596382 
        5.51353        0.268345       0.0592055 
        5.52921         0.26839       0.0587766 
        5.54495         0.27115       0.0583507 
        5.56066        0.272071       0.0579296 
        5.57637        0.273723       0.0575126 
        5.59207        0.276074       0.0571001 
        5.60778        0.276914       0.0566915 
        5.62346        0.279769       0.0562874 
        5.63916        0.280875       0.0558869 
        5.65487        0.282604       0.0554901 
         5.6706        0.283678       0.0550966 
        5.68633         0.28682       0.0547069 
        5.70203        0.289923       0.0543217 
        5.71773         0.28985       0.0539403 
        5.73344        0.292638       0.0535623 
        5.74916        0.295862       0.0531876 
        5.76486        0.297174        0.052817 
        5.78054        0.298493       0.0524505 
        5.79626        0.300358       0.0520864 
          5.812        0.303449       0.0517255 
         5.8277        0.305491        0.051369 
        5.84339        0.306833       0.0510158 
        5.85911        0.310412       0.0506653 
        5.87484        0.311705       0.0503182 
        5.89053         0.31461        0.049975 
        5.90623        0.315907       0.0496348 
        5.92195        0.318067       0.0492972 
        5.93767        0.320143        0.048963 
        5.95336        0.322313       0.0486324 
        5.96905        0.324844       0.0483049 
        5.98476        0.327475         0.04798 
        6.00048        0.328826        0.047658 
        6.01617        0.332914       0.0473394 
        6.03185         0.33374        0.047024 
        6.04756        0.335772       0.0467108 
        6.06331        0.338499       0.0463998 
        6.07903        0.341419       0.0460922 
        6.09473        0.343118       0.0457878 
        6.11044        0.345011       0.0454858 
        6.12616        0.348287       0.0451865 
        6.14186        0.349601       0.0448903 
        6.15755        0.354475       0.0445967 
        6.17326        0.355328       0.0443055 
        6.18898        0.356801       0.0440168 
        6.20467        0.358778       0.0437312 
        6.22036        0.362229       0.0434481 
         6.2361        0.363215       0.0431667 
         6.2518        0.367192       0.0428884 
        6.26748        0.368446        0.042613 
        6.28319        0.372267       0.0423394 
        6.29893        0.373965       0.0420679 
        6.31463        0.375969       0.0417992 
        6.33033        0.378562        0.041533 
        6.34604        0.381251       0.0412689 
        6.36177        0.382635       0.0410068 
        6.37747        0.384775       0.0407475 
