# k  (h/Mpc)    Pcb(k)  (Mpc/h)^3    Pcb_linear(k) (Mpc/h)^3   ShotnoiseSubtracted = true
      0.0200456         21195.6         21565.8 
      0.0350414         16166.7         15677.6 
      0.0492313         11153.1         11391.1 
      0.0637834          8992.3          9469.3 
      0.0800726         7058.39         7515.55 
       0.096163         5665.84         5453.18 
       0.111083         4614.64          4349.6 
       0.126058         3814.94         3854.63 
       0.142273         3339.74         3265.72 
       0.158546         2741.49         2579.23 
        0.17375         2447.34            2173 
       0.188953         2317.22          1967.6 
       0.204907         1992.91         1740.93 
       0.220756         1801.23         1472.93 
        0.23588            1608         1281.32 
         0.2514         1455.04         1164.07 
       0.267535         1405.46         1053.28 
       0.283568         1250.77         928.853 
       0.299022         1193.29          827.56 
       0.314451         1241.83         756.334 
       0.330372         1094.31         693.851 
       0.346141          1005.6         629.776 
       0.361624          965.35          572.38 
       0.377134         924.871          526.68 
       0.392932         883.471         487.327 
       0.408854         846.394         449.221 
       0.424564         827.986         414.053 
       0.440253         766.419         383.876 
       0.455999         733.158         357.635 
       0.471626         746.916          333.52 
        0.48727         704.871         310.961 
       0.502856         673.878         290.696 
       0.518488         656.431         272.614 
       0.534347         628.361         255.804 
       0.550082         599.591         240.305 
       0.565732         592.042         226.125 
       0.581496         579.597         213.138 
       0.597222          566.42         201.227 
       0.612804         553.353         190.275 
       0.628434         530.569         180.067 
       0.644267         515.342         170.523 
       0.660051         509.529         161.727 
       0.675724         499.089         153.605 
       0.691403         486.038         146.034 
       0.707174         470.473          138.93 
       0.722871         464.587         132.328 
        0.73838         455.674         126.225 
       0.754018          443.26          120.46 
       0.769845         438.649         114.993 
        0.78569         429.567         109.861 
       0.801365         414.869         105.093 
       0.817031          411.99         100.613 
       0.832809         405.622         96.3663 
       0.848511         398.406         92.3851 
       0.864097         388.781         88.6573 
       0.879701         387.257         85.1326 
       0.895507          372.78         81.7588 
       0.911279         367.118         78.5758 
        0.92691         363.671         75.5893 
       0.942635         359.781         72.7423 
       0.958396         347.647         70.0365 
       0.974128         343.992         67.4739 
       0.989692         332.968         65.0653 
        1.00528         331.219         62.7713 
        1.02113         325.727         60.5523 
        1.03692         320.381         58.4493 
        1.05264         315.409         56.4563 
        1.06832         310.234         54.5596 
        1.08405         307.152         52.7454 
        1.09979          301.51          51.013 
        1.11537         293.794         49.3758 
        1.13105         290.345          47.801 
        1.14679          286.15         46.2891 
        1.16256         284.342         44.8398 
        1.17828         279.602         43.4576 
        1.19395         272.514         42.1386 
         1.2097           272.1         40.8678 
        1.22537         267.283         39.6557 
          1.241         261.076         38.4966 
        1.25666          259.02         37.3811 
        1.27241         255.149         36.3047 
        1.28819         249.997         35.2691 
        1.30392         249.535         34.2769 
        1.31957          242.18         33.3275 
        1.33529         239.286         32.4107 
        1.35108         238.163         31.5249 
        1.36674         231.521         30.6785 
         1.3824         230.207         29.8642 
        1.39811         228.067         29.0767 
        1.41389         221.649         28.3148 
        1.42964         219.323         27.5815 
        1.44531         217.414         26.8778 
        1.46101         213.664         26.1973 
        1.47667         211.118         25.5424 
        1.49229         208.123         24.9117 
        1.50793         205.216         24.3016 
        1.52367         202.323         23.7081 
        1.53953         198.313         23.1305 
        1.55526         197.072         22.5768 
        1.57092         195.418         22.0435 
        1.58662         190.783         21.5263 
        1.60235         188.933         21.0247 
        1.61809         186.543         20.5388 
        1.63369         183.055         20.0727 
        1.64941         180.868         19.6177 
        1.66519          178.65         19.1752 
        1.68085         175.634         18.7495 
        1.69652         174.004         18.3367 
        1.71228         171.082          17.934 
        1.72806         169.428          17.543 
        1.74368         167.303         17.1677 
        1.75933           166.1         16.8026 
        1.77505         163.571         16.4465 
        1.79081         159.998            16.1 
         1.8065         158.707         15.7651 
        1.82218         155.465           15.44 
        1.83797         154.582         15.1218 
        1.85367         152.337         14.8144 
        1.86928         150.212         14.5174 
        1.88497         149.091         14.2269 
        1.90073         147.399         13.9433 
        1.91647         144.499         13.6677 
        1.93218         142.791         13.4002 
        1.94787          140.84         13.1402 
        1.96363         140.295         12.8861 
        1.97935         138.449         12.6393 
        1.99499         136.398         12.4003 
        2.01064         133.636         12.1672 
         2.0264         132.948         11.9386 
        2.04216         130.996          11.716 
        2.05781         128.834         11.5004 
        2.07353          127.69         11.2896 
        2.08928         126.078         11.0836 
        2.10499         124.889         10.8832 
        2.12065         123.469         10.6885 
        2.13633         121.958         10.4983 
        2.15211         119.911         10.3116 
        2.16785         118.623         10.1299 
        2.18349         117.137         9.95371 
        2.19916         115.901         9.78137 
        2.21489         114.616         9.61255 
        2.23063         112.774         9.44759 
         2.2463         111.476         9.28726 
        2.26194         110.537         9.13105 
        2.27765         108.981         8.97763 
        2.29341         107.948         8.82734 
        2.30914         106.797         8.68081 
        2.32486         104.847         8.53769 
        2.34061         103.985         8.39755 
        2.35635         103.022          8.2607 
        2.37203         101.214         8.12737 
        2.38768         100.525         7.99725 
        2.40339         99.1347         7.86952 
        2.41914         97.8421         7.74429 
        2.43483         97.2242         7.62222 
         2.4505         95.7978         7.50299 
        2.46622         94.6169          7.3859 
        2.48195         93.8699         7.27131 
        2.49759          92.447         7.15976 
        2.51328         91.7504         7.05026 
        2.52906          90.375         6.94236 
        2.54479         89.2836         6.83712 
        2.56049         88.0965         6.73427 
        2.57618         87.1512         6.63363 
        2.59189         86.5056         6.53489 
        2.60758         84.9482         6.43832 
        2.62325         84.6943         6.34381 
        2.63898         83.5602         6.25088 
        2.65468         82.5853            6.16 
        2.67044         81.3177         6.07054 
        2.68618          80.577         5.98307 
        2.70184         79.5886         5.89767 
        2.71755          78.942         5.81372 
        2.73329         77.6993         5.73128 
        2.74897         77.1441         5.65071 
        2.76462         76.4078         5.57186 
        2.78034         74.9858          5.4942 
        2.79607         74.2979         5.41793 
        2.81179         73.7736          5.3432 
        2.82749         73.0341         5.26997 
        2.84321          72.102         5.19802 
        2.85893         71.2416         5.12744 
        2.87462         70.5305         5.05829 
        2.89033         69.8644         4.99035 
        2.90605         69.2648         4.92361 
        2.92176         68.4316         4.85811 
        2.93747         67.8672         4.79385 
        2.95318          66.709         4.73073 
        2.96891         66.3166         4.66872 
        2.98456         65.4963         4.60809 
        3.00023         64.8462         4.54846 
        3.01596         64.3764         4.48969 
        3.03164         63.5678         4.43213 
        3.04738         63.2635         4.37541 
         3.0631         62.1372         4.31971 
        3.07883         61.6404         4.26497 
        3.09456         60.9042         4.21118 
        3.11026         60.3578         4.15841 
        3.12596         59.7388         4.10655 
        3.14163         59.0341         4.05569 
        3.15734         58.3527         4.00558 
        3.17308          57.911         3.95619 
        3.18879         57.3054         3.90777 
        3.20447         56.8989         3.86023 
         3.2202         56.1248         3.81333 
         3.2359         55.4487          3.7673 
        3.25157         55.0982         3.72213 
        3.26729         54.4663         3.67757 
        3.28304         53.8709         3.63365 
        3.29877         53.3975         3.59051 
        3.31446         52.9643         3.54816 
        3.33014         52.3565         3.50653 
        3.34585         51.7455          3.4655 
        3.36158         51.4074         3.42507 
        3.37727         50.7345         3.38541 
        3.39294         50.3889         3.34642 
        3.40867         49.8823          3.3079 
        3.42439         49.3244            3.27 
        3.44008          48.755         3.23278 
        3.45578          48.443          3.1961 
        3.47153         47.8914         3.15992 
        3.48724         47.4397         3.12435 
        3.50292         47.0208         3.08942 
        3.51859         46.4823         3.05504 
        3.53431         45.9137         3.02107 
        3.55007         45.5779         2.98754 
        3.56577         45.1808         2.95465 
        3.58146         44.6664         2.92227 
        3.59719         44.2608          2.8903 
        3.61292         43.7798         2.85881 
        3.62859         43.5324         2.82792 
        3.64429         43.1318         2.79742 
        3.66003         42.7469         2.76728 
        3.67578         42.3259         2.73759 
        3.69146         41.9166         2.70845 
        3.70712         41.5002         2.67979 
        3.72284         41.1822         2.65144 
        3.73853         40.7501         2.62354 
        3.75422          40.365         2.59604 
        3.76993         40.0186         2.56891 
        3.78564         39.6935         2.54217 
        3.80137         39.3514         2.51577 
        3.81707         38.8193         2.48981 
        3.83279         38.5879         2.46418 
        3.84853         38.2187         2.43888 
        3.86424         37.7762         2.41398 
        3.87992         37.5682         2.38947 
        3.89561         37.2327         2.36529 
        3.91134         36.9494          2.3414 
        3.92704         36.5631         2.31787 
        3.94273         36.2182         2.29468 
        3.95845         35.9444         2.27177 
        3.97418         35.5977         2.24917 
        3.98988         35.1894          2.2269 
        4.00554         34.9799           2.205 
        4.02125         34.7155         2.18333 
        4.03698         34.3311         2.16191 
        4.05268         34.1056         2.14083 
        4.06839         33.6498         2.12002 
         4.0841         33.4949         2.09949 
        4.09983         33.1741          2.0792 
        4.11555         32.8857         2.05919 
        4.13124         32.5698          2.0395 
        4.14693         32.2898         2.02004 
        4.16266         31.9852          2.0008 
        4.17839         31.7365         1.98182 
        4.19408         31.4911         1.96313 
        4.20977         31.2305         1.94467 
        4.22551         30.9069          1.9264 
        4.24123         30.6639         1.90839 
        4.25691         30.4023         1.89065 
        4.27259         30.2288         1.87314 
        4.28831         29.8615         1.85581 
        4.30404         29.6436         1.83869 
        4.31974         29.3412         1.82182 
        4.33543         29.1602         1.80516 
        4.35116         28.9123         1.78868 
        4.36688         28.6334         1.77241 
        4.38255         28.4912          1.7564 
        4.39825         28.1559         1.74056 
        4.41398         27.9379         1.72488 
         4.4297         27.7446         1.70941 
        4.44541         27.5773         1.69413 
        4.46111         27.2577         1.67905 
        4.47683         27.0434         1.66414 
        4.49251         26.8557         1.64944 
        4.50819         26.6625         1.63493 
         4.5239         26.3765         1.62056 
        4.53962         26.2338         1.60636 
        4.55535         25.9619         1.59231 
        4.57106         25.7629         1.57846 
        4.58678         25.5787         1.56476 
         4.6025         25.3286         1.55123 
        4.61821         25.1449         1.53786 
        4.63391         24.8343         1.52466 
         4.6496         24.7237         1.51162 
        4.66532         24.5602         1.49872 
        4.68103         24.2628         1.48597 
        4.69673         24.1264         1.47338 
        4.71241           23.95         1.46095 
        4.72811         23.7182         1.44864 
        4.74384         23.5171         1.43646 
        4.75955         23.3787         1.42443 
        4.77525          23.198         1.41256 
        4.79096           22.97          1.4008 
        4.80669         22.8354         1.38917 
         4.8224         22.6316         1.37768 
        4.83809         22.4086         1.36634 
        4.85379          22.241         1.35512 
         4.8695         22.1092         1.34401 
        4.88521          21.894         1.33304 
        4.90093         21.7538         1.32218 
        4.91663         21.5787         1.31146 
        4.93234         21.4244         1.30084 
        4.94807         21.2543         1.29033 
        4.96377         21.1467         1.27996 
        4.97943         20.8713         1.26972 
        4.99514         20.7535         1.25957 
        5.01086         20.6119         1.24953 
        5.02654         20.4611         1.23962 
        5.04227         20.3074         1.22978 
          5.058         20.1156         1.22005 
        5.07371         19.9512         1.21044 
        5.08942         19.8031         1.20094 
        5.10513         19.6867         1.19153 
        5.12084         19.5515         1.18223 
        5.13656         19.3335         1.17302 
        5.15225         19.2029         1.16393 
        5.16796         19.0708         1.15491 
        5.18369         18.9315         1.14599 
         5.1994         18.8202         1.13718 
        5.21509         18.6582         1.12846 
        5.23079         18.5383         1.11983 
        5.24649         18.3845         1.11129 
        5.26217         18.2752         1.10285 
        5.27788         18.1005         1.09449 
        5.29359         17.9721         1.08621 
        5.30933         17.8386           1.078 
        5.32504         17.6872         1.06989 
        5.34073         17.5929         1.06188 
        5.35646         17.4536         1.05393 
        5.37218         17.2931         1.04606 
        5.38789          17.164         1.03828 
        5.40357         17.0473         1.03059 
        5.41929         16.9358         1.02297 
        5.43502         16.7754         1.01542 
         5.4507         16.6807         1.00796 
        5.46639         16.5588         1.00057 
        5.48212         16.4568        0.993247 
        5.49786         16.3316        0.985984 
        5.51353         16.2297         0.97883 
        5.52921         16.0976         0.97174 
        5.54495          15.985        0.964699 
        5.56066          15.848        0.957736 
        5.57637         15.7337        0.950842 
        5.59207         15.6321        0.944022 
        5.60778           15.52        0.937267 
        5.62346         15.4223        0.930586 
        5.63916         15.2921        0.923965 
        5.65487         15.1924        0.917404 
         5.6706         15.0648          0.9109 
        5.68633         14.9877        0.904456 
        5.70203         14.8767        0.898088 
        5.71773         14.7626        0.891782 
        5.73344         14.6481        0.885533 
        5.74916         14.5613        0.879338 
        5.76486          14.464        0.873211 
        5.78054         14.3725        0.867152 
        5.79626         14.2331        0.861133 
          5.812         14.1574        0.855165 
         5.8277         14.0519        0.849271 
        5.84339         13.9529        0.843433 
        5.85911         13.8475        0.837638 
        5.87484         13.7586        0.831899 
        5.89053         13.6506        0.826225 
        5.90623         13.5716        0.820601 
        5.92195         13.4446         0.81502 
        5.93767         13.3567        0.809493 
        5.95336         13.2997        0.804027 
        5.96905         13.2003        0.798614 
        5.98476         13.1336        0.793242 
        6.00048         13.0231        0.787919 
        6.01617         12.9551        0.782651 
        6.03185         12.8336        0.777437 
        6.04756         12.7452        0.772259 
        6.06331         12.6785        0.767117 
        6.07903         12.5634        0.762032 
        6.09473         12.4974        0.756998 
        6.11044         12.3931        0.752005 
        6.12616         12.3173        0.747058 
        6.14186         12.2255         0.74216 
        6.15755         12.1588        0.737307 
        6.17326         12.0737        0.732493 
        6.18898         11.9865        0.727719 
        6.20467         11.9011        0.722997 
        6.22036         11.8255        0.718317 
         6.2361         11.7352        0.713666 
         6.2518         11.6803        0.709063 
        6.26748         11.6075        0.704511 
        6.28319         11.5352        0.699987 
        6.29893         11.4477        0.695498 
        6.31463         11.3718        0.691056 
        6.33033         11.2983        0.686655 
        6.34604         11.1999        0.682288 
        6.36177         11.1575        0.677956 
        6.37747         11.0848        0.673669 
