# k  (h/Mpc)    Pcb(k)  (Mpc/h)^3    Pcb_linear(k) (Mpc/h)^3   ShotnoiseSubtracted = true
      0.0200456         23403.7         23825.9 
      0.0350414           17875         17320.7 
      0.0492313         12290.5         12584.9 
      0.0637834         9905.33         10461.7 
      0.0800726         7769.36         8303.17 
       0.096163         6264.87         6024.68 
       0.111083         5102.97         4805.44 
       0.126058         4215.95         4258.59 
       0.142273         3700.96         3607.97 
       0.158546          3036.6         2849.54 
        0.17375         2723.71         2400.73 
       0.188953         2590.72         2173.81 
       0.204907         2230.26         1923.38 
       0.220756         2020.18         1627.29 
        0.23588         1804.47          1415.6 
         0.2514         1638.37         1286.06 
       0.267535         1578.85         1163.67 
       0.283568         1411.75          1026.2 
       0.299022         1345.73         914.288 
       0.314451         1404.01         835.598 
       0.330372         1248.57         766.567 
       0.346141          1146.9         695.776 
       0.361624         1100.87         632.365 
       0.377134         1058.19         581.876 
       0.392932         1007.08         538.398 
       0.408854         968.005         496.299 
       0.424564         948.303         457.446 
       0.440253         882.681         424.106 
       0.455999         844.333         395.115 
       0.471626         858.284         368.472 
        0.48727         811.187          343.55 
       0.502856         783.013         321.161 
       0.518488         757.222         301.184 
       0.534347         730.327         282.612 
       0.550082         696.911         265.489 
       0.565732          686.07         249.823 
       0.581496         671.817         235.475 
       0.597222         659.498         222.316 
       0.612804         643.333         210.216 
       0.628434         617.424         198.938 
       0.644267         601.231         188.394 
       0.660051         595.068         178.676 
       0.675724         583.573         169.703 
       0.691403          565.34         161.338 
       0.707174         549.856          153.49 
       0.722871         545.322         146.195 
        0.73838         532.184         139.453 
       0.754018         520.693         133.085 
       0.769845         513.818         127.045 
        0.78569         502.829         121.375 
       0.801365         486.717         116.107 
       0.817031         482.448         111.157 
       0.832809         474.925         106.466 
       0.848511         467.432         102.067 
       0.864097         457.687         97.9486 
       0.879701         457.689         94.0545 
       0.895507         439.686         90.3271 
       0.911279         434.359         86.8105 
        0.92691         428.902          83.511 
       0.942635         423.657         80.3656 
       0.958396         410.991         77.3763 
       0.974128         405.214         74.5451 
       0.989692         394.644         71.8842 
        1.00528         390.541         69.3497 
        1.02113         383.987         66.8982 
        1.03692         378.508         64.5748 
        1.05264         373.397         62.3729 
        1.06832         365.059         60.2775 
        1.08405         363.921         58.2731 
        1.09979         355.863         56.3591 
        1.11537         346.953         54.5504 
        1.13105         343.183         52.8105 
        1.14679         337.324         51.1402 
        1.16256         335.564          49.539 
        1.17828         330.208          48.012 
        1.19395         322.043         46.5547 
         1.2097         319.671         45.1507 
        1.22537         314.784         43.8116 
          1.241         308.128          42.531 
        1.25666         305.218         41.2986 
        1.27241          301.42         40.1095 
        1.28819         293.946         38.9652 
        1.30392         294.032         37.8692 
        1.31957         286.177         36.8202 
        1.33529         282.387         35.8073 
        1.35108         281.126         34.8287 
        1.36674         273.665         33.8937 
         1.3824         270.661         32.9939 
        1.39811         267.462          32.124 
        1.41389         261.812         31.2822 
        1.42964         258.421          30.472 
        1.44531         255.466         29.6946 
        1.46101         250.902         28.9427 
        1.47667         248.414         28.2192 
        1.49229         245.031         27.5224 
        1.50793         241.271         26.8484 
        1.52367         237.541         26.1927 
        1.53953         233.908         25.5546 
        1.55526         231.234         24.9428 
        1.57092         229.364         24.3537 
        1.58662         224.294         23.7822 
        1.60235         221.633          23.228 
        1.61809         219.723         22.6913 
        1.63369         215.562         22.1763 
        1.64941         212.555         21.6736 
        1.66519         209.859         21.1847 
        1.68085         206.151         20.7145 
        1.69652         204.142         20.2584 
        1.71228         201.097         19.8134 
        1.72806           198.9         19.3815 
        1.74368         196.521         18.9669 
        1.75933         195.108         18.5635 
        1.77505         192.083         18.1701 
        1.79081         188.736         17.7873 
         1.8065         187.729         17.4173 
        1.82218         182.943         17.0581 
        1.83797         181.675         16.7066 
        1.85367         179.103          16.367 
        1.86928         176.403         16.0388 
        1.88497          174.73         15.7179 
        1.90073         173.178         15.4046 
        1.91647         169.995         15.1001 
        1.93218         167.364         14.8045 
        1.94787         165.364         14.5173 
        1.96363         164.563         14.2366 
        1.97935         162.616         13.9639 
        1.99499         160.063         13.6999 
        2.01064         156.783         13.4423 
         2.0264         156.382         13.1897 
        2.04216         153.529         12.9438 
        2.05781         151.141         12.7057 
        2.07353         150.392         12.4727 
        2.08928         148.486         12.2451 
        2.10499         146.747         12.0238 
        2.12065         145.133         11.8086 
        2.13633         143.018         11.5985 
        2.15211          140.88         11.3922 
        2.16785         139.569         11.1915 
        2.18349         138.038         10.9969 
        2.19916         136.033         10.8065 
        2.21489         134.264         10.6199 
        2.23063          132.79         10.4377 
         2.2463         130.931         10.2606 
        2.26194         129.928          10.088 
        2.27765         127.767         9.91848 
        2.29341          126.81         9.75245 
        2.30914         125.308         9.59056 
        2.32486          123.37         9.43243 
        2.34061         121.732         9.27762 
        2.35635         120.911         9.12642 
        2.37203         118.996         8.97911 
        2.38768         118.148         8.83537 
        2.40339         115.916         8.69425 
        2.41914         114.821         8.55589 
        2.43483         113.861         8.42103 
         2.4505         112.624          8.2893 
        2.46622         110.734         8.15995 
        2.48195         109.779         8.03334 
        2.49759         108.062          7.9101 
        2.51328         107.063         7.78913 
        2.52906         106.121         7.66992 
        2.54479         104.679         7.55365 
        2.56049         103.282         7.44002 
        2.57618         102.226         7.32883 
        2.59189         101.574         7.21974 
        2.60758         99.8954         7.11305 
        2.62325         99.2257         7.00864 
        2.63898         97.9777         6.90597 
        2.65468         97.0615         6.80557 
        2.67044         96.0714         6.70674 
        2.68618         94.5401         6.61009 
        2.70184         93.5819         6.51574 
        2.71755          92.912           6.423 
        2.73329         91.3188         6.33192 
        2.74897         90.4994          6.2429 
        2.76462         90.1597          6.1558 
        2.78034         88.6535         6.06999 
        2.79607         87.4418         5.98573 
        2.81179         86.7528         5.90317 
        2.82749         86.0563         5.82226 
        2.84321         84.6894         5.74277 
        2.85893         83.4379          5.6648 
        2.87462         83.0507          5.5884 
        2.89033         81.9876         5.51334 
        2.90605         81.1252          5.4396 
        2.92176         80.5302         5.36724 
        2.93747         79.5516         5.29624 
        2.95318         78.3454         5.22651 
        2.96891          77.913           5.158 
        2.98456         76.7385         5.09102 
        3.00023         76.0802         5.02514 
        3.01596         75.4393         4.96021 
        3.03164         74.5223         4.89662 
        3.04738         74.1425         4.83396 
         3.0631         72.9068         4.77241 
        3.07883         72.3422         4.71194 
        3.09456         71.3732         4.65252 
        3.11026         71.0003         4.59421 
        3.12596         70.0271         4.53692 
        3.14163          69.399         4.48073 
        3.15734         68.3872         4.42536 
        3.17308         67.9969          4.3708 
        3.18879         67.2647          4.3173 
        3.20447         66.6641         4.26478 
         3.2202         65.6246         4.21297 
         3.2359         65.0678         4.16211 
        3.25157          64.644         4.11221 
        3.26729         63.8103         4.06298 
        3.28304         63.0209         4.01446 
        3.29877         62.6223         3.96679 
        3.31446         61.7008            3.92 
        3.33014         61.2863         3.87401 
        3.34585         60.6598         3.82869 
        3.36158         60.2207         3.78402 
        3.37727          59.656          3.7402 
        3.39294         58.9322         3.69712 
        3.40867         58.4617         3.65456 
        3.42439         57.8033          3.6127 
        3.44008         57.2194         3.57157 
        3.45578         56.6578         3.53105 
        3.47153         56.1477         3.49108 
        3.48724         55.6891         3.45179 
        3.50292         55.1134         3.41319 
        3.51859         54.6126         3.37521 
        3.53431         53.9779         3.33768 
        3.55007         53.3405         3.30064 
        3.56577         52.8478          3.2643 
        3.58146         52.3402         3.22852 
        3.59719         51.9569          3.1932 
        3.61292         51.2725         3.15842 
        3.62859         50.9264         3.12428 
        3.64429         50.4773         3.09059 
        3.66003         50.0773         3.05729 
        3.67578         49.4573         3.02449 
        3.69146         49.0811          2.9923 
        3.70712         48.6951         2.96063 
        3.72284          48.177         2.92931 
        3.73853         47.7454         2.89849 
        3.75422         47.2749          2.8681 
        3.76993         46.8882         2.83813 
        3.78564         46.4514         2.80859 
        3.80137         46.0446         2.77943 
        3.81707          45.524         2.75074 
        3.83279         45.1703         2.72243 
        3.84853         44.7361         2.69447 
        3.86424         44.3118         2.66697 
        3.87992         43.8538         2.63988 
        3.89561         43.5742         2.61317 
        3.91134         43.1158         2.58678 
        3.92704         42.7405         2.56078 
        3.94273         42.4084         2.53516 
        3.95845         41.9034         2.50985 
        3.97418         41.6062         2.48488 
        3.98988         41.2565         2.46028 
        4.00554         40.7574         2.43608 
        4.02125         40.5371         2.41214 
        4.03698         40.0803         2.38848 
        4.05268          39.845         2.36519 
        4.06839         39.4742          2.3422 
         4.0841         39.1649         2.31952 
        4.09983         38.7478          2.2971 
        4.11555          38.481         2.27499 
        4.13124         37.9708         2.25324 
        4.14693         37.7676         2.23175 
        4.16266          37.449         2.21049 
        4.17839         37.0268         2.18951 
        4.19408         36.7606         2.16886 
        4.20977          36.453         2.14847 
        4.22551         36.1343         2.12829 
        4.24123         35.8595         2.10839 
        4.25691         35.4973          2.0888 
        4.27259         35.2145         2.06944 
        4.28831         34.9793          2.0503 
        4.30404         34.6815         2.03138 
        4.31974         34.3635         2.01274 
        4.33543          34.021         1.99435 
        4.35116         33.7528         1.97614 
        4.36688         33.4348         1.95816 
        4.38255          33.251         1.94047 
        4.39825         32.9815         1.92297 
        4.41398         32.6682         1.90564 
         4.4297         32.3522         1.88855 
        4.44541          32.189         1.87167 
        4.46111         31.7689         1.85501 
        4.47683         31.6651         1.83854 
        4.49251         31.3906          1.8223 
        4.50819         31.0713         1.80627 
         4.5239         30.7517          1.7904 
        4.53962         30.5393          1.7747 
        4.55535         30.3228         1.75919 
        4.57106         29.9658         1.74388 
        4.58678         29.8167         1.72875 
         4.6025          29.595          1.7138 
        4.61821         29.3287         1.69902 
        4.63391         29.1231         1.68444 
         4.6496         28.8277         1.67004 
        4.66532         28.6212         1.65578 
        4.68103         28.3719          1.6417 
        4.69673         28.1979         1.62779 
        4.71241         27.9455         1.61405 
        4.72811         27.7512         1.60046 
        4.74384         27.6069           1.587 
        4.75955         27.3874         1.57372 
        4.77525         27.0659         1.56059 
        4.79096         26.8426          1.5476 
        4.80669         26.6529         1.53475 
         4.8224         26.4995         1.52206 
        4.83809         26.2016         1.50953 
        4.85379         26.0543         1.49713 
         4.8695          25.831         1.48486 
        4.88521         25.6162         1.47274 
        4.90093         25.4552         1.46075 
        4.91663         25.2697          1.4489 
        4.93234          24.997         1.43717 
        4.94807         24.7852         1.42556 
        4.96377         24.6336          1.4141 
        4.97943         24.4994         1.40279 
        4.99514         24.3292         1.39158 
        5.01086         24.0999         1.38048 
        5.02654         23.8996         1.36953 
        5.04227         23.7101         1.35866 
          5.058         23.4773         1.34791 
        5.07371         23.3453          1.3373 
        5.08942         23.1235          1.3268 
        5.10513          23.037         1.31641 
        5.12084         22.8234         1.30612 
        5.13656         22.6818         1.29595 
        5.15225         22.5475         1.28591 
        5.16796         22.3415         1.27595 
        5.18369         22.1513         1.26609 
         5.1994         21.9401         1.25635 
        5.21509         21.8306         1.24673 
        5.23079         21.6615         1.23719 
        5.24649         21.5102         1.22776 
        5.26217         21.3203         1.21843 
        5.27788         21.2001         1.20919 
        5.29359          21.006         1.20004 
        5.30933         20.8346         1.19098 
        5.32504         20.6974         1.18202 
        5.34073         20.5246         1.17316 
        5.35646         20.3633         1.16438 
        5.37218         20.2569         1.15569 
        5.38789         20.1095          1.1471 
        5.40357          19.934          1.1386 
        5.41929         19.8229         1.13017 
        5.43502         19.6791         1.12183 
         5.4507         19.4989         1.11359 
        5.46639          19.361         1.10543 
        5.48212         19.2228         1.09734 
        5.49786         19.0774         1.08932 
        5.51353         18.9538         1.08141 
        5.52921         18.8041         1.07358 
        5.54495         18.6751          1.0658 
        5.56066         18.5311         1.05811 
        5.57637         18.3847         1.05049 
        5.59207         18.2463         1.04296 
        5.60778         18.2128         1.03549 
        5.62346          18.003         1.02811 
        5.63916         17.8893          1.0208 
        5.65487         17.7238         1.01355 
         5.6706         17.6479         1.00636 
        5.68633         17.5318        0.999243 
        5.70203         17.4007        0.992207 
        5.71773          17.286         0.98524 
        5.73344         17.1693        0.978337 
        5.74916         17.0283        0.971493 
        5.76486         16.9076        0.964723 
        5.78054          16.766        0.958029 
        5.79626         16.7049        0.951379 
          5.812          16.573        0.944786 
         5.8277         16.4094        0.938275 
        5.84339         16.3099        0.931825 
        5.85911         16.2207        0.925423 
        5.87484         16.0788        0.919082 
        5.89053         15.9623        0.912813 
        5.90623         15.8699          0.9066 
        5.92195         15.7364        0.900434 
        5.93767         15.6471        0.894328 
        5.95336         15.5399        0.888289 
        5.96905         15.4283        0.882308 
        5.98476         15.3358        0.876374 
        6.00048         15.2095        0.870492 
        6.01617         15.1372        0.864673 
        6.03185         15.0208        0.858913 
        6.04756         14.9189        0.853192 
        6.06331         14.8269        0.847511 
        6.07903         14.6771        0.841893 
        6.09473         14.5958        0.836332 
        6.11044         14.5155        0.830815 
        6.12616         14.4311         0.82535 
        6.14186         14.3383        0.819939 
        6.15755         14.2084        0.814576 
        6.17326         14.1159        0.809258 
        6.18898         14.0156        0.803984 
        6.20467         13.9096        0.798767 
        6.22036         13.8284        0.793597 
         6.2361         13.7188        0.788458 
         6.2518         13.6391        0.783373 
        6.26748         13.5756        0.778344 
        6.28319         13.4645        0.773345 
        6.29893         13.3851        0.768386 
        6.31463         13.3081        0.763479 
        6.33033         13.2122        0.758616 
        6.34604         13.1086        0.753792 
        6.36177         13.0369        0.749006 
        6.37747         12.9487        0.744269 
