# k  (h/Mpc)    Pcb(k)  (Mpc/h)^3    Pcb_linear(k) (Mpc/h)^3   ShotnoiseSubtracted = true
      0.0200456         434.563         440.527 
      0.0350414          319.65         320.248 
      0.0492313         233.618         232.686 
      0.0637834         194.455          193.43 
      0.0800726         154.137          153.52 
       0.096163         111.398         111.392 
       0.111083         88.5802         88.8495 
       0.126058         78.8896         78.7387 
       0.142273         67.0024          66.709 
       0.158546         53.1536         52.6861 
        0.17375         44.3331          44.388 
       0.188953         40.3348         40.1924 
       0.204907         36.3065          35.562 
       0.220756         30.4523         30.0876 
        0.23588         26.4932         26.1736 
         0.2514         23.8888         23.7785 
       0.267535         21.6724         21.5154 
       0.283568          19.199         18.9737 
       0.299022         17.2003         16.9046 
       0.314451          15.481         15.4497 
       0.330372         14.3015         14.1733 
       0.346141          12.993         12.8645 
       0.361624         11.8758          11.692 
       0.377134         11.0025         10.7585 
       0.392932         9.91085         9.95465 
       0.408854         9.36752         9.17626 
       0.424564         8.59777         8.45789 
       0.440253         7.96694         7.84145 
       0.455999         7.47689         7.30542 
       0.471626          7.0071         6.81282 
        0.48727         6.49896         6.35202 
       0.502856         6.05198         5.93806 
       0.518488         5.75939          5.5687 
       0.534347         5.45576         5.22533 
       0.550082         5.01721         4.90872 
       0.565732         4.64666         4.61906 
       0.581496           4.491         4.35378 
       0.597222         4.26625         4.11048 
       0.612804         3.99511         3.88676 
       0.628434         3.83149         3.67824 
       0.644267         3.61617         3.48329 
       0.660051         3.41256         3.30361 
       0.675724         3.25088          3.1377 
       0.691403         3.11637         2.98304 
       0.707174         2.94721         2.83794 
       0.722871         2.80213         2.70306 
        0.73838          2.6943         2.57839 
       0.754018          2.5965         2.46065 
       0.769845         2.45965         2.34898 
        0.78569         2.35764         2.24414 
       0.801365         2.24955         2.14675 
       0.817031         2.16483         2.05522 
       0.832809         2.07419         1.96848 
       0.848511         1.97283         1.88716 
       0.864097         1.88698         1.81101 
       0.879701         1.81554         1.73901 
       0.895507         1.75245         1.67009 
       0.911279         1.70147         1.60507 
        0.92691         1.63139         1.54407 
       0.942635         1.56562         1.48591 
       0.958396          1.5025         1.43064 
       0.974128         1.45136         1.37829 
       0.989692         1.41093         1.32909 
        1.00528         1.35479         1.28223 
        1.02113         1.29818         1.23691 
        1.03692         1.26932         1.19395 
        1.05264         1.22208         1.15324 
        1.06832         1.18598         1.11449 
        1.08405         1.13112         1.07743 
        1.09979         1.10022         1.04204 
        1.11537          1.0723          1.0086 
        1.13105         1.04056        0.976433 
        1.14679         1.01279        0.945549 
        1.16256        0.970019        0.915946 
        1.17828        0.943828        0.887711 
        1.19395        0.914171        0.860767 
         1.2097        0.877949        0.834808 
        1.22537        0.861878        0.810049 
          1.241        0.837135        0.786372 
        1.25666        0.823165        0.763585 
        1.27241         0.78692        0.741598 
        1.28819        0.765361        0.720443 
        1.30392        0.748903        0.700177 
        1.31957        0.728865        0.680783 
        1.33529        0.706043        0.662055 
        1.35108        0.686702         0.64396 
        1.36674        0.661817        0.626672 
         1.3824        0.652991        0.610037 
        1.39811        0.632945        0.593952 
        1.41389         0.61871        0.578388 
        1.42964        0.604674        0.563409 
        1.44531        0.584391        0.549035 
        1.46101        0.574243        0.535133 
        1.47667        0.551584        0.521755 
        1.49229        0.545262        0.508872 
        1.50793        0.528245         0.49641 
        1.52367        0.518028        0.484287 
        1.53953        0.502922        0.472488 
        1.55526        0.492563        0.461177 
        1.57092        0.478742        0.450284 
        1.58662        0.469894        0.439718 
        1.60235          0.4594        0.429472 
        1.61809        0.444555        0.419547 
        1.63369        0.441921        0.410025 
        1.64941        0.427512        0.400731 
        1.66519        0.417733        0.391693 
        1.68085        0.406223        0.382998 
        1.69652        0.398189        0.374564 
        1.71228        0.391561        0.366338 
        1.72806        0.379644        0.358352 
        1.74368        0.375442        0.350686 
        1.75933        0.365244        0.343228 
        1.77505        0.357495        0.335953 
        1.79081        0.350878        0.328876 
         1.8065        0.340057        0.322034 
        1.82218        0.335691        0.315393 
        1.83797        0.327644        0.308894 
        1.85367         0.32357        0.302615 
        1.86928        0.315997        0.296548 
        1.88497        0.309238        0.290614 
        1.90073        0.302283        0.284821 
        1.91647        0.297444        0.279192 
        1.93218         0.29005        0.273727 
        1.94787        0.284886        0.268416 
        1.96363        0.279191        0.263226 
        1.97935         0.27265        0.258183 
        1.99499        0.268363        0.253302 
        2.01064        0.263244        0.248539 
         2.0264        0.256899         0.24387 
        2.04216        0.254623        0.239323 
        2.05781        0.248752         0.23492 
        2.07353        0.242506        0.230613 
        2.08928        0.237844        0.226405 
        2.10499        0.234455        0.222313 
        2.12065        0.231304        0.218334 
        2.13633         0.22632         0.21445 
        2.15211        0.222549        0.210635 
        2.16785        0.217802        0.206924 
        2.18349         0.21286        0.203325 
        2.19916        0.210883        0.199805 
        2.21489        0.206331        0.196356 
        2.23063        0.203449        0.192986 
         2.2463        0.199434        0.189711 
        2.26194        0.194769         0.18652 
        2.27765        0.191992        0.183387 
        2.29341        0.189136        0.180317 
        2.30914         0.18584        0.177323 
        2.32486        0.182321          0.1744 
        2.34061        0.179421        0.171537 
        2.35635         0.17593        0.168742 
        2.37203        0.173077        0.166018 
        2.38768        0.170199         0.16336 
        2.40339        0.167833        0.160751 
        2.41914        0.165296        0.158193 
        2.43483        0.162283        0.155699 
         2.4505        0.158664        0.153264 
        2.46622        0.156252        0.150872 
        2.48195        0.154052        0.148531 
        2.49759        0.152409        0.146253 
        2.51328        0.149662        0.144016 
        2.52906        0.147275        0.141812 
        2.54479        0.144329        0.139662 
        2.56049        0.141817        0.137561 
        2.57618        0.139648        0.135505 
        2.59189        0.138065        0.133489 
        2.60758        0.136322        0.131516 
        2.62325        0.133484        0.129585 
        2.63898        0.131735        0.127687 
        2.65468        0.129132        0.125831 
        2.67044         0.12776        0.124003 
        2.68618        0.125778        0.122216 
        2.70184        0.123627        0.120472 
        2.71755        0.121372        0.118757 
        2.73329        0.120145        0.117073 
        2.74897        0.118605        0.115427 
        2.76462        0.116476        0.113817 
        2.78034        0.114867         0.11223 
        2.79607        0.112792        0.110672 
        2.81179        0.111956        0.109146 
        2.82749        0.109826         0.10765 
        2.84321        0.108305         0.10618 
        2.85893        0.107057        0.104738 
        2.87462        0.105575        0.103326 
        2.89033         0.10396        0.101938 
        2.90605        0.102156        0.100575 
        2.92176        0.101095       0.0992369 
        2.93747       0.0993408       0.0979242 
        2.95318       0.0982438       0.0966348 
        2.96891        0.096723       0.0953681 
        2.98456        0.095495       0.0941298 
        3.00023       0.0942306       0.0929116 
        3.01596       0.0929681       0.0917112 
        3.03164       0.0920657       0.0905354 
        3.04738       0.0902944       0.0893768 
         3.0631       0.0893702       0.0882389 
        3.07883       0.0880404       0.0871207 
        3.09456       0.0869402       0.0860221 
        3.11026       0.0856577       0.0849441 
        3.12596       0.0846774       0.0838847 
        3.14163       0.0835047       0.0828459 
        3.15734       0.0826716       0.0818222 
        3.17308       0.0817884       0.0808133 
        3.18879       0.0805584       0.0798242 
        3.20447       0.0793185       0.0788531 
         3.2202        0.078936       0.0778951 
         3.2359       0.0776466       0.0769548 
        3.25157       0.0766036       0.0760322 
        3.26729       0.0755002       0.0751219 
        3.28304       0.0751067       0.0742248 
        3.29877        0.073962       0.0733435 
        3.31446       0.0730969       0.0724784 
        3.33014       0.0725861        0.071628 
        3.34585       0.0715326         0.07079 
        3.36158       0.0707653       0.0699641 
        3.37727       0.0700371        0.069154 
        3.39294       0.0690771       0.0683575 
        3.40867       0.0682183       0.0675706 
        3.42439       0.0675025       0.0667965 
        3.44008       0.0665571       0.0660361 
        3.45578       0.0661101        0.065287 
        3.47153       0.0653444       0.0645478 
        3.48724       0.0647471       0.0638213 
        3.50292       0.0639561       0.0631078 
        3.51859       0.0631254       0.0624054 
        3.53431       0.0624589       0.0617116 
        3.55007       0.0620046       0.0610267 
        3.56577       0.0613224       0.0603548 
        3.58146       0.0607854       0.0596933 
        3.59719       0.0602936       0.0590402 
        3.61292       0.0595935       0.0583971 
        3.62859       0.0588351        0.057766 
        3.64429       0.0583415        0.057143 
        3.66003       0.0578158       0.0565273 
        3.67578       0.0571427       0.0559209 
        3.69146       0.0565573       0.0553257 
        3.70712        0.056274       0.0547402 
        3.72284       0.0558148        0.054161 
        3.73853       0.0550979       0.0535912 
        3.75422       0.0547518       0.0530294 
        3.76993       0.0539968       0.0524752 
        3.78564       0.0536764        0.051929 
        3.80137       0.0530621       0.0513898 
        3.81707       0.0526322       0.0508594 
        3.83279       0.0523101        0.050336 
        3.84853       0.0517826       0.0498191 
        3.86424       0.0512991       0.0493105 
        3.87992       0.0507561       0.0488098 
        3.89561       0.0503249       0.0483159 
        3.91134       0.0499846       0.0478279 
        3.92704       0.0494783       0.0473472 
        3.94273       0.0489755       0.0468736 
        3.95845       0.0486356       0.0464056 
        3.97418       0.0482371       0.0459439 
        3.98988         0.04763        0.045489 
        4.00554       0.0473584       0.0450416 
        4.02125        0.046671       0.0445989 
        4.03698       0.0459629       0.0441615 
        4.05268       0.0453647       0.0437309 
        4.06839       0.0448076       0.0433057 
         4.0841       0.0441256       0.0428864 
        4.09983       0.0435383        0.042472 
        4.11555       0.0428366       0.0420632 
        4.13124       0.0422731       0.0416609 
        4.14693       0.0416424       0.0412636 
        4.16266       0.0411745       0.0408705 
        4.17839       0.0406534       0.0404827 
        4.19408       0.0401982       0.0401009 
        4.20977       0.0396711       0.0397238 
        4.22551       0.0391145       0.0393507 
        4.24123       0.0386972       0.0389827 
        4.25691       0.0381946       0.0386205 
        4.27259       0.0378371       0.0382627 
        4.28831       0.0374256       0.0379088 
        4.30404       0.0371113        0.037559 
        4.31974       0.0367993       0.0372143 
        4.33543       0.0364134       0.0368742 
        4.35116       0.0361049       0.0365375 
        4.36688       0.0357163       0.0362051 
        4.38255       0.0354155       0.0358781 
        4.39825       0.0351582       0.0355545 
        4.41398       0.0350641       0.0352342 
         4.4297       0.0347754       0.0349181 
        4.44541       0.0344979        0.034606 
        4.46111       0.0343524        0.034298 
        4.47683       0.0341479       0.0339935 
        4.49251       0.0338999       0.0336932 
        4.50819       0.0337484       0.0333967 
         4.5239        0.033533       0.0331034 
        4.53962       0.0334538       0.0328132 
        4.55535       0.0333465       0.0325263 
        4.57106       0.0332991       0.0322432 
        4.58678       0.0330497       0.0319635 
         4.6025       0.0330767        0.031687 
        4.61821       0.0330925       0.0314139 
        4.63391       0.0330403       0.0311443 
         4.6496       0.0329074        0.030878 
        4.66532        0.032973       0.0306143 
        4.68103       0.0329682       0.0303539 
        4.69673       0.0329355       0.0300968 
        4.71241       0.0329973       0.0298428 
        4.72811       0.0329508       0.0295914 
        4.74384       0.0331009       0.0293426 
        4.75955       0.0331867        0.029097 
        4.77525       0.0333203       0.0288543 
        4.79096       0.0333221       0.0286142 
        4.80669       0.0334249       0.0283766 
         4.8224       0.0336654        0.028142 
        4.83809       0.0338296       0.0279103 
        4.85379       0.0338915       0.0276811 
         4.8695       0.0341539       0.0274542 
        4.88521         0.03427         0.02723 
        4.90093       0.0345708       0.0270083 
        4.91663       0.0347724       0.0267892 
        4.93234       0.0348479       0.0265723 
        4.94807       0.0351512       0.0263577 
        4.96377       0.0355168       0.0261458 
        4.97943       0.0359214       0.0259367 
        4.99514       0.0360183       0.0257294 
        5.01086       0.0364755       0.0255242 
        5.02654       0.0366578       0.0253217 
        5.04227         0.03709       0.0251208 
          5.058        0.037515        0.024922 
        5.07371       0.0378821       0.0247258 
        5.08942       0.0381474       0.0245316 
        5.10513       0.0387526       0.0243395 
        5.12084       0.0391521       0.0241494 
        5.13656       0.0395392       0.0239613 
        5.15225       0.0401644       0.0237756 
        5.16796       0.0405718       0.0235915 
        5.18369       0.0411092       0.0234092 
         5.1994        0.041677       0.0232292 
        5.21509       0.0421462       0.0230512 
        5.23079       0.0427024       0.0228748 
        5.24649       0.0433681       0.0227005 
        5.26217         0.04405       0.0225281 
        5.27788       0.0446705       0.0223572 
        5.29359       0.0454562        0.022188 
        5.30933       0.0460031       0.0220204 
        5.32504       0.0467654       0.0218548 
        5.34073       0.0475643       0.0216911 
        5.35646       0.0483232       0.0215287 
        5.37218       0.0490735       0.0213679 
        5.38789        0.050187       0.0212091 
        5.40357       0.0506006        0.021052 
        5.41929       0.0516971       0.0208962 
        5.43502       0.0522963       0.0207419 
         5.4507       0.0533357       0.0205896 
        5.46639       0.0544963       0.0204388 
        5.48212       0.0552472       0.0202891 
        5.49786       0.0564381       0.0201408 
        5.51353        0.057725       0.0199946 
        5.52921       0.0584039       0.0198498 
        5.54495       0.0596089        0.019706 
        5.56066       0.0607936       0.0195637 
        5.57637       0.0619015       0.0194229 
        5.59207       0.0633934       0.0192836 
        5.60778       0.0646293       0.0191456 
        5.62346       0.0656833       0.0190091 
        5.63916       0.0672269       0.0188739 
        5.65487       0.0684888       0.0187399 
         5.6706       0.0695564        0.018607 
        5.68633       0.0712822       0.0184754 
        5.70203       0.0723029       0.0183453 
        5.71773       0.0743246       0.0182165 
        5.73344       0.0758103       0.0180888 
        5.74916       0.0775361       0.0179623 
        5.76486       0.0790946       0.0178371 
        5.78054       0.0803843       0.0177134 
        5.79626        0.082013       0.0175904 
          5.812       0.0842723       0.0174685 
         5.8277       0.0855997       0.0173481 
        5.84339       0.0873853       0.0172289 
        5.85911       0.0898818       0.0171105 
        5.87484       0.0912782       0.0169932 
        5.89053       0.0937547       0.0168773 
        5.90623        0.095806       0.0167625 
        5.92195        0.098331       0.0166485 
        5.93767        0.100562       0.0165356 
        5.95336         0.10221       0.0164239 
        5.96905        0.104911       0.0163133 
        5.98476         0.10715       0.0162036 
        6.00048        0.108969       0.0160949 
        6.01617        0.111773       0.0159872 
        6.03185        0.114697       0.0158808 
        6.04756        0.117103        0.015775 
        6.06331        0.119296       0.0156699 
        6.07903        0.122306       0.0155661 
        6.09473         0.12561       0.0154632 
        6.11044        0.128478       0.0153613 
        6.12616        0.131049       0.0152602 
        6.14186        0.134404       0.0151601 
        6.15755        0.137011        0.015061 
        6.17326        0.140843       0.0149627 
        6.18898        0.143079       0.0148652 
        6.20467        0.147425       0.0147687 
        6.22036        0.150169       0.0146731 
         6.2361        0.153847       0.0145781 
         6.2518        0.157333       0.0144841 
        6.26748        0.160058       0.0143911 
        6.28319        0.164149       0.0142987 
        6.29893        0.168398        0.014207 
        6.31463        0.171649       0.0141162 
        6.33033          0.1762       0.0140263 
        6.34604        0.180601       0.0139371 
        6.36177        0.183679       0.0138486 
        6.37747        0.188438       0.0137611 
