# k  (h/Mpc)    Pcb(k)  (Mpc/h)^3    Pcb_linear(k) (Mpc/h)^3   ShotnoiseSubtracted = true
      0.0200456           14969         15281.6 
      0.0350414         10707.1         11109.2 
      0.0492313         7963.36         8071.76 
      0.0637834         6843.57         6709.98 
      0.0800726         5409.37         5325.55 
       0.096163         3765.85         3864.15 
       0.111083          3005.8         3082.14 
       0.126058         2772.02         2731.41 
       0.142273         2397.53          2314.1 
       0.158546          2042.1         1827.66 
        0.17375         1633.56          1539.8 
       0.188953         1586.96         1394.25 
       0.204907         1491.74         1233.63 
       0.220756         1279.05         1043.73 
        0.23588         1132.25         907.951 
         0.2514         985.454         824.864 
       0.267535         972.664          746.36 
       0.283568         882.008          658.19 
       0.299022          827.88         586.413 
       0.314451         785.289         535.942 
       0.330372         723.212         491.666 
       0.346141         667.833         446.262 
       0.361624         642.252         405.591 
       0.377134         596.202         373.208 
       0.392932         572.278         345.322 
       0.408854         552.479          318.32 
       0.424564         519.256           293.4 
       0.440253         508.265         272.016 
       0.455999         480.005         253.421 
       0.471626         454.353         236.333 
        0.48727         438.869         220.349 
       0.502856         426.081         205.988 
       0.518488         421.913         193.176 
       0.534347         394.363         181.264 
       0.550082         376.434         170.281 
       0.565732         375.011         160.233 
       0.581496         353.095          151.03 
       0.597222         347.541         142.591 
       0.612804          337.22          134.83 
       0.628434         324.484         127.596 
       0.644267         315.375         120.834 
       0.660051         308.459         114.601 
       0.675724         303.936         108.845 
       0.691403         294.767          103.48 
       0.707174         284.178         98.4466 
       0.722871         280.696         93.7679 
        0.73838         276.343         89.4432 
       0.754018         268.858         85.3587 
       0.769845         259.939         81.4849 
        0.78569         259.728         77.8482 
       0.801365         250.631         74.4696 
       0.817031         243.027         71.2947 
       0.832809             241         68.2856 
       0.848511          234.42         65.4645 
       0.864097          231.28          62.823 
       0.879701         227.439         60.3253 
       0.895507          221.95         57.9347 
       0.911279         214.968         55.6791 
        0.92691         215.053         53.5629 
       0.942635         209.565         51.5455 
       0.958396         207.659         49.6282 
       0.974128         203.252         47.8123 
       0.989692         198.662         46.1056 
        1.00528         196.252           44.48 
        1.02113          194.59         42.9077 
        1.03692          189.42         41.4175 
        1.05264         185.689         40.0052 
        1.06832         182.517         38.6612 
        1.08405         179.506         37.3756 
        1.09979         177.917          36.148 
        1.11537         173.529         34.9879 
        1.13105         170.756          33.872 
        1.14679         170.796         32.8006 
        1.16256         167.623         31.7737 
        1.17828           164.2         30.7943 
        1.19395         161.767         29.8596 
         1.2097         160.974         28.9591 
        1.22537         157.531         28.1002 
          1.241         155.768         27.2788 
        1.25666         152.994         26.4884 
        1.27241         150.374         25.7257 
        1.28819          148.78         24.9918 
        1.30392         146.341         24.2888 
        1.31957         145.572          23.616 
        1.33529          141.58         22.9664 
        1.35108         140.727         22.3387 
        1.36674         139.371          21.739 
         1.3824         136.746         21.1619 
        1.39811         136.321         20.6039 
        1.41389         133.588          20.064 
        1.42964         130.849         19.5444 
        1.44531         128.796         19.0457 
        1.46101         127.458         18.5635 
        1.47667         125.697         18.0994 
        1.49229         124.093         17.6525 
        1.50793         123.115         17.2202 
        1.52367          121.64         16.7997 
        1.53953         119.101         16.3904 
        1.55526         117.982          15.998 
        1.57092          116.56         15.6201 
        1.58662         114.661         15.2536 
        1.60235         113.935         14.8982 
        1.61809         111.787         14.5539 
        1.63369         110.768         14.2236 
        1.64941         109.767         13.9012 
        1.66519         107.646         13.5876 
        1.68085         107.029          13.286 
        1.69652         104.353         12.9935 
        1.71228         104.465         12.7081 
        1.72806         103.054         12.4311 
        1.74368         101.768         12.1651 
        1.75933         100.307         11.9064 
        1.77505         99.1545          11.654 
        1.79081           97.85         11.4086 
         1.8065         96.6424         11.1712 
        1.82218         94.9121         10.9408 
        1.83797         93.6767         10.7154 
        1.85367         92.8564         10.4976 
        1.86928         92.0736         10.2871 
        1.88497         90.2819         10.0813 
        1.90073         89.8921         9.88031 
        1.91647         88.5393         9.68503 
        1.93218         87.4204         9.49544 
        1.94787          86.665         9.31122 
        1.96363         85.2409         9.13117 
        1.97935          84.242         8.95625 
        1.99499         83.4668         8.78691 
        2.01064         82.5461         8.62171 
         2.0264         81.0392         8.45972 
        2.04216         80.2907         8.30198 
        2.05781         79.3103         8.14927 
        2.07353         77.8994         7.99985 
        2.08928         76.9777         7.85387 
        2.10499         76.1605         7.71192 
        2.12065         75.8163          7.5739 
        2.13633         74.8016         7.43916 
        2.15211         73.8902         7.30682 
        2.16785           72.89         7.17808 
        2.18349         72.0107         7.05324 
        2.19916         71.2416         6.93112 
        2.21489          70.372         6.81149 
        2.23063         69.6848         6.69461 
         2.2463         68.7797         6.58099 
        2.26194         68.4298          6.4703 
        2.27765         67.4515         6.36159 
        2.29341         66.5406         6.25509 
        2.30914         65.6008         6.15126 
        2.32486         64.8517         6.04984 
        2.34061         64.1841         5.95054 
        2.35635         63.5406         5.85357 
        2.37203         62.5404         5.75909 
        2.38768          61.911         5.66689 
        2.40339         61.2169         5.57638 
        2.41914         60.6754         5.48764 
        2.43483         60.3552         5.40114 
         2.4505         59.4988         5.31665 
        2.46622         58.8055         5.23368 
        2.48195         58.0794         5.15248 
        2.49759         57.2227         5.07344 
        2.51328         56.7165         4.99585 
        2.52906         56.2905         4.91939 
        2.54479         55.5666         4.84482 
        2.56049         54.8057         4.77193 
        2.57618         54.3853         4.70062 
        2.59189         53.6835         4.63065 
        2.60758         53.3511         4.56222 
        2.62325         52.6406         4.49525 
        2.63898         52.1358          4.4294 
        2.65468         51.6481           4.365 
        2.67044          50.832         4.30161 
        2.68618         50.5101         4.23963 
        2.70184          49.783         4.17911 
        2.71755          49.618         4.11963 
        2.73329         48.6965         4.06121 
        2.74897         48.2881         4.00412 
        2.76462         47.7562         3.94825 
        2.78034         47.4078         3.89321 
        2.79607         46.6861         3.83917 
        2.81179         46.2458         3.78622 
        2.82749         45.6433         3.73432 
        2.84321         45.2945         3.68334 
        2.85893         44.7527         3.63333 
        2.87462         44.2227         3.58433 
        2.89033         43.7683         3.53619 
        2.90605         43.3558         3.48889 
        2.92176         42.9377         3.44248 
        2.93747         42.5015         3.39694 
        2.95318         41.9914         3.35221 
        2.96891         41.4191         3.30827 
        2.98456         41.2558         3.26532 
        3.00023         40.7228         3.22306 
        3.01596         40.4048         3.18142 
        3.03164         39.8309         3.14063 
        3.04738         39.6131         3.10044 
         3.0631         39.0912         3.06096 
        3.07883         38.7317         3.02217 
        3.09456         38.2943         2.98406 
        3.11026         37.8195         2.94667 
        3.12596         37.6311         2.90992 
        3.14163         37.1474         2.87388 
        3.15734         36.5578         2.83837 
        3.17308          36.511         2.80337 
        3.18879         36.2446         2.76906 
        3.20447         35.6826         2.73537 
         3.2202           35.24         2.70214 
         3.2359         34.9501         2.66952 
        3.25157         34.6005         2.63752 
        3.26729         34.2911         2.60594 
        3.28304         33.8653         2.57482 
        3.29877          33.643         2.54425 
        3.31446         33.3665         2.51424 
        3.33014         32.9582         2.48474 
        3.34585         32.6981         2.45567 
        3.36158         32.3654         2.42702 
        3.37727         32.0114         2.39892 
        3.39294         31.7038         2.37129 
        3.40867         31.4134         2.34399 
        3.42439         31.1227         2.31714 
        3.44008         30.9932         2.29076 
        3.45578         30.4257         2.26477 
        3.47153         30.1791         2.23913 
        3.48724         29.9477         2.21393 
        3.50292         29.6373         2.18918 
        3.51859          29.382         2.16481 
        3.53431         29.1473         2.14075 
        3.55007         28.8658         2.11698 
        3.56577         28.5864         2.09368 
        3.58146         28.3409         2.07073 
        3.59719         28.0041         2.04808 
        3.61292         27.7916         2.02577 
        3.62859         27.4962         2.00387 
        3.64429         27.1593         1.98226 
        3.66003         26.9276         1.96091 
        3.67578         26.7551         1.93987 
        3.69146          26.533         1.91922 
        3.70712         26.2519         1.89891 
        3.72284         26.1171         1.87882 
        3.73853         25.8266         1.85905 
        3.75422         25.5486         1.83956 
        3.76993         25.4019         1.82034 
        3.78564         25.0846         1.80139 
        3.80137         24.9138         1.78269 
        3.81707         24.6978         1.76429 
        3.83279          24.445         1.74613 
        3.84853         24.1116          1.7282 
        3.86424         23.9171         1.71056 
        3.87992         23.7326         1.69319 
        3.89561         23.5249         1.67606 
        3.91134         23.3419         1.65913 
        3.92704         23.1284         1.64245 
        3.94273         22.8851         1.62602 
        3.95845         22.6488         1.60979 
        3.97418         22.5256         1.59377 
        3.98988         22.2833         1.57799 
        4.00554         22.0931         1.56247 
        4.02125           21.97         1.54711 
        4.03698         21.6871         1.53194 
        4.05268         21.5241           1.517 
        4.06839         21.3022         1.50225 
         4.0841         21.1906         1.48771 
        4.09983         21.0066         1.47333 
        4.11555          20.825         1.45915 
        4.13124         20.5251          1.4452 
        4.14693         20.3671         1.43141 
        4.16266         20.2135         1.41778 
        4.17839         20.0326         1.40433 
        4.19408         19.8276         1.39108 
        4.20977         19.7516           1.378 
        4.22551          19.538         1.36506 
        4.24123         19.3692         1.35229 
        4.25691         19.2193         1.33973 
        4.27259         19.0459         1.32732 
        4.28831         18.8676         1.31504 
        4.30404         18.6867          1.3029 
        4.31974         18.5469         1.29095 
        4.33543         18.4229         1.27915 
        4.35116         18.2802         1.26747 
        4.36688         18.0835         1.25594 
        4.38255         17.9529          1.2446 
        4.39825         17.8426         1.23337 
        4.41398         17.6272         1.22226 
         4.4297         17.4964         1.21129 
        4.44541          17.389         1.20047 
        4.46111         17.2167         1.18978 
        4.47683         17.0714         1.17922 
        4.49251         16.9633          1.1688 
        4.50819         16.7948         1.15852 
         4.5239         16.6918         1.14834 
        4.53962         16.5116         1.13827 
        4.55535         16.3921         1.12832 
        4.57106         16.2374          1.1185 
        4.58678         16.1552          1.1088 
         4.6025         15.9972         1.09921 
        4.61821         15.8704         1.08973 
        4.63391         15.7402         1.08038 
         4.6496         15.6053         1.07114 
        4.66532         15.4561           1.062 
        4.68103         15.3349         1.05296 
        4.69673         15.2705         1.04404 
        4.71241         15.1353         1.03523 
        4.72811         14.9782         1.02651 
        4.74384         14.8858         1.01788 
        4.75955         14.7672         1.00936 
        4.77525         14.6691         1.00094 
        4.79096         14.5254        0.992611 
        4.80669          14.419         0.98437 
         4.8224         14.2822        0.976232 
        4.83809         14.1792        0.968194 
        4.85379         14.0471        0.960242 
         4.8695         14.0042        0.952373 
        4.88521         13.8635        0.944595 
        4.90093         13.7526        0.936903 
        4.91663         13.6735        0.929303 
        4.93234         13.5246         0.92178 
        4.94807         13.4367        0.914335 
        4.96377         13.3029        0.906985 
        4.97943         13.2346        0.899732 
        4.99514         13.0999         0.89254 
        5.01086         13.0423        0.885421 
        5.02654         12.8962        0.878397 
        5.04227         12.8326        0.871429 
          5.058         12.7278        0.864533 
        5.07371         12.6345        0.857726 
        5.08942         12.5223         0.85099 
        5.10513         12.4517        0.844327 
        5.12084         12.3323        0.837731 
        5.13656         12.2536        0.831207 
        5.15225         12.1336        0.824763 
        5.16796          12.089        0.818377 
        5.18369         11.9595        0.812053 
         5.1994          11.895        0.805808 
        5.21509         11.7919        0.799633 
        5.23079         11.7169        0.793516 
        5.24649         11.6278        0.787468 
        5.26217         11.5235        0.781487 
        5.27788         11.4392        0.775559 
        5.29359         11.3903        0.769692 
        5.30933         11.2883        0.763877 
        5.32504         11.2288        0.758132 
        5.34073         11.1252        0.752452 
        5.35646         11.0484        0.746819 
        5.37218         10.9576        0.741243 
        5.38789         10.8849        0.735732 
        5.40357         10.8062        0.730284 
        5.41929         10.7259        0.724879 
        5.43502         10.6774        0.719528 
         5.4507         10.5683        0.714243 
        5.46639         10.5107        0.709011 
        5.48212         10.4571        0.703819 
        5.49786         10.3479        0.698673 
        5.51353         10.2897        0.693604 
        5.52921         10.2008        0.688579 
        5.54495         10.1196         0.68359 
        5.56066         10.0489        0.678656 
        5.57637         9.96918        0.673771 
        5.59207         9.92488        0.668938 
        5.60778         9.84231        0.664151 
        5.62346         9.79168        0.659418 
        5.63916         9.70274        0.654726 
        5.65487         9.64197        0.650077 
         5.6706         9.57874        0.645468 
        5.68633          9.5038        0.640901 
        5.70203          9.4553        0.636389 
        5.71773         9.38643         0.63192 
        5.73344         9.30877        0.627492 
        5.74916         9.24867        0.623103 
        5.76486         9.17747        0.618761 
        5.78054          9.1216        0.614467 
        5.79626         9.05595        0.610202 
          5.812         8.99453        0.605974 
         5.8277         8.92419        0.601797 
        5.84339         8.87575         0.59766 
        5.85911         8.81175        0.593554 
        5.87484         8.73654        0.589487 
        5.89053         8.68602        0.585467 
        5.90623         8.61616        0.581482 
        5.92195         8.57333        0.577527 
        5.93767         8.51473        0.573611 
        5.95336         8.45525        0.569737 
        5.96905         8.39496        0.565901 
        5.98476         8.35141        0.562095 
        6.00048         8.28791        0.558323 
        6.01617         8.24584         0.55459 
        6.03185          8.1777        0.550896 
        6.04756         8.11573        0.547226 
        6.06331         8.07179        0.543582 
        6.07903          8.0162        0.539979 
        6.09473         7.95855        0.536412 
        6.11044         7.91684        0.532874 
        6.12616         7.85105        0.529369 
        6.14186          7.7894        0.525898 
        6.15755         7.73563        0.522459 
        6.17326         7.70509        0.519048 
        6.18898         7.64374        0.515665 
        6.20467         7.59572        0.512319 
        6.22036         7.54551        0.509003 
         6.2361          7.4906        0.505707 
         6.2518         7.45182        0.502445 
        6.26748         7.39059         0.49922 
        6.28319         7.34966        0.496014 
        6.29893         7.30437        0.492833 
        6.31463         7.25737        0.489686 
        6.33033          7.2165        0.486567 
        6.34604         7.16792        0.483473 
        6.36177         7.11061        0.480402 
        6.37747         7.07668        0.477365 
