# k  (h/Mpc)    Pcb(k)  (Mpc/h)^3    Pcb_linear(k) (Mpc/h)^3   ShotnoiseSubtracted = true
      0.0200456         19433.3         19763.8 
      0.0350414         14805.7         14367.6 
      0.0492313         10242.5         10439.2 
      0.0637834         8261.53         8678.03 
      0.0800726         6488.84         6887.54 
       0.096163          5188.9         4997.51 
       0.111083         4225.46         3986.14 
       0.126058         3496.15         3532.53 
       0.142273         3053.26         2992.83 
       0.158546         2507.19         2363.71 
        0.17375         2229.64         1991.42 
       0.188953         2103.26         1803.19 
       0.204907         1807.14         1595.45 
       0.220756         1630.59         1349.85 
        0.23588            1455         1174.25 
         0.2514         1313.05          1066.8 
       0.267535         1270.63         965.269 
       0.283568         1126.46         851.237 
       0.299022         1075.36         758.408 
       0.314451         1115.57         693.134 
       0.330372         976.267         635.872 
       0.346141         898.115         577.151 
       0.361624         861.961         524.551 
       0.377134         823.318          482.67 
       0.392932          788.76         446.605 
       0.408854          754.12         411.684 
       0.424564         736.442         379.455 
       0.440253         678.734         351.798 
       0.455999         649.444          327.75 
       0.471626         661.709          305.65 
        0.48727         624.408         284.977 
       0.502856         591.983         266.405 
       0.518488         580.575         249.834 
       0.534347         551.971         234.429 
       0.550082          527.52         220.225 
       0.565732         521.898          207.23 
       0.581496         510.153         195.328 
       0.597222         497.182         184.413 
       0.612804          485.96         174.376 
       0.628434          466.03          165.02 
       0.644267         451.288         156.274 
       0.660051          445.68         148.213 
       0.675724         436.927          140.77 
       0.691403         426.576         133.831 
       0.707174         411.642         127.321 
       0.722871         405.491          121.27 
        0.73838         398.989         115.677 
       0.754018         386.474         110.395 
       0.769845         383.351         105.384 
        0.78569          375.28         100.681 
       0.801365          362.77         96.3117 
       0.817031         360.086         92.2055 
       0.832809         354.131         88.3138 
       0.848511         346.901         84.6653 
       0.864097          338.28          81.249 
       0.879701         336.303         78.0188 
       0.895507         325.008          74.927 
       0.911279         318.939         72.0099 
        0.92691         316.267          69.273 
       0.942635         313.198         66.6638 
       0.958396         302.986         64.1842 
       0.974128         300.148         61.8357 
       0.989692         289.357         59.6284 
        1.00528         288.789          57.526 
        1.02113         284.347         55.4925 
        1.03692         278.721         53.5652 
        1.05264         274.159         51.7387 
        1.06832         271.606         50.0006 
        1.08405         266.502          48.338 
        1.09979         262.821         46.7503 
        1.11537         256.663         45.2499 
        1.13105         252.998         43.8067 
        1.14679         250.205         42.4211 
        1.16256         247.896          41.093 
        1.17828         244.119         39.8263 
        1.19395         237.719         38.6174 
         1.2097         237.717         37.4528 
        1.22537         234.032          36.342 
          1.241         228.008         35.2798 
        1.25666         226.448         34.2575 
        1.27241         222.599         33.2711 
        1.28819         219.213         32.3219 
        1.30392         217.377         31.4127 
        1.31957          211.45         30.5426 
        1.33529         208.666         29.7024 
        1.35108         207.733         28.8906 
        1.36674           202.3          28.115 
         1.3824         201.138         27.3687 
        1.39811         199.261         26.6471 
        1.41389         193.773         25.9488 
        1.42964         191.772         25.2767 
        1.44531         190.124         24.6319 
        1.46101         186.656         24.0082 
        1.47667         184.739          23.408 
        1.49229         182.032           22.83 
        1.50793         179.113         22.2709 
        1.52367         177.219          21.727 
        1.53953         173.218         21.1977 
        1.55526         172.494         20.6902 
        1.57092         171.068         20.2016 
        1.58662         166.656         19.7275 
        1.60235         165.224         19.2678 
        1.61809         162.692         18.8226 
        1.63369         159.958         18.3954 
        1.64941         158.464         17.9784 
        1.66519         156.493         17.5729 
        1.68085         153.822         17.1828 
        1.69652         152.042         16.8044 
        1.71228         149.866         16.4354 
        1.72806         148.576         16.0771 
        1.74368          146.63         15.7331 
        1.75933         145.386         15.3986 
        1.77505         143.098         15.0722 
        1.79081         140.159         14.7547 
         1.8065          138.62         14.4477 
        1.82218         136.405         14.1498 
        1.83797         135.665         13.8582 
        1.85367         133.852         13.5765 
        1.86928         132.179         13.3043 
        1.88497         130.629         13.0381 
        1.90073         129.375         12.7782 
        1.91647          127.08         12.5257 
        1.93218          125.74         12.2805 
        1.94787         123.686         12.0422 
        1.96363         123.038         11.8093 
        1.97935         121.445         11.5831 
        1.99499          120.24         11.3641 
        2.01064         117.577         11.1505 
         2.0264         116.805          10.941 
        2.04216         115.015          10.737 
        2.05781         113.803         10.5395 
        2.07353         112.286         10.3462 
        2.08928         110.931         10.1574 
        2.10499         109.826         9.97383 
        2.12065         108.723         9.79534 
        2.13633         107.814         9.62107 
        2.15211         105.967         9.44992 
        2.16785         104.563         9.28341 
        2.18349         103.133         9.12197 
        2.19916         102.199         8.96403 
        2.21489         101.342         8.80931 
        2.23063         99.4909         8.65814 
         2.2463         98.6365          8.5112 
        2.26194         97.6038         8.36805 
        2.27765         96.2289         8.22745 
        2.29341         95.3603         8.08972 
        2.30914          94.084         7.95543 
        2.32486         92.4303         7.82427 
        2.34061          91.986         7.69585 
        2.35635         90.7046         7.57042 
        2.37203         89.2853         7.44823 
        2.38768         88.4704         7.32899 
        2.40339         87.9145         7.21194 
        2.41914         86.2655         7.09717 
        2.43483         85.6212          6.9853 
         2.4505          84.582         6.87603 
        2.46622         83.6658         6.76873 
        2.48195           82.73         6.66371 
        2.49759         81.6695         6.56148 
        2.51328         80.8644         6.46113 
        2.52906           79.34         6.36225 
        2.54479         78.7578         6.26581 
        2.56049         77.6522         6.17155 
        2.57618         76.7477         6.07931 
        2.59189         76.3833         5.98883 
        2.60758         74.8034         5.90032 
        2.62325         74.4973         5.81372 
        2.63898         73.6515         5.72855 
        2.65468         72.7994         5.64526 
        2.67044         71.8327         5.56328 
        2.68618         71.2631         5.48312 
        2.70184         70.1886         5.40485 
        2.71755         69.4923         5.32792 
        2.73329         68.4984         5.25237 
        2.74897         68.1253         5.17853 
        2.76462         67.2795         5.10627 
        2.78034         66.3642          5.0351 
        2.79607         65.7684          4.9652 
        2.81179         65.2027         4.89672 
        2.82749          64.608          4.8296 
        2.84321         63.8829         4.76367 
        2.85893         63.1617         4.69899 
        2.87462         62.4425         4.63561 
        2.89033         61.8354         4.57335 
        2.90605         61.2547         4.51218 
        2.92176         60.4738         4.45216 
        2.93747         59.8877         4.39327 
        2.95318         59.1652         4.33542 
        2.96891         58.5551         4.27859 
        2.98456         57.9385         4.22304 
        3.00023         57.3161         4.16838 
        3.01596          56.817         4.11453 
        3.03164         56.1885         4.06178 
        3.04738         55.6988          4.0098 
         3.0631          54.763         3.95875 
        3.07883         54.2754         3.90858 
        3.09456         53.7072         3.85929 
        3.11026         53.1594         3.81093 
        3.12596          52.745          3.7634 
        3.14163         52.0148         3.71679 
        3.15734         51.5162         3.67087 
        3.17308         51.0122         3.62561 
        3.18879         50.4733         3.58123 
        3.20447         50.1359         3.53766 
         3.2202         49.3872         3.49469 
         3.2359         48.9207          3.4525 
        3.25157          48.597         3.41111 
        3.26729         47.9553         3.37027 
        3.28304         47.5976         3.33002 
        3.29877         46.9976         3.29048 
        3.31446         46.6273         3.25167 
        3.33014         46.1545         3.21352 
        3.34585         45.5529         3.17592 
        3.36158         45.1631         3.13887 
        3.37727         44.7572         3.10252 
        3.39294          44.369         3.06679 
        3.40867         43.9615         3.03149 
        3.42439         43.4756         2.99676 
        3.44008         42.9486         2.96264 
        3.45578         42.6005         2.92903 
        3.47153         42.1177         2.89587 
        3.48724         41.6575         2.86328 
        3.50292         41.3078         2.83127 
        3.51859         40.9543         2.79976 
        3.53431         40.4582         2.76863 
        3.55007         40.0968          2.7379 
        3.56577         39.8791         2.70776 
        3.58146         39.3541         2.67808 
        3.59719         38.9929         2.64878 
        3.61292         38.6268         2.61993 
        3.62859         38.3456         2.59161 
        3.64429         38.0234         2.56366 
        3.66003         37.6418         2.53604 
        3.67578         37.3526         2.50884 
        3.69146         37.0133         2.48213 
        3.70712         36.5726         2.45586 
        3.72284         36.2526         2.42988 
        3.73853         36.0336         2.40432 
        3.75422         35.6528         2.37911 
        3.76993         35.3309         2.35424 
        3.78564         35.0811         2.32974 
        3.80137         34.6604         2.30555 
        3.81707         34.3806         2.28175 
        3.83279         34.0024         2.25827 
        3.84853         33.6814         2.23508 
        3.86424          33.374         2.21227 
        3.87992           33.19          2.1898 
        3.89561         32.8987         2.16764 
        3.91134         32.6197         2.14575 
        3.92704         32.2561         2.12418 
        3.94273         32.0039         2.10294 
        3.95845         31.7177         2.08194 
        3.97418         31.3509         2.06122 
        3.98988         31.0642         2.04082 
        4.00554           30.78         2.02075 
        4.02125         30.6072         2.00088 
        4.03698         30.2092         1.98126 
        4.05268          29.988         1.96194 
        4.06839         29.6882         1.94287 
         4.0841          29.518         1.92405 
        4.09983         29.1596         1.90546 
        4.11555         28.8399         1.88712 
        4.13124         28.7381         1.86907 
        4.14693         28.4902         1.85125 
        4.16266          28.153         1.83361 
        4.17839         28.0071         1.81622 
        4.19408         27.7027         1.79909 
        4.20977         27.4461         1.78217 
        4.22551         27.2476         1.76543 
        4.24123         27.0267         1.74892 
        4.25691         26.7808         1.73267 
        4.27259         26.6129         1.71662 
        4.28831         26.3257         1.70074 
        4.30404          26.121         1.68504 
        4.31974         25.8374         1.66958 
        4.33543         25.6861         1.65432 
        4.35116         25.4588         1.63922 
        4.36688         25.2811         1.62431 
        4.38255         25.0646         1.60964 
        4.39825         24.7838         1.59512 
        4.41398          24.627         1.58074 
         4.4297         24.3985         1.56657 
        4.44541         24.2383         1.55256 
        4.46111         24.0288         1.53874 
        4.47683          23.787         1.52508 
        4.49251         23.6068         1.51161 
        4.50819         23.4253         1.49831 
         4.5239         23.2449         1.48515 
        4.53962         23.0515         1.47213 
        4.55535         22.8223         1.45926 
        4.57106         22.6352         1.44656 
        4.58678         22.4872         1.43401 
         4.6025         22.2357         1.42161 
        4.61821         22.1134         1.40935 
        4.63391         21.8822         1.39726 
         4.6496          21.757         1.38531 
        4.66532         21.5792         1.37348 
        4.68103          21.329          1.3618 
        4.69673         21.2762         1.35026 
        4.71241         21.1121         1.33887 
        4.72811          20.904         1.32759 
        4.74384         20.7102         1.31643 
        4.75955         20.5907         1.30541 
        4.77525         20.4139         1.29452 
        4.79096         20.2591         1.28375 
        4.80669          20.086         1.27309 
         4.8224          19.931         1.26256 
        4.83809         19.7812         1.25217 
        4.85379         19.6309         1.24188 
         4.8695         19.4519         1.23171 
        4.88521         19.2897         1.22165 
        4.90093         19.1605          1.2117 
        4.91663         19.0052         1.20187 
        4.93234         18.8201         1.19214 
        4.94807         18.6943         1.18251 
        4.96377         18.5794         1.17301 
        4.97943         18.3839         1.16363 
        4.99514         18.2576         1.15432 
        5.01086          18.102         1.14512 
        5.02654          18.008         1.13603 
        5.04227         17.8249         1.12702 
          5.058         17.6952          1.1181 
        5.07371         17.5951          1.1093 
        5.08942         17.4395         1.10059 
        5.10513         17.3175         1.09197 
        5.12084         17.2002         1.08344 
        5.13656         17.0316           1.075 
        5.15225         16.9126         1.06667 
        5.16796         16.7868         1.05841 
        5.18369         16.6721         1.05023 
         5.1994         16.5742         1.04215 
        5.21509         16.4469         1.03417 
        5.23079         16.3156         1.02626 
        5.24649         16.2114         1.01843 
        5.26217         16.0571          1.0107 
        5.27788         15.9303         1.00303 
        5.29359         15.8333        0.995444 
        5.30933         15.7054        0.987924 
        5.32504         15.5687        0.980493 
        5.34073         15.5082        0.973148 
        5.35646         15.3637        0.965862 
        5.37218         15.2318         0.95865 
        5.38789          15.162        0.951523 
        5.40357         15.0297        0.944477 
        5.41929          14.917        0.937487 
        5.43502         14.7991        0.930566 
         5.4507         14.7279        0.923732 
        5.46639         14.6078        0.916965 
        5.48212         14.4795         0.91025 
        5.49786         14.3698        0.903594 
        5.51353         14.2667        0.897038 
        5.52921         14.1771         0.89054 
        5.54495         14.0597        0.884088 
        5.56066         13.9883        0.877706 
        5.57637         13.8727        0.871389 
        5.59207         13.7663        0.865139 
        5.60778         13.6648        0.858948 
        5.62346         13.6196        0.852826 
        5.63916         13.4931        0.846757 
        5.65487          13.377        0.840745 
         5.6706         13.3033        0.834784 
        5.68633         13.2165        0.828879 
        5.70203            13.1        0.823042 
        5.71773         13.0184        0.817263 
        5.73344         12.9406        0.811537 
        5.74916         12.8412         0.80586 
        5.76486         12.7465        0.800244 
        5.78054         12.6691        0.794692 
        5.79626         12.5633        0.789176 
          5.812          12.497        0.783707 
         5.8277         12.4044        0.778305 
        5.84339         12.2978        0.772955 
        5.85911         12.2237        0.767644 
        5.87484         12.1505        0.762385 
        5.89053         12.0376        0.757185 
        5.90623         11.9598        0.752031 
        5.92195         11.8761        0.746916 
        5.93767         11.7931        0.741851 
        5.95336         11.7451        0.736842 
        5.96905         11.6455        0.731881 
        5.98476         11.5771        0.726958 
        6.00048         11.4828        0.722079 
        6.01617         11.3982        0.717252 
        6.03185         11.3406        0.712474 
        6.04756         11.2554        0.707728 
        6.06331         11.1724        0.703016 
        6.07903          11.102        0.698356 
        6.09473         11.0418        0.693743 
        6.11044         10.9547        0.689167 
        6.12616         10.8762        0.684633 
        6.14186         10.8079        0.680145 
        6.15755          10.745        0.675697 
        6.17326         10.6524        0.671285 
        6.18898          10.594         0.66691 
        6.20467         10.5273        0.662583 
        6.22036         10.4469        0.658294 
         6.2361         10.3966        0.654031 
         6.2518         10.3346        0.649813 
        6.26748         10.2465        0.645642 
        6.28319         10.1971        0.641495 
        6.29893         10.1221        0.637382 
        6.31463         10.0553        0.633311 
        6.33033         9.97858        0.629277 
        6.34604         9.92873        0.625276 
        6.36177         9.85701        0.621305 
        6.37747         9.79273        0.617376 
