# k  (h/Mpc)    Pcb(k)  (Mpc/h)^3    Pcb_linear(k) (Mpc/h)^3   ShotnoiseSubtracted = true
      0.0200456         17497.4         17882.1 
      0.0350414         12478.6         12999.7 
      0.0492313         9289.82         9445.35 
      0.0637834         8007.62         7851.83 
      0.0800726         6325.03          6231.8 
       0.096163         4394.66         4521.72 
       0.111083         3516.71         3606.64 
       0.126058          3242.6         3196.21 
       0.142273         2806.11          2707.9 
       0.158546         2416.84         2138.67 
        0.17375         1931.95         1801.83 
       0.188953         1882.91         1631.51 
       0.204907         1770.21         1443.56 
       0.220756         1525.13         1221.34 
        0.23588         1355.05         1062.46 
         0.2514         1178.54         965.232 
       0.267535         1170.78         873.369 
       0.283568         1061.51         770.194 
       0.299022         999.984         686.203 
       0.314451         951.649         627.143 
       0.330372         875.486         575.334 
       0.346141         819.354         522.203 
       0.361624         787.804         474.611 
       0.377134         731.776         436.717 
       0.392932          704.06         404.086 
       0.408854         683.844         372.489 
       0.424564         638.231         343.328 
       0.440253         627.127         318.305 
       0.455999         595.793         296.547 
       0.471626         569.022         276.551 
        0.48727         547.494         257.846 
       0.502856         532.675         241.042 
       0.518488         526.799         226.048 
       0.534347         492.259          212.11 
       0.550082         474.262         199.258 
       0.565732         473.807           187.5 
       0.581496          445.49         176.731 
       0.597222         438.888         166.855 
       0.612804         427.615         157.774 
       0.628434         412.982          149.31 
       0.644267          402.03         141.396 
       0.660051         390.348         134.102 
       0.675724         386.297         127.368 
       0.691403         374.005          121.09 
       0.707174         361.194         115.199 
       0.722871         356.921         109.724 
        0.73838         351.838         104.664 
       0.754018         341.837         99.8843 
       0.769845         332.736         95.3512 
        0.78569         330.857         91.0957 
       0.801365         320.413         87.1422 
       0.817031         310.263          83.427 
       0.832809         308.568         79.9058 
       0.848511          300.26         76.6047 
       0.864097         294.693         73.5136 
       0.879701         290.766          70.591 
       0.895507         285.339         67.7935 
       0.911279         275.976         65.1541 
        0.92691         274.591         62.6778 
       0.942635         268.069          60.317 
       0.958396           263.5         58.0734 
       0.974128         258.829         55.9485 
       0.989692         254.784         53.9514 
        1.00528         250.654         52.0492 
        1.02113         248.331         50.2093 
        1.03692         242.283         48.4655 
        1.05264         238.747         46.8129 
        1.06832         233.848         45.2402 
        1.08405          229.75         43.7359 
        1.09979         226.165         42.2994 
        1.11537         222.564         40.9418 
        1.13105         217.389          39.636 
        1.14679         216.981         38.3824 
        1.16256         212.805         37.1807 
        1.17828         209.192         36.0346 
        1.19395         205.494         34.9408 
         1.2097         205.308         33.8871 
        1.22537         200.328          32.882 
          1.241         198.964         31.9209 
        1.25666         194.678          30.996 
        1.27241         191.955         30.1035 
        1.28819          189.67         29.2447 
        1.30392         185.541          28.422 
        1.31957         185.773         27.6348 
        1.33529           181.1         26.8746 
        1.35108         177.979           26.14 
        1.36674         177.176         25.4383 
         1.3824         174.659          24.763 
        1.39811         173.584         24.1101 
        1.41389         169.781         23.4783 
        1.42964         167.351         22.8703 
        1.44531         164.988         22.2868 
        1.46101         163.374         21.7225 
        1.47667         160.123         21.1794 
        1.49229         158.237         20.6565 
        1.50793         156.254         20.1506 
        1.52367          155.04         19.6585 
        1.53953         151.877         19.1795 
        1.55526         149.674         18.7204 
        1.57092         148.319         18.2782 
        1.58662         146.116         17.8493 
        1.60235         144.231         17.4334 
        1.61809         142.888         17.0305 
        1.63369         140.371          16.644 
        1.64941         138.208         16.2668 
        1.66519         136.737         15.8998 
        1.68085          135.57         15.5469 
        1.69652         133.187         15.2046 
        1.71228          131.44         14.8706 
        1.72806         129.916         14.5465 
        1.74368         128.968         14.2353 
        1.75933          126.79         13.9325 
        1.77505         125.177         13.6372 
        1.79081         124.288           13.35 
         1.8065         122.608         13.0722 
        1.82218         120.214         12.8026 
        1.83797         118.775         12.5388 
        1.85367         117.728         12.2839 
        1.86928         115.959         12.0377 
        1.88497          113.85         11.7968 
        1.90073         112.983         11.5617 
        1.91647         111.593         11.3331 
        1.93218         110.273         11.1113 
        1.94787         108.888         10.8957 
        1.96363         107.612          10.685 
        1.97935         105.696         10.4803 
        1.99499         104.806         10.2822 
        2.01064         103.585         10.0889 
         2.0264         102.089         9.89932 
        2.04216          101.32         9.71474 
        2.05781          100.04         9.53604 
        2.07353         98.8755          9.3612 
        2.08928         97.2324         9.19037 
        2.10499         95.7324         9.02426 
        2.12065         95.2344         8.86277 
        2.13633         94.3251         8.70509 
        2.15211         92.9589         8.55023 
        2.16785         91.4227         8.39958 
        2.18349          90.383          8.2535 
        2.19916         89.5358          8.1106 
        2.21489         88.4593         7.97061 
        2.23063         87.1124         7.83384 
         2.2463         86.2224         7.70089 
        2.26194         85.9929         7.57136 
        2.27765         84.2462         7.44415 
        2.29341         83.4571         7.31953 
        2.30914         82.3481         7.19803 
        2.32486         81.6689         7.07935 
        2.34061         80.6167         6.96316 
        2.35635         79.1129         6.84967 
        2.37203         78.2591         6.73912 
        2.38768         77.5536         6.63123 
        2.40339         76.7129         6.52532 
        2.41914         75.5867         6.42147 
        2.43483         75.1434         6.32026 
         2.4505         74.1128         6.22139 
        2.46622          73.279         6.12431 
        2.48195         72.4441         6.02929 
        2.49759         71.6666         5.93679 
        2.51328         70.9207           5.846 
        2.52906         70.1144         5.75653 
        2.54479         69.4611         5.66926 
        2.56049         68.4164         5.58398 
        2.57618         67.8047         5.50053 
        2.59189         66.7864         5.41865 
        2.60758         66.0516         5.33858 
        2.62325          65.412         5.26022 
        2.63898         64.6809         5.18316 
        2.65468         63.9974          5.1078 
        2.67044         63.1532         5.03362 
        2.68618         62.6842         4.96109 
        2.70184         62.3259         4.89028 
        2.71755         61.5166         4.82067 
        2.73329         60.6196         4.75231 
        2.74897         60.1361          4.6855 
        2.76462         59.3417         4.62013 
        2.78034         58.5324         4.55573 
        2.79607         57.9588         4.49249 
        2.81179         57.4543         4.43052 
        2.82749         56.8126         4.36979 
        2.84321         56.2849         4.31014 
        2.85893         55.5531         4.25161 
        2.87462         55.0163         4.19428 
        2.89033         54.3888         4.13794 
        2.90605         53.6679          4.0826 
        2.92176         53.3405         4.02829 
        2.93747         52.8177           3.975 
        2.95318         52.0786         3.92267 
        2.96891         51.3541         3.87125 
        2.98456         51.0314         3.82098 
        3.00023         50.2163         3.77153 
        3.01596         49.8685          3.7228 
        3.03164         49.3103         3.67507 
        3.04738         48.8208         3.62804 
         3.0631         48.3657         3.58185 
        3.07883         47.8381         3.53646 
        3.09456           47.48         3.49187 
        3.11026         46.8222         3.44811 
        3.12596         46.4328          3.4051 
        3.14163         45.8345         3.36293 
        3.15734         45.5003         3.32138 
        3.17308         45.0756         3.28043 
        3.18879         44.6456         3.24028 
        3.20447          43.849         3.20086 
         3.2202         43.7427         3.16197 
         3.2359         43.2158          3.1238 
        3.25157         42.8979         3.08635 
        3.26729         42.3503          3.0494 
        3.28304         41.8109         3.01298 
        3.29877         41.4472         2.97721 
        3.31446         41.0038         2.94209 
        3.33014         40.6675         2.90757 
        3.34585         40.4508         2.87355 
        3.36158         39.9976         2.84003 
        3.37727         39.4504         2.80714 
        3.39294         39.1138         2.77481 
        3.40867         38.6359         2.74287 
        3.42439         38.3324         2.71145 
        3.44008         37.9394         2.68058 
        3.45578         37.5253         2.65017 
        3.47153         37.2321         2.62017 
        3.48724         36.8919         2.59068 
        3.50292         36.5657         2.56171 
        3.51859         35.9945          2.5332 
        3.53431         35.7458         2.50504 
        3.55007         35.4296         2.47723 
        3.56577          35.149         2.44996 
        3.58146         34.7523         2.42311 
        3.59719         34.4186          2.3966 
        3.61292         34.1672         2.37049 
        3.62859         33.8095         2.34488 
        3.64429         33.4849         2.31959 
        3.66003         33.1399          2.2946 
        3.67578         32.8228         2.26998 
        3.69146           32.63         2.24582 
        3.70712         32.2185         2.22205 
        3.72284         31.9829         2.19854 
        3.73853         31.7256         2.17541 
        3.75422         31.4277          2.1526 
        3.76993          31.114         2.13011 
        3.78564         30.8537         2.10794 
        3.80137         30.4816         2.08605 
        3.81707         30.2042         2.06452 
        3.83279         29.9844         2.04327 
        3.84853         29.7922         2.02229 
        3.86424         29.4218         2.00165 
        3.87992         29.2392         1.98132 
        3.89561         28.9349         1.96127 
        3.91134         28.6522         1.94146 
        3.92704         28.4314         1.92195 
        3.94273         28.1757         1.90272 
        3.95845         27.7666         1.88373 
        3.97418         27.6704         1.86498 
        3.98988         27.4079         1.84652 
        4.00554         27.1257         1.82836 
        4.02125          26.993         1.81039 
        4.03698         26.5762         1.79263 
        4.05268         26.5229         1.77515 
        4.06839         26.2215          1.7579 
         4.0841         25.9871         1.74087 
        4.09983         25.7392         1.72405 
        4.11555         25.5683         1.70746 
        4.13124         25.2761         1.69113 
        4.14693          25.127           1.675 
        4.16266         24.8413         1.65904 
        4.17839         24.5655          1.6433 
        4.19408         24.4318          1.6278 
        4.20977         24.2165          1.6125 
        4.22551          24.036         1.59735 
        4.24123         23.7697         1.58241 
        4.25691         23.6495         1.56771 
        4.27259         23.3997         1.55319 
        4.28831         23.1862         1.53882 
        4.30404         22.9539         1.52462 
        4.31974         22.8445         1.51063 
        4.33543         22.5644         1.49682 
        4.35116         22.4136         1.48315 
        4.36688         22.2223         1.46966 
        4.38255         22.0577         1.45639 
        4.39825         21.8384         1.44325 
        4.41398         21.6638         1.43025 
         4.4297         21.5183         1.41742 
        4.44541         21.3312         1.40475 
        4.46111         21.1618         1.39225 
        4.47683         20.9311         1.37988 
        4.49251         20.8167          1.3677 
        4.50819         20.6025         1.35566 
         4.5239          20.446         1.34375 
        4.53962         20.3184         1.33197 
        4.55535         20.1443         1.32033 
        4.57106         19.9854         1.30884 
        4.58678         19.8068         1.29748 
         4.6025         19.6593         1.28626 
        4.61821         19.4956         1.27517 
        4.63391         19.3217         1.26423 
         4.6496         19.1633         1.25342 
        4.66532         19.0128         1.24272 
        4.68103          18.847         1.23215 
        4.69673         18.6947         1.22171 
        4.71241         18.5351          1.2114 
        4.72811          18.402          1.2012 
        4.74384         18.2414         1.19109 
        4.75955         18.1281         1.18112 
        4.77525          17.981         1.17127 
        4.79096          17.838         1.16153 
        4.80669         17.7007         1.15188 
         4.8224         17.5318         1.14236 
        4.83809         17.4272         1.13295 
        4.85379         17.2879         1.12365 
         4.8695         17.1602         1.11444 
        4.88521         17.0234         1.10534 
        4.90093         16.8804         1.09634 
        4.91663         16.7379         1.08744 
        4.93234         16.5981         1.07864 
        4.94807         16.4542         1.06993 
        4.96377          16.389         1.06133 
        4.97943         16.2476         1.05284 
        4.99514         16.1198         1.04442 
        5.01086         15.9779         1.03609 
        5.02654         15.8733         1.02788 
        5.04227         15.7203         1.01972 
          5.058         15.6383         1.01165 
        5.07371         15.5187         1.00369 
        5.08942         15.4284        0.995804 
        5.10513         15.2701        0.988007 
        5.12084         15.1647        0.980288 
        5.13656         15.0353        0.972654 
        5.15225         14.9405        0.965114 
        5.16796         14.7909        0.957642 
        5.18369         14.7059        0.950241 
         5.1994         14.5654        0.942933 
        5.21509         14.4543        0.935708 
        5.23079         14.3742         0.92855 
        5.24649          14.246        0.921472 
        5.26217         14.1867        0.914474 
        5.27788         14.0426        0.907537 
        5.29359         13.9251        0.900672 
        5.30933         13.8423        0.893867 
        5.32504         13.7495        0.887145 
        5.34073         13.6447        0.880498 
        5.35646         13.5532        0.873907 
        5.37218         13.4232        0.867381 
        5.38789         13.3287        0.860933 
        5.40357         13.2367        0.854557 
        5.41929         13.1402        0.848232 
        5.43502         13.0438        0.841971 
         5.4507          12.944        0.835787 
        5.46639          12.866        0.829664 
        5.48212         12.7741        0.823589 
        5.49786          12.687        0.817567 
        5.51353         12.5644        0.811635 
        5.52921         12.5061        0.805756 
        5.54495          12.412        0.799918 
        5.56066         12.2968        0.794144 
        5.57637         12.2077        0.788427 
        5.59207         12.1257        0.782772 
        5.60778         12.0524        0.777171 
        5.62346         11.9645        0.771631 
        5.63916         11.8931        0.766141 
        5.65487         11.7994        0.760701 
         5.6706         11.7268        0.755308 
        5.68633         11.6308        0.749964 
        5.70203         11.5435        0.744684 
        5.71773         11.4565        0.739455 
        5.73344         11.3899        0.734274 
        5.74916         11.3282        0.729137 
        5.76486         11.2291        0.724056 
        5.78054         11.1607        0.719032 
        5.79626         11.0623        0.714041 
          5.812          10.996        0.709093 
         5.8277          10.935        0.704206 
        5.84339         10.8344        0.699365 
        5.85911         10.7689         0.69456 
        5.87484         10.7054        0.689801 
        5.89053         10.6214        0.685096 
        5.90623          10.555        0.680433 
        5.92195         10.4803        0.675805 
        5.93767         10.3994        0.671223 
        5.95336         10.3281         0.66669 
        5.96905         10.2729        0.662201 
        5.98476         10.2094        0.657747 
        6.00048         10.1244        0.653333 
        6.01617         10.0519        0.648965 
        6.03185         9.95985        0.644642 
        6.04756         9.90656        0.640348 
        6.06331         9.83878        0.636085 
        6.07903         9.78222        0.631868 
        6.09473           9.711        0.627694 
        6.11044         9.66137        0.623554 
        6.12616         9.59375        0.619452 
        6.14186         9.53004        0.615391 
        6.15755         9.48089        0.611366 
        6.17326         9.40423        0.607375 
        6.18898         9.33063        0.603417 
        6.20467         9.26639        0.599501 
        6.22036         9.21409         0.59562 
         6.2361         9.14787        0.591763 
         6.2518         9.07938        0.587947 
        6.26748         9.03222        0.584173 
        6.28319         8.95334        0.580421 
        6.29893         8.90274        0.576699 
        6.31463         8.85248        0.573016 
        6.33033         8.79637        0.569366 
        6.34604         8.72283        0.565746 
        6.36177         8.68548        0.562153 
        6.37747         8.63332        0.558598 
