# k  (h/Mpc)    Pcb(k)  (Mpc/h)^3    Pcb_linear(k) (Mpc/h)^3   ShotnoiseSubtracted = true
      0.0200456         10158.8         10349.1 
      0.0350414         7312.69         7523.44 
      0.0492313         5425.33         5466.39 
      0.0637834         4631.54         4544.16 
      0.0800726            3666         3606.59 
       0.096163         2565.73         2616.89 
       0.111083         2039.74          2087.3 
       0.126058         1877.51         1849.77 
       0.142273         1620.98         1567.17 
       0.158546         1349.21         1237.73 
        0.17375         1084.37         1042.79 
       0.188953         1043.25         944.221 
       0.204907         978.941         835.443 
       0.220756         829.879         706.835 
        0.23588         729.578         614.886 
         0.2514         638.319         558.617 
       0.267535         618.824         505.453 
       0.283568          560.87         445.741 
       0.299022         521.668         397.133 
       0.314451         487.812         362.952 
       0.330372         450.262         332.968 
       0.346141         407.563         302.219 
       0.361624         391.488         274.676 
       0.377134         364.793         252.745 
       0.392932         343.613          233.86 
       0.408854         329.513         215.574 
       0.424564         314.048         198.697 
       0.440253         301.782         184.216 
       0.455999         283.915         171.623 
       0.471626         264.079         160.051 
        0.48727         256.482         149.225 
       0.502856         247.561           139.5 
       0.518488         244.101         130.823 
       0.534347         230.342         122.756 
       0.550082         215.753         115.318 
       0.565732         211.595         108.514 
       0.581496         201.188         102.281 
       0.597222         195.927         96.5657 
       0.612804         188.471           91.31 
       0.628434         182.565         86.4112 
       0.644267         176.489         81.8313 
       0.660051         174.313         77.6102 
       0.675724         170.083         73.7125 
       0.691403         165.083         70.0792 
       0.707174         158.067         66.6704 
       0.722871          156.69         63.5018 
        0.73838         153.255         60.5731 
       0.754018         148.125         57.8069 
       0.769845         144.324         55.1835 
        0.78569          141.83         52.7206 
       0.801365         137.836         50.4326 
       0.817031         133.134         48.2825 
       0.832809         131.288         46.2446 
       0.848511         127.854         44.3341 
       0.864097         125.239         42.5452 
       0.879701         122.846         40.8537 
       0.895507         119.854         39.2347 
       0.911279         117.849         37.7072 
        0.92691         116.172         36.2741 
       0.942635         113.265         34.9078 
       0.958396         112.934         33.6094 
       0.974128         109.763         32.3796 
       0.989692         107.068         31.2238 
        1.00528         104.951         30.1229 
        1.02113         104.143         29.0581 
        1.03692         100.262         28.0489 
        1.05264         100.054         27.0924 
        1.06832         97.5327         26.1823 
        1.08405         96.2588         25.3117 
        1.09979         95.7255         24.4803 
        1.11537         92.4704         23.6946 
        1.13105         92.4631         22.9389 
        1.14679         91.1826         22.2134 
        1.16256         89.8656         21.5179 
        1.17828         87.4863         20.8546 
        1.19395         86.5919         20.2216 
         1.2097         84.4626         19.6118 
        1.22537         84.6761         19.0301 
          1.241         82.6226         18.4739 
        1.25666         80.9767         17.9386 
        1.27241         80.0424          17.422 
        1.28819         78.7403          16.925 
        1.30392         77.7848         16.4489 
        1.31957         76.7285         15.9933 
        1.33529         75.3974         15.5534 
        1.35108         74.8412         15.1283 
        1.36674         73.9164         14.7221 
         1.3824          72.505         14.3313 
        1.39811         71.8011         13.9535 
        1.41389         70.7148         13.5878 
        1.42964         69.9557         13.2359 
        1.44531         68.5454         12.8982 
        1.46101         67.6244         12.5716 
        1.47667          67.527         12.2574 
        1.49229         66.2444         11.9547 
        1.50793         65.7352         11.6619 
        1.52367         64.6237         11.3771 
        1.53953         63.8197         11.0999 
        1.55526         63.1679         10.8342 
        1.57092         62.9309         10.5783 
        1.58662         61.6705         10.3301 
        1.60235         61.1589         10.0894 
        1.61809         60.3277         9.85624 
        1.63369         59.3466         9.63254 
        1.64941         58.7964          9.4142 
        1.66519         57.7763         9.20186 
        1.68085         57.3482         8.99759 
        1.69652         56.4476         8.79947 
        1.71228         56.0858         8.60621 
        1.72806         55.5765         8.41861 
        1.74368          54.765          8.2385 
        1.75933         54.2165          8.0633 
        1.77505         53.6193         7.89239 
        1.79081         52.9686         7.72615 
         1.8065         52.5059         7.56541 
        1.82218         51.7633         7.40939 
        1.83797          51.161         7.25671 
        1.85367         50.5463         7.10919 
        1.86928         50.0375         6.96666 
        1.88497         49.5836         6.82727 
        1.90073         49.0006         6.69118 
        1.91647         48.5459         6.55893 
        1.93218         47.9631         6.43054 
        1.94787         47.5072         6.30578 
        1.96363         46.8892         6.18384 
        1.97935         46.4172         6.06538 
        1.99499         45.8265          5.9507 
        2.01064         45.6069         5.83882 
         2.0264         44.6313         5.72912 
        2.04216         44.3627          5.6223 
        2.05781          43.773         5.51888 
        2.07353         43.3574         5.41769 
        2.08928         42.9665         5.31882 
        2.10499         42.4988         5.22269 
        2.12065         42.0131         5.12923 
        2.13633         41.8624         5.03797 
        2.15211           41.32         4.94835 
        2.16785         40.5368         4.86116 
        2.18349         40.3389         4.77662 
        2.19916         40.0087         4.69392 
        2.21489         39.4968          4.6129 
        2.23063         38.9885         4.53374 
         2.2463         38.5468          4.4568 
        2.26194         38.0998         4.38184 
        2.27765          37.721         4.30822 
        2.29341         37.3319          4.2361 
        2.30914         36.9561         4.16578 
        2.32486         36.4874          4.0971 
        2.34061         36.2229         4.02985 
        2.35635         35.8772         3.96417 
        2.37203         35.5153         3.90019 
        2.38768         35.1051         3.83775 
        2.40339         34.9316         3.77646 
        2.41914         34.5888         3.71636 
        2.43483         33.9764         3.65778 
         2.4505         33.7699         3.60056 
        2.46622         33.4821         3.54437 
        2.48195         33.2029         3.48938 
        2.49759         32.7648         3.43585 
        2.51328         32.3451          3.3833 
        2.52906         32.2037         3.33153 
        2.54479         31.7036         3.28102 
        2.56049         31.4512         3.23167 
        2.57618         31.1121         3.18337 
        2.59189          30.935         3.13599 
        2.60758         30.6651         3.08964 
        2.62325          30.205         3.04429 
        2.63898         30.0421         2.99969 
        2.65468         29.6335         2.95608 
        2.67044         29.4143         2.91315 
        2.68618         29.1012         2.87118 
        2.70184         28.7708         2.83019 
        2.71755         28.6529         2.78991 
        2.73329         28.3049         2.75035 
        2.74897         27.9769         2.71168 
        2.76462         27.6818         2.67385 
        2.78034         27.5728         2.63658 
        2.79607         27.2492         2.59998 
        2.81179         27.0144         2.56412 
        2.82749         26.7701         2.52897 
        2.84321         26.3348         2.49444 
        2.85893         26.1445         2.46057 
        2.87462         25.9182         2.42739 
        2.89033         25.6909         2.39479 
        2.90605         25.5113         2.36276 
        2.92176         25.3551         2.33133 
        2.93747         25.0306         2.30049 
        2.95318         24.6686          2.2702 
        2.96891         24.5632         2.24044 
        2.98456         24.2291         2.21135 
        3.00023         24.0322         2.18273 
        3.01596         23.7815         2.15453 
        3.03164         23.5588         2.12691 
        3.04738         23.4125         2.09969 
         3.0631         23.1795         2.07296 
        3.07883           22.99         2.04669 
        3.09456         22.6993         2.02088 
        3.11026          22.507         1.99555 
        3.12596           22.33         1.97067 
        3.14163         22.1673         1.94626 
        3.15734         21.9624         1.92221 
        3.17308         21.7693         1.89851 
        3.18879         21.5458         1.87527 
        3.20447          21.347         1.85246 
         3.2202         21.1561         1.82996 
         3.2359         20.8849         1.80786 
        3.25157         20.8913         1.78619 
        3.26729         20.6324         1.76481 
        3.28304         20.4384         1.74373 
        3.29877         20.1188         1.72303 
        3.31446          20.035          1.7027 
        3.33014         19.8272         1.68273 
        3.34585         19.6375         1.66304 
        3.36158         19.4971         1.64364 
        3.37727         19.2803          1.6246 
        3.39294         19.1245         1.60589 
        3.40867         18.9556         1.58741 
        3.42439         18.8041         1.56922 
        3.44008         18.6126         1.55136 
        3.45578         18.4268         1.53376 
        3.47153         18.2787         1.51639 
        3.48724         18.1032         1.49933 
        3.50292          17.993         1.48256 
        3.51859         17.7964         1.46606 
        3.53431         17.6255         1.44976 
        3.55007         17.4884         1.43367 
        3.56577         17.3037         1.41789 
        3.58146         17.1965         1.40235 
        3.59719          17.032         1.38701 
        3.61292          16.871          1.3719 
        3.62859         16.7407         1.35707 
        3.64429         16.5816         1.34244 
        3.66003         16.4433         1.32797 
        3.67578         16.2967         1.31373 
        3.69146         16.1966         1.29974 
        3.70712         15.9912         1.28599 
        3.72284         15.9621         1.27238 
        3.73853         15.7758         1.25899 
        3.75422         15.5551          1.2458 
        3.76993         15.4707         1.23278 
        3.78564          15.325         1.21995 
        3.80137         15.1854         1.20728 
        3.81707         15.0676         1.19482 
        3.83279         14.9255         1.18252 
        3.84853         14.7989         1.17038 
        3.86424         14.7015         1.15843 
        3.87992         14.5483         1.14667 
        3.89561         14.4192         1.13506 
        3.91134         14.3051          1.1236 
        3.92704          14.182         1.11231 
        3.94273          14.082         1.10118 
        3.95845         13.9258         1.09019 
        3.97418         13.8645         1.07934 
        3.98988         13.7104         1.06865 
        4.00554         13.6217         1.05814 
        4.02125         13.4769         1.04774 
        4.03698         13.4082         1.03747 
        4.05268         13.2708         1.02735 
        4.06839         13.1343         1.01736 
         4.0841         13.0399         1.00751 
        4.09983         12.8994        0.997775 
        4.11555         12.8151        0.988172 
        4.13124         12.7216        0.978721 
        4.14693         12.6319        0.969386 
        4.16266         12.5122        0.960152 
        4.17839         12.4075        0.951043 
        4.19408         12.3056        0.942073 
        4.20977         12.2079        0.933214 
        4.22551         12.0961        0.924448 
        4.24123         12.0137        0.915804 
        4.25691         11.8937        0.907294 
        4.27259          11.825        0.898889 
        4.28831         11.6977        0.890574 
        4.30404         11.6119        0.882356 
        4.31974         11.5133        0.874259 
        4.33543         11.4247        0.866269 
        4.35116         11.3369        0.858359 
        4.36688         11.2285        0.850551 
        4.38255         11.1534        0.842869 
        4.39825         11.0872        0.835266 
        4.41398           10.99         0.82774 
         4.4297         10.8814        0.820316 
        4.44541          10.773        0.812984 
        4.46111         10.7206        0.805747 
        4.47683         10.6339        0.798593 
        4.49251         10.5526         0.79154 
        4.50819         10.4691        0.784574 
         4.5239         10.3837        0.777683 
        4.53962         10.3253        0.770865 
        4.55535         10.2208        0.764125 
        4.57106         10.1286        0.757476 
        4.58678         10.0407        0.750905 
         4.6025         9.99225        0.744409 
        4.61821         9.88828        0.737992 
        4.63391         9.79843        0.731659 
         4.6496         9.76333        0.725402 
        4.66532         9.66281        0.719209 
        4.68103         9.59742        0.713091 
        4.69673         9.51198         0.70705 
        4.71241         9.43407        0.701085 
        4.72811         9.34592        0.695178 
        4.74384         9.31969        0.689332 
        4.75955         9.23934        0.683563 
        4.77525         9.15228        0.677862 
        4.79096         9.11579         0.67222 
        4.80669         9.02555        0.666639 
         4.8224         8.96981        0.661127 
        4.83809         8.90284        0.655684 
        4.85379         8.81996        0.650299 
         4.8695         8.76501        0.644969 
        4.88521         8.70008        0.639702 
        4.90093         8.61587        0.634493 
        4.91663         8.56495        0.629346 
        4.93234         8.52452        0.624251 
        4.94807         8.41607        0.619209 
        4.96377         8.36712        0.614232 
        4.97943         8.33458         0.60932 
        4.99514         8.27053        0.604449 
        5.01086          8.1835        0.599628 
        5.02654         8.13192        0.594871 
        5.04227         8.09746        0.590152 
          5.058         8.00756        0.585482 
        5.07371          7.9537        0.580872 
        5.08942         7.91135        0.576311 
        5.10513         7.84374        0.571798 
        5.12084         7.77905        0.567331 
        5.13656         7.74319        0.562913 
        5.15225         7.67262        0.558549 
        5.16796         7.62251        0.554224 
        5.18369         7.55705        0.549942 
         5.1994         7.47133        0.545712 
        5.21509         7.45179        0.541531 
        5.23079         7.39664        0.537388 
        5.24649         7.33486        0.533292 
        5.26217         7.28105        0.529241 
        5.27788         7.22751        0.525227 
        5.29359          7.1905        0.521254 
        5.30933         7.13582        0.517316 
        5.32504         7.08475        0.513425 
        5.34073         7.03684        0.509579 
        5.35646         6.98116        0.505764 
        5.37218         6.95431        0.501987 
        5.38789         6.88304        0.498255 
        5.40357         6.84408        0.494566 
        5.41929         6.78374        0.490905 
        5.43502         6.74329        0.487281 
         5.4507         6.70966        0.483702 
        5.46639         6.65454        0.480159 
        5.48212         6.61279        0.476643 
        5.49786         6.57232        0.473158 
        5.51353         6.50254        0.469725 
        5.52921         6.47696        0.466322 
        5.54495         6.42455        0.462943 
        5.56066         6.38283        0.459602 
        5.57637         6.31759        0.456294 
        5.59207         6.29998        0.453021 
        5.60778         6.23991        0.449779 
        5.62346         6.20212        0.446573 
        5.63916         6.17023        0.443396 
        5.65487         6.12864        0.440247 
         5.6706         6.08315        0.437126 
        5.68633         6.04249        0.434034 
        5.70203         6.00594        0.430978 
        5.71773         5.96363        0.427951 
        5.73344          5.9162        0.424953 
        5.74916         5.88248         0.42198 
        5.76486         5.84948         0.41904 
        5.78054         5.80949        0.416132 
        5.79626         5.77045        0.413244 
          5.812         5.72056         0.41038 
         5.8277         5.68677        0.407551 
        5.84339         5.65235         0.40475 
        5.85911          5.6108        0.401969 
        5.87484         5.58543        0.399215 
        5.89053         5.53828        0.396492 
        5.90623         5.50319        0.393793 
        5.92195          5.4632        0.391115 
        5.93767         5.42543        0.388463 
        5.95336         5.38805         0.38584 
        5.96905         5.37734        0.383242 
        5.98476         5.33751        0.380664 
        6.00048          5.2957        0.378109 
        6.01617          5.2679        0.375581 
        6.03185         5.23301        0.373079 
        6.04756         5.19937        0.370594 
        6.06331         5.15803        0.368127 
        6.07903         5.12904        0.365687 
        6.09473         5.10068        0.363271 
        6.11044         5.06055        0.360875 
        6.12616         5.03533        0.358501 
        6.14186         5.00133        0.356151 
        6.15755         4.96668        0.353821 
        6.17326         4.93785        0.351511 
        6.18898         4.90756        0.349221 
        6.20467         4.87687        0.346954 
        6.22036         4.83515        0.344709 
         6.2361         4.81462        0.342476 
         6.2518         4.78025        0.340268 
        6.26748         4.75439        0.338083 
        6.28319         4.72774        0.335912 
        6.29893         4.69915        0.333758 
        6.31463         4.66915        0.331627 
        6.33033         4.63634        0.329514 
        6.34604         4.61277        0.327419 
        6.36177         4.58106         0.32534 
        6.37747         4.54913        0.323283 
