# k  (h/Mpc)    Pcb(k)  (Mpc/h)^3    Pcb_linear(k) (Mpc/h)^3   ShotnoiseSubtracted = true
      0.0200456         5781.36         5859.64 
      0.0350414         4350.02         4259.76 
      0.0492313         3088.13         3095.06 
      0.0637834         2511.11         2572.89 
      0.0800726         1983.36         2042.04 
       0.096163         1523.27         1481.68 
       0.111083         1232.22         1181.83 
       0.126058         1040.14         1047.34 
       0.142273         886.906         887.326 
       0.158546         723.398         700.802 
        0.17375         625.083         590.425 
       0.188953           569.3         534.616 
       0.204907         484.549         473.026 
       0.220756         431.028         400.209 
        0.23588         379.689         348.147 
         0.2514         341.158         316.288 
       0.267535         324.269         286.186 
       0.283568         282.895         252.378 
       0.299022         264.857         224.856 
       0.314451         256.657         205.503 
       0.330372         223.785         188.526 
       0.346141         206.541         171.116 
       0.361624         193.879         155.521 
       0.377134         177.484         143.104 
       0.392932          172.75         132.411 
       0.408854         162.085         122.057 
       0.424564          154.59         112.502 
       0.440253         140.128         104.303 
       0.455999          130.67         97.1726 
       0.471626         126.375         90.6203 
        0.48727         122.163          84.491 
       0.502856         111.991         78.9847 
       0.518488         109.155         74.0717 
       0.534347         102.613         69.5044 
       0.550082         99.7439          65.293 
       0.565732         97.0993         61.4402 
       0.581496         89.5947         57.9115 
       0.597222         87.0442         54.6753 
       0.612804          84.078         51.6996 
       0.628434         82.0314         48.9259 
       0.644267         77.6421         46.3327 
       0.660051         74.9392         43.9428 
       0.675724         72.9544         41.7359 
       0.691403         71.5495         39.6787 
       0.707174           69.05         37.7486 
       0.722871         67.3081         35.9546 
        0.73838          64.771         34.2964 
       0.754018         61.2888         32.7302 
       0.769845         60.6815         31.2448 
        0.78569         58.5983         29.8503 
       0.801365         57.0106         28.5548 
       0.817031         54.9305         27.3374 
       0.832809         53.9935         26.1836 
       0.848511         52.5437         25.1019 
       0.864097         51.4954          24.089 
       0.879701         50.4204         23.1313 
       0.895507         48.5904         22.2146 
       0.911279         47.6309         21.3498 
        0.92691         46.4269         20.5383 
       0.942635         45.4904         19.7647 
       0.958396          45.091         19.0296 
       0.974128         43.8909         18.3333 
       0.989692         42.5289         17.6788 
        1.00528         41.9144         17.0555 
        1.02113         40.9374         16.4526 
        1.03692         40.5122         15.8812 
        1.05264         39.5431         15.3397 
        1.06832         38.7466         14.8244 
        1.08405         37.8375         14.3314 
        1.09979         37.6525         13.8607 
        1.11537         36.4927         13.4159 
        1.13105          35.699          12.988 
        1.14679         35.1283         12.5772 
        1.16256         34.6732         12.1834 
        1.17828         34.1961         11.8078 
        1.19395         33.3935         11.4494 
         1.2097         33.0969         11.1041 
        1.22537         32.3952         10.7748 
          1.241         31.8223         10.4599 
        1.25666         31.3533         10.1568 
        1.27241         31.0494         9.86433 
        1.28819         29.9729         9.58293 
        1.30392         30.1051         9.31336 
        1.31957         29.5769         9.05539 
        1.33529         28.9755         8.80629 
        1.35108         28.5935         8.56559 
        1.36674         28.2846         8.33564 
         1.3824         27.7656         8.11437 
        1.39811         27.1713         7.90042 
        1.41389         26.9095         7.69339 
        1.42964         26.7004         7.49414 
        1.44531         26.1543         7.30295 
        1.46101         25.9265         7.11804 
        1.47667          25.597          6.9401 
        1.49229         25.0716         6.76873 
        1.50793         24.8886         6.60297 
        1.52367         24.4805         6.44171 
        1.53953         24.3034         6.28477 
        1.55526         23.8649         6.13432 
        1.57092         23.7015         5.98943 
        1.58662          23.359         5.84889 
        1.60235         23.0112         5.71259 
        1.61809         22.7912         5.58058 
        1.63369         22.5694         5.45393 
        1.64941         22.2674          5.3303 
        1.66519         21.9042         5.21007 
        1.68085         21.5298         5.09442 
        1.69652         21.5029         4.98224 
        1.71228         21.2141         4.87282 
        1.72806         20.8769          4.7666 
        1.74368         20.6855         4.66462 
        1.75933         20.4784         4.56543 
        1.77505         20.2716         4.46866 
        1.79081         20.0516         4.37453 
         1.8065         19.8075         4.28352 
        1.82218         19.6224         4.19518 
        1.83797         19.4928         4.10874 
        1.85367         19.3303         4.02521 
        1.86928         19.1404         3.94451 
        1.88497         18.8656         3.86558 
        1.90073         18.6473         3.78853 
        1.91647         18.3451         3.71365 
        1.93218         18.4335         3.64096 
        1.94787         18.0744         3.57032 
        1.96363         17.9743         3.50128 
        1.97935          17.682         3.43421 
        1.99499         17.5068         3.36928 
        2.01064         17.3515         3.30593 
         2.0264         17.1695         3.24382 
        2.04216         17.1038         3.18333 
        2.05781          16.884         3.12478 
        2.07353         16.7325         3.06749 
        2.08928         16.4996         3.01151 
        2.10499         16.3356         2.95708 
        2.12065         16.2164         2.90416 
        2.13633         16.0977         2.85249 
        2.15211         15.8793         2.80175 
        2.16785         15.8309         2.75238 
        2.18349         15.5894         2.70452 
        2.19916         15.4609         2.65769 
        2.21489         15.2784         2.61182 
        2.23063         15.2369           2.567 
         2.2463         15.0025         2.52343 
        2.26194         14.9042         2.48099 
        2.27765         14.6676          2.4393 
        2.29341          14.611         2.39847 
        2.30914         14.4416         2.35866 
        2.32486         14.3908         2.31977 
        2.34061         14.2375         2.28169 
        2.35635          14.093         2.24451 
        2.37203         13.9597         2.20828 
        2.38768          13.792         2.17293 
        2.40339         13.7677         2.13822 
        2.41914         13.5759         2.10419 
        2.43483         13.4382         2.07103 
         2.4505         13.3102         2.03863 
        2.46622         13.2712         2.00682 
        2.48195         13.1366         1.97568 
        2.49759         12.9429         1.94537 
        2.51328         12.9612         1.91562 
        2.52906         12.7685          1.8863 
        2.54479         12.6505         1.85771 
        2.56049         12.5068         1.82976 
        2.57618         12.4957         1.80242 
        2.59189         12.4097         1.77559 
        2.60758         12.2161         1.74935 
        2.62325         12.1374         1.72367 
        2.63898         12.0897         1.69842 
        2.65468         11.8885         1.67373 
        2.67044         11.8736         1.64942 
        2.68618          11.777         1.62565 
        2.70184         11.6446         1.60245 
        2.71755         11.5633         1.57964 
        2.73329          11.442         1.55724 
        2.74897         11.3704         1.53535 
        2.76462         11.2893         1.51393 
        2.78034         11.1632         1.49282 
        2.79607         11.1142          1.4721 
        2.81179         10.9909          1.4518 
        2.82749         10.9184          1.4319 
        2.84321         10.8367         1.41235 
        2.85893         10.7383         1.39317 
        2.87462         10.6835         1.37438 
        2.89033         10.5585         1.35592 
        2.90605         10.5082         1.33779 
        2.92176         10.3982         1.31999 
        2.93747         10.3166         1.30253 
        2.95318         10.2333         1.28538 
        2.96891         10.1832         1.26853 
        2.98456          10.063         1.25206 
        3.00023         10.0032         1.23586 
        3.01596         9.90027         1.21989 
        3.03164         9.88393         1.20425 
        3.04738         9.76332         1.18884 
         3.0631         9.64301          1.1737 
        3.07883         9.59844         1.15883 
        3.09456         9.54175         1.14422 
        3.11026         9.48613         1.12988 
        3.12596         9.38026         1.11579 
        3.14163         9.34871         1.10197 
        3.15734         9.23855         1.08835 
        3.17308         9.19189         1.07493 
        3.18879         9.11259         1.06178 
        3.20447         9.01996         1.04886 
         3.2202         8.96784         1.03612 
         3.2359         8.86854         1.02361 
        3.25157         8.86122         1.01134 
        3.26729         8.76383         0.99923 
        3.28304         8.67389        0.987297 
        3.29877         8.63787        0.975574 
        3.31446         8.57419        0.964067 
        3.33014          8.5034        0.952756 
        3.34585         8.46296        0.941609 
        3.36158         8.39293        0.930623 
        3.37727         8.34744        0.919848 
        3.39294         8.25896        0.909253 
        3.40867         8.21955        0.898786 
        3.42439         8.12809         0.88849 
        3.44008          8.0689        0.878375 
        3.45578         8.01712         0.86841 
        3.47153         7.94369        0.858578 
        3.48724         7.88686        0.848916 
        3.50292         7.80745        0.839424 
        3.51859         7.79308        0.830082 
        3.53431          7.7205        0.820853 
        3.55007         7.64898        0.811742 
        3.56577         7.59058        0.802805 
        3.58146         7.56744        0.794007 
        3.59719         7.49283         0.78532 
        3.61292         7.45314        0.776766 
        3.62859          7.4078        0.768371 
        3.64429         7.34042        0.760085 
        3.66003         7.28845        0.751895 
        3.67578         7.22351        0.743829 
        3.69146         7.20182        0.735911 
        3.70712          7.1369        0.728124 
        3.72284          7.0603         0.72042 
        3.73853         7.04297         0.71284 
        3.75422         6.96625        0.705367 
        3.76993         6.92853        0.697995 
        3.78564         6.87766        0.690731 
        3.80137         6.85178        0.683559 
        3.81707         6.76131        0.676503 
        3.83279         6.73052        0.669541 
        3.84853         6.67113        0.662666 
        3.86424         6.63696        0.655901 
        3.87992         6.58723         0.64924 
        3.89561         6.54644        0.642671 
        3.91134         6.47455         0.63618 
        3.92704         6.44722        0.629786 
        3.94273          6.4064        0.623486 
        3.95845         6.37327        0.617261 
        3.97418         6.31426        0.611119 
        3.98988         6.27772         0.60507 
        4.00554         6.22946        0.599118 
        4.02125         6.18026         0.59323 
        4.03698         6.14172        0.587411 
        4.05268         6.07861        0.581684 
        4.06839         6.03218        0.576029 
         4.0841         6.00565         0.57045 
        4.09983         5.95765        0.564938 
        4.11555         5.91059        0.559501 
        4.13124           5.865         0.55415 
        4.14693         5.83169        0.548865 
        4.16266         5.79975        0.543636 
        4.17839         5.76453        0.538479 
        4.19408          5.7119          0.5334 
        4.20977         5.68009        0.528384 
        4.22551         5.64457        0.523421 
        4.24123         5.58861        0.518527 
        4.25691         5.55377        0.513708 
        4.27259         5.50774        0.508949 
        4.28831         5.46826        0.504241 
        4.30404          5.4279        0.499588 
        4.31974         5.39515        0.495004 
        4.33543         5.35157         0.49048 
        4.35116         5.31915        0.486001 
        4.36688         5.28245         0.48158 
        4.38255         5.25583        0.477231 
        4.39825         5.21337        0.472926 
        4.41398         5.17543        0.468665 
         4.4297          5.1613        0.464461 
        4.44541         5.10418         0.46031 
        4.46111         5.07183        0.456212 
        4.47683         5.04677        0.452162 
        4.49251         5.01753        0.448169 
        4.50819         4.98228        0.444225 
         4.5239         4.94667        0.440322 
        4.53962         4.90601        0.436462 
        4.55535         4.88145        0.432646 
        4.57106         4.85206        0.428882 
        4.58678         4.80943        0.425161 
         4.6025          4.7872        0.421483 
        4.61821         4.74416         0.41785 
        4.63391         4.70765        0.414264 
         4.6496         4.68012        0.410721 
        4.66532         4.65115        0.407215 
        4.68103         4.61728        0.403751 
        4.69673         4.59779         0.40033 
        4.71241         4.57323        0.396953 
        4.72811         4.53301        0.393609 
        4.74384          4.5099        0.390299 
        4.75955         4.47091        0.387032 
        4.77525         4.43922        0.383804 
        4.79096         4.42367         0.38061 
        4.80669         4.39937         0.37745 
         4.8224         4.35496        0.374329 
        4.83809         4.33493        0.371247 
        4.85379         4.29403        0.368198 
         4.8695         4.27661         0.36518 
        4.88521         4.25095        0.362198 
        4.90093          4.2232        0.359249 
        4.91663         4.20766        0.356335 
        4.93234         4.16665         0.35345 
        4.94807          4.1443        0.350595 
        4.96377         4.12049        0.347777 
        4.97943         4.09224        0.344996 
        4.99514         4.07002        0.342238 
        5.01086          4.0456        0.339508 
        5.02654         4.01734        0.336815 
        5.04227         3.99312        0.334143 
          5.058         3.96407        0.331499 
        5.07371          3.9418        0.328889 
        5.08942         3.91295        0.326306 
        5.10513         3.88684        0.323751 
        5.12084         3.87047        0.321222 
        5.13656         3.84677         0.31872 
        5.15225         3.82609        0.316249 
        5.16796         3.80375        0.313801 
        5.18369         3.76836        0.311376 
         5.1994         3.75262        0.308981 
        5.21509         3.72198        0.306614 
        5.23079         3.70421        0.304268 
        5.24649         3.67821        0.301949 
        5.26217         3.65317        0.299655 
        5.27788         3.64073        0.297383 
        5.29359         3.61915        0.295133 
        5.30933         3.59859        0.292903 
        5.32504         3.57031          0.2907 
        5.34073         3.55303        0.288522 
        5.35646         3.52813        0.286362 
        5.37218         3.51485        0.284224 
        5.38789         3.49298        0.282111 
        5.40357          3.4685        0.280022 
        5.41929         3.44048        0.277949 
        5.43502         3.42509        0.275898 
         5.4507         3.40701        0.273871 
        5.46639         3.37653        0.271865 
        5.48212         3.36165        0.269874 
        5.49786         3.34373        0.267901 
        5.51353         3.32242        0.265957 
        5.52921         3.29837        0.264031 
        5.54495         3.28568        0.262118 
        5.56066         3.27257        0.260226 
        5.57637         3.24583        0.258353 
        5.59207         3.22894        0.256499 
        5.60778         3.21013        0.254664 
        5.62346         3.19493        0.252849 
        5.63916         3.16523         0.25105 
        5.65487          3.1533        0.249267 
         5.6706         3.12957          0.2475 
        5.68633         3.12317        0.245749 
        5.70203         3.10684        0.244019 
        5.71773         3.07245        0.242305 
        5.73344         3.06136        0.240607 
        5.74916         3.04719        0.238924 
        5.76486         3.02907        0.237259 
        5.78054         3.01283        0.235613 
        5.79626         2.99812        0.233978 
          5.812         2.97309        0.232356 
         5.8277         2.96154        0.230755 
        5.84339         2.94418        0.229168 
        5.85911         2.92706        0.227594 
        5.87484         2.90637        0.226035 
        5.89053         2.89179        0.224493 
        5.90623         2.87818        0.222965 
        5.92195         2.86594        0.221448 
        5.93767         2.84534        0.219947 
        5.95336         2.83024        0.218462 
        5.96905         2.81484        0.216991 
        5.98476         2.79549        0.215531 
        6.00048         2.78658        0.214085 
        6.01617         2.76797        0.212653 
        6.03185         2.75183        0.211237 
        6.04756         2.73339         0.20983 
        6.06331         2.72031        0.208433 
        6.07903         2.70992        0.207051 
        6.09473          2.6907        0.205683 
        6.11044         2.67682        0.204327 
        6.12616          2.6665        0.202983 
        6.14186          2.6488        0.201652 
        6.15755         2.63837        0.200333 
        6.17326         2.62328        0.199025 
        6.18898         2.60208        0.197728 
        6.20467         2.59517        0.196445 
        6.22036         2.58293        0.195173 
         6.2361         2.56573         0.19391 
         6.2518         2.55137        0.192659 
        6.26748         2.53942        0.191422 
        6.28319         2.52525        0.190193 
        6.29893         2.51003        0.188973 
        6.31463         2.50063        0.187766 
        6.33033         2.49296         0.18657 
        6.34604          2.4715        0.185384 
        6.36177         2.46433        0.184207 
        6.37747         2.44941        0.183042 
