# k  (h/Mpc)    Pcb(k)  (Mpc/h)^3    Pcb_linear(k) (Mpc/h)^3   ShotnoiseSubtracted = true
      0.0200456         10517.2         10671.4 
      0.0350414         7956.62         7757.77 
      0.0492313         5591.22         5636.65 
      0.0637834         4527.73          4685.7 
      0.0800726         3568.58         3718.92 
       0.096163          2788.9          2698.4 
       0.111083         2264.67         2152.31 
       0.126058         1891.46         1907.39 
       0.142273         1627.71         1615.98 
       0.158546         1335.52         1276.28 
        0.17375         1165.53         1075.27 
       0.188953         1076.25         973.631 
       0.204907         918.302         861.465 
       0.220756         822.183         728.851 
        0.23588         729.606         634.037 
         0.2514         653.318         576.017 
       0.267535          632.08         521.196 
       0.283568         551.611         459.625 
       0.299022         524.587         409.502 
       0.314451         526.015         374.257 
       0.330372         452.251         343.339 
       0.346141         419.162         311.632 
       0.361624         399.453         283.231 
       0.377134         371.605         260.617 
       0.392932          361.14         241.144 
       0.408854         342.876         222.288 
       0.424564         330.423         204.886 
       0.440253          298.36         189.953 
       0.455999         284.773         176.969 
       0.471626         283.701         165.036 
        0.48727         270.026         153.873 
       0.502856         247.011         143.845 
       0.518488         247.673         134.898 
       0.534347         230.036          126.58 
       0.550082         224.273          118.91 
       0.565732         222.322         111.893 
       0.581496         208.473         105.467 
       0.597222         203.471         99.5735 
       0.612804         197.483         94.1541 
       0.628434         190.874         89.1027 
       0.644267         182.014         84.3801 
       0.660051         178.078         80.0276 
       0.675724         176.197         76.0085 
       0.691403         171.537          72.262 
       0.707174         165.651          68.747 
       0.722871         163.041         65.4797 
        0.73838         161.137         62.4597 
       0.754018         151.663         59.6075 
       0.769845         151.512         56.9023 
        0.78569         147.502         54.3627 
       0.801365          143.14         52.0034 
       0.817031         139.336         49.7863 
       0.832809         137.002          47.685 
       0.848511         133.744          45.715 
       0.864097         131.328         43.8703 
       0.879701         129.675         42.1262 
       0.895507         125.852         40.4568 
       0.911279         122.876         38.8817 
        0.92691         120.399         37.4039 
       0.942635          118.11         35.9951 
       0.958396         116.744         34.6562 
       0.974128         114.219         33.3881 
       0.989692         111.555         32.1963 
        1.00528         110.142         31.0612 
        1.02113         107.249         29.9632 
        1.03692         106.837         28.9225 
        1.05264         105.461         27.9363 
        1.06832         102.231         26.9978 
        1.08405         101.294            26.1 
        1.09979         100.506         25.2428 
        1.11537         97.7897         24.4327 
        1.13105         96.7061         23.6534 
        1.14679         95.0596         22.9052 
        1.16256         93.1627         22.1881 
        1.17828         92.3553         21.5042 
        1.19395         89.8913         20.8515 
         1.2097         89.7402         20.2226 
        1.22537         87.6379         19.6228 
          1.241         87.3943         19.0493 
        1.25666         84.4065         18.4973 
        1.27241         83.7869         17.9647 
        1.28819         83.2657         17.4522 
        1.30392         81.6375         16.9613 
        1.31957         80.7968         16.4915 
        1.33529         79.6836         16.0378 
        1.35108         79.1839         15.5995 
        1.36674          77.769         15.1807 
         1.3824         77.1829         14.7777 
        1.39811          75.271         14.3881 
        1.41389         74.2753          14.011 
        1.42964         73.3604         13.6482 
        1.44531         72.7706            13.3 
        1.46101         72.0302         12.9632 
        1.47667         70.9671         12.6391 
        1.49229         70.1553         12.3271 
        1.50793         69.2387         12.0252 
        1.52367         68.7199         11.7315 
        1.53953         67.5976         11.4457 
        1.55526         66.4805         11.1717 
        1.57092         66.3732         10.9078 
        1.58662         65.3745         10.6519 
        1.60235         64.4789         10.4036 
        1.61809         63.4083         10.1632 
        1.63369          62.706         9.93257 
        1.64941         62.4997         9.70743 
        1.66519         60.9662         9.48847 
        1.68085         60.6258         9.27784 
        1.69652         59.4021         9.07355 
        1.71228         59.0793         8.87427 
        1.72806         58.5437         8.68083 
        1.74368         57.6728          8.4951 
        1.75933         57.2214         8.31445 
        1.77505         56.6358         8.13822 
        1.79081         55.7936         7.96679 
         1.8065         55.4645         7.80105 
        1.82218         53.9163         7.64017 
        1.83797         53.6278         7.48274 
        1.85367         53.2191         7.33062 
        1.86928           52.76         7.18365 
        1.88497         51.8598         7.03992 
        1.90073         51.1749         6.89959 
        1.91647          50.984         6.76322 
        1.93218         50.5798         6.63083 
        1.94787         49.7461         6.50219 
        1.96363         49.0058         6.37645 
        1.97935         48.5993          6.2543 
        1.99499         48.0495         6.13605 
        2.01064         47.4725         6.02069 
         2.0264          47.256         5.90757 
        2.04216         46.4661         5.79742 
        2.05781         45.9511         5.69077 
        2.07353          45.233         5.58644 
        2.08928         45.1058         5.48449 
        2.10499         44.6715         5.38536 
        2.12065         44.0978         5.28899 
        2.13633         43.8098         5.19489 
        2.15211         43.1249         5.10248 
        2.16785         42.4387         5.01257 
        2.18349          42.054          4.9254 
        2.19916         41.6639         4.84012 
        2.21489         41.4381         4.75658 
        2.23063         40.8034         4.67496 
         2.2463         40.5192         4.59562 
        2.26194         40.0357         4.51832 
        2.27765         39.5376         4.44241 
        2.29341         39.0275         4.36804 
        2.30914         38.6987         4.29553 
        2.32486          38.129         4.22471 
        2.34061         37.8951         4.15537 
        2.35635         37.4775         4.08765 
        2.37203         37.1454         4.02167 
        2.38768         36.8681         3.95729 
        2.40339         36.5386         3.89408 
        2.41914          36.145         3.83211 
        2.43483         35.6133         3.77171 
         2.4505         35.3999         3.71271 
        2.46622         34.9684         3.65477 
        2.48195          34.706         3.59807 
        2.49759         34.2152         3.54287 
        2.51328         33.8784         3.48869 
        2.52906         33.6263         3.43529 
        2.54479         33.2843         3.38322 
        2.56049         33.0323         3.33232 
        2.57618         32.6339         3.28252 
        2.59189         32.2582         3.23366 
        2.60758         31.9037         3.18588 
        2.62325         31.7643         3.13911 
        2.63898         31.4402         3.09313 
        2.65468         30.9887         3.04816 
        2.67044         30.8003         3.00389 
        2.68618         30.5344         2.96061 
        2.70184         30.1692         2.91835 
        2.71755         29.8931         2.87681 
        2.73329         29.5824         2.83601 
        2.74897         29.2608         2.79614 
        2.76462         29.0265         2.75713 
        2.78034         28.7327          2.7187 
        2.79607         28.4437         2.68096 
        2.81179         28.2237         2.64398 
        2.82749            27.9         2.60774 
        2.84321         27.6402         2.57214 
        2.85893          27.424         2.53721 
        2.87462         27.1882           2.503 
        2.89033         26.8826         2.46938 
        2.90605         26.6648         2.43635 
        2.92176         26.4321         2.40394 
        2.93747         26.1394         2.37214 
        2.95318         26.0127         2.34091 
        2.96891          25.677         2.31022 
        2.98456         25.4517         2.28023 
        3.00023         25.1251         2.25072 
        3.01596          24.848         2.22164 
        3.03164         24.6648         2.19315 
        3.04738         24.5257         2.16509 
         3.0631          24.275         2.13752 
        3.07883         23.9617         2.11044 
        3.09456         23.7489         2.08382 
        3.11026         23.4971         2.05771 
        3.12596         23.2535         2.03205 
        3.14163         23.0911         2.00688 
        3.15734         22.9312         1.98208 
        3.17308         22.6407         1.95764 
        3.18879         22.4689         1.93368 
        3.20447         22.2973         1.91016 
         3.2202         22.0414         1.88695 
         3.2359         21.8335         1.86417 
        3.25157         21.6363         1.84182 
        3.26729         21.5193         1.81977 
        3.28304         21.2791         1.79804 
        3.29877         21.0761         1.77669 
        3.31446          20.909         1.75574 
        3.33014         20.6642         1.73514 
        3.34585         20.5735         1.71484 
        3.36158         20.2814         1.69483 
        3.37727         20.1548         1.67521 
        3.39294         20.0219         1.65591 
        3.40867         19.8007         1.63685 
        3.42439         19.6073          1.6181 
        3.44008         19.4273         1.59968 
        3.45578         19.2623         1.58153 
        3.47153         19.0823         1.56362 
        3.48724          18.971         1.54603 
        3.50292         18.7464         1.52874 
        3.51859         18.6128         1.51173 
        3.53431         18.4559         1.49492 
        3.55007         18.2364         1.47833 
        3.56577         18.1387         1.46205 
        3.58146         17.9246         1.44603 
        3.59719         17.8088         1.43021 
        3.61292         17.6469         1.41463 
        3.62859         17.4352         1.39934 
        3.64429         17.2809         1.38425 
        3.66003         17.2128         1.36933 
        3.67578         17.0968         1.35464 
        3.69146         16.8857         1.34023 
        3.70712         16.7336         1.32604 
        3.72284         16.6075         1.31201 
        3.73853         16.5048         1.29821 
        3.75422         16.2776          1.2846 
        3.76993         16.1771         1.27117 
        3.78564         16.0259         1.25794 
        3.80137         15.8829         1.24488 
        3.81707         15.7504         1.23203 
        3.83279         15.6441         1.21935 
        3.84853         15.4715         1.20683 
        3.86424          15.329         1.19451 
        3.87992         15.2525         1.18238 
        3.89561         15.1096         1.17042 
        3.91134          15.008          1.1586 
        3.92704         14.8839         1.14695 
        3.94273         14.7396         1.13548 
        3.95845         14.5941         1.12414 
        3.97418         14.4628         1.11296 
        3.98988         14.3615         1.10194 
        4.00554          14.241          1.0911 
        4.02125         14.1111         1.08038 
        4.03698         14.0168         1.06978 
        4.05268         13.9097         1.05935 
        4.06839         13.7494         1.04905 
         4.0841         13.6705         1.03889 
        4.09983          13.488         1.02885 
        4.11555         13.4361         1.01895 
        4.13124         13.3284         1.00921 
        4.14693          13.201         0.99958 
        4.16266         13.1093        0.990058 
        4.17839           12.97        0.980665 
        4.19408         12.8911        0.971415 
        4.20977         12.7898        0.962281 
        4.22551         12.6626        0.953242 
        4.24123         12.5777        0.944329 
        4.25691         12.4611        0.935554 
        4.27259         12.3535        0.926887 
        4.28831         12.2999        0.918313 
        4.30404         12.1883        0.909839 
        4.31974         12.0912         0.90149 
        4.33543         11.9426        0.893251 
        4.35116         11.8849        0.885095 
        4.36688         11.7487        0.877043 
        4.38255         11.6689        0.869122 
        4.39825         11.5796        0.861282 
        4.41398         11.4945        0.853522 
         4.4297         11.3918        0.845867 
        4.44541           11.31        0.838306 
        4.46111         11.2148        0.830844 
        4.47683          11.113        0.823467 
        4.49251         11.0236        0.816194 
        4.50819         10.9376        0.809012 
         4.5239         10.8759        0.801905 
        4.53962         10.7737        0.794875 
        4.55535         10.6772        0.787926 
        4.57106         10.6478        0.781069 
        4.58678         10.5348        0.774293 
         4.6025         10.4622        0.767596 
        4.61821         10.3902        0.760978 
        4.63391         10.2915        0.754448 
         4.6496         10.2029        0.747996 
        4.66532         10.1375         0.74161 
        4.68103         10.0326        0.735302 
        4.69673         9.95665        0.729072 
        4.71241         9.88595        0.722921 
        4.72811         9.81783        0.716831 
        4.74384         9.75156        0.710803 
        4.75955         9.65969        0.704854 
        4.77525         9.58283        0.698976 
        4.79096         9.53809        0.693157 
        4.80669         9.43278        0.687403 
         4.8224         9.38202         0.68172 
        4.83809         9.29915        0.676107 
        4.85379         9.24259        0.670554 
         4.8695         9.16405        0.665058 
        4.88521         9.07325        0.659627 
        4.90093           9.041        0.654256 
        4.91663         8.94653        0.648949 
        4.93234         8.89428        0.643695 
        4.94807         8.81851        0.638496 
        4.96377         8.77464        0.633363 
        4.97943         8.70136        0.628299 
        4.99514         8.62511        0.623276 
        5.01086         8.58533        0.618305 
        5.02654         8.49399          0.6134 
        5.04227         8.43938        0.608534 
          5.058         8.38402        0.603718 
        5.07371         8.33408        0.598965 
        5.08942         8.25337        0.594261 
        5.10513          8.1815        0.589608 
        5.12084         8.13597        0.585002 
        5.13656         8.08812        0.580446 
        5.15225         8.01351        0.575946 
        5.16796         7.95527        0.571487 
        5.18369         7.90215        0.567071 
         5.1994          7.8536        0.562709 
        5.21509         7.79746        0.558398 
        5.23079         7.71639        0.554126 
        5.24649         7.68328        0.549902 
        5.26217         7.62691        0.545726 
        5.27788         7.56819        0.541586 
        5.29359           7.517        0.537489 
        5.30933          7.4384        0.533429 
        5.32504         7.41066        0.529417 
        5.34073         7.35233         0.52545 
        5.35646         7.30055        0.521517 
        5.37218         7.25299        0.517623 
        5.38789         7.19408        0.513774 
        5.40357         7.14236         0.50997 
        5.41929         7.10999        0.506195 
        5.43502         7.04965        0.502458 
         5.4507         6.99655        0.498768 
        5.46639         6.95572        0.495115 
        5.48212         6.89731        0.491489 
        5.49786         6.85641        0.487895 
        5.51353         6.82051        0.484355 
        5.52921         6.74456        0.480847 
        5.54495         6.70335        0.477363 
        5.56066         6.67015        0.473917 
        5.57637         6.62154        0.470506 
        5.59207         6.56325        0.467131 
        5.60778         6.52814        0.463788 
        5.62346         6.48101        0.460483 
        5.63916         6.44034        0.457206 
        5.65487         6.39091         0.45396 
         5.6706         6.35428        0.450741 
        5.68633         6.31002        0.447552 
        5.70203         6.27556        0.444401 
        5.71773          6.2233        0.441281 
        5.73344         6.18854        0.438189 
        5.74916         6.13699        0.435123 
        5.76486         6.10446        0.432091 
        5.78054         6.05155        0.429093 
        5.79626         6.01911        0.426115 
          5.812         5.97578        0.423162 
         5.8277         5.93189        0.420245 
        5.84339         5.89707        0.417356 
        5.85911         5.85322        0.414489 
        5.87484         5.81651        0.411649 
        5.89053         5.77578        0.408841 
        5.90623         5.74257        0.406058 
        5.92195         5.70295        0.403297 
        5.93767         5.67103        0.400562 
        5.95336         5.62699        0.397857 
        5.96905         5.59041        0.395179 
        5.98476         5.55869        0.392521 
        6.00048         5.51349        0.389886 
        6.01617         5.48161         0.38728 
        6.03185         5.45277          0.3847 
        6.04756         5.42299        0.382137 
        6.06331         5.37307        0.379593 
        6.07903         5.33016        0.377077 
        6.09473         5.30066        0.374586 
        6.11044         5.26197        0.372115 
        6.12616          5.2364        0.369667 
        6.14186         5.20067        0.367244 
        6.15755         5.16998        0.364842 
        6.17326         5.13831         0.36246 
        6.18898         5.10635        0.360098 
        6.20467         5.07346        0.357761 
        6.22036         5.04041        0.355445 
         6.2361         5.01294        0.353144 
         6.2518         4.97241        0.350866 
        6.26748         4.95178        0.348614 
        6.28319         4.91817        0.346375 
        6.29893         4.88838        0.344154 
        6.31463         4.85752        0.341956 
        6.33033          4.8201        0.339778 
        6.34604          4.7958        0.337617 
        6.36177         4.75992        0.335473 
        6.37747         4.73418        0.333352 
