# k  (h/Mpc)    Pcb(k)  (Mpc/h)^3    Pcb_linear(k) (Mpc/h)^3   ShotnoiseSubtracted = true
      0.0200456         15289.2         15610.7 
      0.0350414         10931.9         11348.5 
      0.0492313         8131.64         8245.58 
      0.0637834         6990.96         6854.48 
      0.0800726         5525.38         5440.23 
       0.096163         3845.55         3947.36 
       0.111083         3070.36         3148.52 
       0.126058         2831.59         2790.23 
       0.142273         2449.26         2363.94 
       0.158546         2089.17         1867.01 
        0.17375         1670.97         1572.96 
       0.188953         1624.06         1424.28 
       0.204907         1526.66          1260.2 
       0.220756         1309.85          1066.2 
        0.23588         1160.04         927.503 
         0.2514         1009.49         842.627 
       0.267535         997.293         762.433 
       0.283568         904.323         672.363 
       0.299022         849.258         599.041 
       0.314451         806.005         547.483 
       0.330372         742.194         502.254 
       0.346141         686.467         455.872 
       0.361624         660.162         414.325 
       0.377134         612.835         381.245 
       0.392932         588.549         352.758 
       0.408854         568.578         325.175 
       0.424564         533.882         299.718 
       0.440253         522.939         277.874 
       0.455999         494.146         258.879 
       0.471626         468.319         241.423 
        0.48727         452.121         225.094 
       0.502856          439.09         210.424 
       0.518488         434.736         197.335 
       0.534347         406.251         185.167 
       0.550082          388.25         173.948 
       0.565732         387.044         163.684 
       0.581496         364.261         154.283 
       0.597222         358.656         145.661 
       0.612804         348.162         137.733 
       0.628434         335.121         130.344 
       0.644267         325.798         123.436 
       0.660051         318.315         117.068 
       0.675724         313.842         111.189 
       0.691403         304.298         105.709 
       0.707174         293.459         100.567 
       0.722871          289.83         95.7871 
        0.73838         285.467         91.3693 
       0.754018          277.64         87.1968 
       0.769845         268.592         83.2396 
        0.78569          268.33         79.5246 
       0.801365         258.976         76.0733 
       0.817031         251.063           72.83 
       0.832809         249.092         69.7561 
       0.848511          242.25         66.8742 
       0.864097         238.905         64.1758 
       0.879701         235.093         61.6244 
       0.895507         229.529         59.1822 
       0.911279         222.212         56.8781 
        0.92691          222.23         54.7163 
       0.942635         216.578         52.6555 
       0.958396         214.398         50.6969 
       0.974128         209.983         48.8419 
       0.989692         205.355         47.0984 
        1.00528         202.847         45.4379 
        1.02113         201.043         43.8316 
        1.03692         195.858         42.3093 
        1.05264         192.042         40.8666 
        1.06832         188.727         39.4937 
        1.08405         185.547         38.1805 
        1.09979         183.741         36.9264 
        1.11537         179.482         35.7413 
        1.13105         176.351         34.6014 
        1.14679         176.479          33.507 
        1.16256         173.145         32.4579 
        1.17828         169.646         31.4574 
        1.19395         167.111         30.5026 
         1.2097         166.435         29.5827 
        1.22537         162.729         28.7053 
          1.241         161.058         27.8663 
        1.25666         158.075         27.0588 
        1.27241         155.405         26.2797 
        1.28819         153.748           25.53 
        1.30392         151.114         24.8118 
        1.31957         150.474         24.1246 
        1.33529         146.317         23.4609 
        1.35108         145.343         22.8197 
        1.36674         143.996         22.2071 
         1.3824         141.344         21.6176 
        1.39811         140.937         21.0476 
        1.41389          138.02          20.496 
        1.42964         135.266         19.9652 
        1.44531         133.214         19.4559 
        1.46101         131.798         18.9632 
        1.47667         129.842         18.4892 
        1.49229         128.209         18.0327 
        1.50793         127.204         17.5911 
        1.52367         125.729         17.1614 
        1.53953         123.052         16.7433 
        1.55526         121.849         16.3425 
        1.57092         120.374         15.9565 
        1.58662         118.476         15.5821 
        1.60235         117.622          15.219 
        1.61809         115.503         14.8673 
        1.63369         114.338         14.5299 
        1.64941         113.242         14.2005 
        1.66519          111.17         13.8802 
        1.68085         110.481         13.5721 
        1.69652         107.782         13.2733 
        1.71228          107.78         12.9817 
        1.72806         106.356         12.6988 
        1.74368         105.095         12.4271 
        1.75933         103.565         12.1628 
        1.77505         102.348          11.905 
        1.79081          101.09         11.6542 
         1.8065         99.7926         11.4118 
        1.82218          98.034         11.1764 
        1.83797         96.6816         10.9461 
        1.85367         95.8692         10.7236 
        1.86928         94.9556         10.5086 
        1.88497         93.1251         10.2983 
        1.90073         92.7452         10.0931 
        1.91647         91.3442         9.89358 
        1.93218         90.2395         9.69992 
        1.94787         89.4012         9.51173 
        1.96363         87.9983          9.3278 
        1.97935         86.8472         9.14911 
        1.99499         86.1302         8.97613 
        2.01064         85.1554         8.80737 
         2.0264         83.6432         8.64189 
        2.04216         82.9031         8.48076 
        2.05781         81.8421         8.32476 
        2.07353         80.4222         8.17212 
        2.08928         79.4959         8.02299 
        2.10499         78.5289         7.87799 
        2.12065         78.2215           7.737 
        2.13633         77.2016         7.59935 
        2.15211         76.2435         7.46417 
        2.16785         75.1128         7.33265 
        2.18349         74.1931         7.20513 
        2.19916         73.4784         7.08038 
        2.21489         72.5466         6.95817 
        2.23063         71.7419         6.83877 
         2.2463         70.9007         6.72271 
        2.26194         70.6065         6.60963 
        2.27765         69.4721         6.49858 
        2.29341         68.5439         6.38979 
        2.30914         67.6095         6.28372 
        2.32486         66.8601         6.18012 
        2.34061         66.1561         6.07868 
        2.35635         65.4278         5.97962 
        2.37203         64.4256          5.8831 
        2.38768         63.7723         5.78892 
        2.40339         63.0896         5.69646 
        2.41914         62.4731         5.60581 
        2.43483         62.1559         5.51745 
         2.4505          61.236         5.43114 
        2.46622         60.5336         5.34639 
        2.48195         59.7813         5.26344 
        2.49759         58.9442         5.18269 
        2.51328         58.4047         5.10343 
        2.52906         57.9468         5.02532 
        2.54479         57.2093         4.94914 
        2.56049            56.4         4.87469 
        2.57618         55.9737         4.80184 
        2.59189         55.2097         4.73037 
        2.60758         54.8678         4.66046 
        2.62325         54.1661         4.59205 
        2.63898         53.6167         4.52478 
        2.65468         53.1593           4.459 
        2.67044         52.3204         4.39425 
        2.68618          51.992         4.33093 
        2.70184         51.2837         4.26911 
        2.71755         51.0568         4.20834 
        2.73329         50.1124         4.14867 
        2.74897         49.7033         4.09034 
        2.76462         49.1442         4.03327 
        2.78034         48.7538         3.97705 
        2.79607         48.0302         3.92184 
        2.81179         47.5556         3.86775 
        2.82749         46.9835         3.81474 
        2.84321         46.5913         3.76266 
        2.85893         46.0303         3.71157 
        2.87462         45.4773         3.66151 
        2.89033         45.0034         3.61234 
        2.90605         44.5768         3.56402 
        2.92176         44.1333         3.51661 
        2.93747         43.6982         3.47009 
        2.95318         43.1332          3.4244 
        2.96891         42.5727         3.37951 
        2.98456         42.4127         3.33563 
        3.00023         41.8423         3.29246 
        3.01596           41.55         3.24992 
        3.03164         40.9504         3.20826 
        3.04738         40.7217          3.1672 
         3.0631         40.1985         3.12688 
        3.07883         39.8198         3.08725 
        3.09456         39.3538         3.04832 
        3.11026         38.8677         3.01012 
        3.12596         38.6831         2.97258 
        3.14163          38.158         2.93577 
        3.15734         37.5514         2.89949 
        3.17308         37.5284         2.86374 
        3.18879         37.2358         2.82869 
        3.20447         36.6645         2.79428 
         3.2202         36.2237         2.76033 
         3.2359            35.9         2.72701 
        3.25157         35.5611         2.69432 
        3.26729         35.2026         2.66206 
        3.28304         34.7619         2.63027 
        3.29877         34.5385         2.59904 
        3.31446          34.259         2.56838 
        3.33014         33.8354         2.53825 
        3.34585         33.5764         2.50855 
        3.36158         33.2236         2.47928 
        3.37727         32.8631         2.45058 
        3.39294         32.5576         2.42235 
        3.40867         32.2475         2.39447 
        3.42439          31.941         2.36704 
        3.44008           31.82         2.34009 
        3.45578         31.2595         2.31354 
        3.47153         30.9798         2.28735 
        3.48724         30.7449         2.26161 
        3.50292         30.4488         2.23632 
        3.51859         30.1665         2.21143 
        3.53431         29.9107         2.18684 
        3.55007          29.642         2.16257 
        3.56577         29.3638         2.13876 
        3.58146          29.096         2.11532 
        3.59719         28.7666         2.09218 
        3.61292         28.5598         2.06939 
        3.62859         28.2248         2.04703 
        3.64429         27.8916         2.02495 
        3.66003         27.6551         2.00313 
        3.67578         27.4469         1.98164 
        3.69146         27.2427         1.96055 
        3.70712         26.9492          1.9398 
        3.72284         26.8203         1.91928 
        3.73853          26.499         1.89909 
        3.75422         26.2295         1.87918 
        3.76993         26.0813         1.85954 
        3.78564         25.7753         1.84018 
        3.80137         25.5753         1.82108 
        3.81707         25.3626         1.80228 
        3.83279         25.1394         1.78373 
        3.84853         24.7969         1.76542 
        3.86424         24.5745         1.74739 
        3.87992          24.388         1.72965 
        3.89561         24.1547         1.71215 
        3.91134         23.9786         1.69486 
        3.92704           23.76         1.67782 
        3.94273         23.5289         1.66104 
        3.95845         23.2465         1.64445 
        3.97418         23.1439         1.62809 
        3.98988         22.8825         1.61197 
        4.00554         22.6729         1.59612 
        4.02125          22.572         1.58043 
        4.03698         22.2782         1.56493 
        4.05268         22.1159         1.54967 
        4.06839         21.8849          1.5346 
         4.0841         21.7593         1.51974 
        4.09983         21.5716         1.50506 
        4.11555         21.3854         1.49057 
        4.13124         21.0782         1.47632 
        4.14693         20.9216         1.46224 
        4.16266         20.7502         1.44831 
        4.17839          20.576         1.43457 
        4.19408         20.3783         1.42104 
        4.20977         20.2752         1.40767 
        4.22551         20.0549         1.39445 
        4.24123         19.8934         1.38141 
        4.25691         19.7302         1.36858 
        4.27259         19.5527          1.3559 
        4.28831         19.3799         1.34335 
        4.30404          19.184         1.33096 
        4.31974         19.0746         1.31875 
        4.33543         18.9158         1.30669 
        4.35116         18.7786         1.29476 
        4.36688         18.5782         1.28298 
        4.38255         18.4527          1.2714 
        4.39825         18.3336         1.25993 
        4.41398         18.1127         1.24858 
         4.4297         17.9741         1.23738 
        4.44541         17.8618         1.22632 
        4.46111          17.685          1.2154 
        4.47683          17.534         1.20461 
        4.49251         17.4203         1.19397 
        4.50819         17.2562         1.18346 
         4.5239         17.1403         1.17307 
        4.53962         16.9555         1.16278 
        4.55535         16.8303         1.15262 
        4.57106         16.6939         1.14259 
        4.58678          16.577         1.13268 
         4.6025          16.428         1.12288 
        4.61821         16.3108          1.1132 
        4.63391         16.1588         1.10364 
         4.6496         16.0293         1.09421 
        4.66532         15.8863         1.08487 
        4.68103         15.7435         1.07564 
        4.69673         15.6722         1.06652 
        4.71241          15.555         1.05753 
        4.72811         15.3794         1.04862 
        4.74384         15.2882          1.0398 
        4.75955         15.1689          1.0311 
        4.77525         15.0694          1.0225 
        4.79096         14.9207         1.01399 
        4.80669          14.818         1.00557 
         4.8224         14.6755        0.997255 
        4.83809           14.56        0.989044 
        4.85379         14.4322         0.98092 
         4.8695         14.3822        0.972882 
        4.88521          14.254        0.964936 
        4.90093         14.1327        0.957079 
        4.91663         14.0408        0.949315 
        4.93234         13.9185         0.94163 
        4.94807         13.8078        0.934024 
        4.96377         13.6757        0.926517 
        4.97943         13.5923        0.919107 
        4.99514         13.4623         0.91176 
        5.01086         13.3927        0.904488 
        5.02654         13.2561        0.897313 
        5.04227         13.1879        0.890195 
          5.058         13.0684         0.88315 
        5.07371         12.9836        0.876196 
        5.08942         12.8645        0.869316 
        5.10513         12.7908        0.862508 
        5.12084         12.6727        0.855771 
        5.13656         12.5913        0.849106 
        5.15225         12.4653        0.842524 
        5.16796         12.4114           0.836 
        5.18369         12.2874         0.82954 
         5.1994         12.2215         0.82316 
        5.21509          12.114        0.816853 
        5.23079         12.0265        0.810604 
        5.24649         11.9389        0.804426 
        5.26217         11.8371        0.798316 
        5.27788         11.7435         0.79226 
        5.29359         11.6901        0.786267 
        5.30933         11.5842        0.780327 
        5.32504         11.5284        0.774458 
        5.34073         11.4173        0.768656 
        5.35646         11.3523        0.762902 
        5.37218         11.2477        0.757205 
        5.38789         11.1717        0.751576 
        5.40357         11.0911         0.74601 
        5.41929         11.0103        0.740488 
        5.43502         10.9526        0.735022 
         5.4507         10.8461        0.729624 
        5.46639         10.7812        0.724279 
        5.48212         10.7318        0.718975 
        5.49786         10.6248        0.713718 
        5.51353         10.5595         0.70854 
        5.52921         10.4736        0.703407 
        5.54495          10.389        0.698311 
        5.56066         10.3073         0.69327 
        5.57637         10.2329         0.68828 
        5.59207         10.1755        0.683343 
        5.60778         10.1031        0.678453 
        5.62346         10.0463        0.673618 
        5.63916         9.95687        0.668825 
        5.65487         9.89341        0.664076 
         5.6706         9.83192        0.659367 
        5.68633         9.75263        0.654703 
        5.70203         9.69915        0.650093 
        5.71773         9.62972        0.645528 
        5.73344         9.55084        0.641005 
        5.74916         9.49021        0.636521 
        5.76486         9.40756        0.632086 
        5.78054         9.35701          0.6277 
        5.79626         9.29472        0.623343 
          5.812         9.23026        0.619023 
         5.8277         9.15626        0.614757 
        5.84339         9.11159         0.61053 
        5.85911         9.04181        0.606336 
        5.87484         8.96303        0.602181 
        5.89053         8.90952        0.598074 
        5.90623         8.83968        0.594003 
        5.92195         8.79616        0.589963 
        5.93767         8.73344        0.585963 
        5.95336         8.67753        0.582006 
        5.96905         8.62492        0.578087 
        5.98476         8.56751        0.574199 
        6.00048         8.50686        0.570346 
        6.01617         8.46059        0.566532 
        6.03185         8.38975        0.562759 
        6.04756         8.33518         0.55901 
        6.06331         8.27851        0.555288 
        6.07903         8.22741        0.551607 
        6.09473         8.17573        0.547964 
        6.11044         8.12408        0.544349 
        6.12616         8.06111        0.540768 
        6.14186         7.99539        0.537223 
        6.15755         7.94306        0.533709 
        6.17326         7.91017        0.530225 
        6.18898          7.8405         0.52677 
        6.20467         7.79081        0.523351 
        6.22036         7.74619        0.519964 
         6.2361         7.68746        0.516597 
         6.2518         7.63851        0.513265 
        6.26748          7.5879         0.50997 
        6.28319         7.54916        0.506695 
        6.29893         7.49384        0.503446 
        6.31463         7.44374        0.500231 
        6.33033         7.39861        0.497044 
        6.34604         7.35686        0.493884 
        6.36177         7.29994        0.490748 
        6.37747         7.25905        0.487644 
