# k  (h/Mpc)    Pcb(k)  (Mpc/h)^3    Pcb_linear(k) (Mpc/h)^3   ShotnoiseSubtracted = true
      0.0200456         8314.56         8463.18 
      0.0350414         6001.73         6152.44 
      0.0492313         4446.89         4470.25 
      0.0637834         3784.83         3716.08 
      0.0800726         2997.33         2949.36 
       0.096163         2103.68         2140.02 
       0.111083         1670.56         1706.93 
       0.126058          1534.7         1512.69 
       0.142273         1323.51         1281.58 
       0.158546         1091.29         1012.18 
        0.17375         879.886         852.761 
       0.188953         841.732         772.156 
       0.204907         788.484         683.201 
       0.220756         665.199         578.029 
        0.23588         583.368         502.835 
         0.2514         512.221         456.821 
       0.267535         491.945         413.344 
       0.283568         445.563         364.514 
       0.299022         412.586         324.763 
       0.314451         382.359         296.811 
       0.330372         353.546         272.291 
       0.346141         318.708         247.146 
       0.361624         305.021         224.622 
       0.377134         285.234         206.687 
       0.392932         265.186         191.244 
       0.408854         254.202          176.29 
       0.424564         243.223         162.489 
       0.440253           231.3         150.646 
       0.455999         217.645         140.348 
       0.471626         201.565         130.885 
        0.48727         195.829         122.032 
       0.502856         188.321         114.079 
       0.518488         184.591         106.983 
       0.534347         175.175         100.386 
       0.550082         163.039         94.3039 
       0.565732          158.56         88.7392 
       0.581496         151.418         83.6426 
       0.597222         146.902         78.9686 
       0.612804         140.559         74.6706 
       0.628434         137.074         70.6645 
       0.644267         132.366         66.9192 
       0.660051          130.11         63.4673 
       0.675724         126.334         60.2799 
       0.691403         122.473         57.3087 
       0.707174         117.491          54.521 
       0.722871         116.029         51.9299 
        0.73838         113.644         49.5348 
       0.754018         108.721         47.2728 
       0.769845         106.528         45.1274 
        0.78569         104.072         43.1133 
       0.801365         101.061         41.2423 
       0.817031         97.5142         39.4839 
       0.832809         96.3486         37.8175 
       0.848511         93.1891         36.2551 
       0.864097         90.7797         34.7922 
       0.879701         89.5802          33.409 
       0.895507         87.6068          32.085 
       0.911279         86.2399         30.8358 
        0.92691         84.2727         29.6638 
       0.942635         81.9141         28.5466 
       0.958396         81.5829         27.4847 
       0.974128         79.4238         26.4791 
       0.989692         77.5533         25.5339 
        1.00528         76.0058         24.6336 
        1.02113         74.8207         23.7628 
        1.03692         72.5059         22.9375 
        1.05264         72.3419         22.1554 
        1.06832         70.3614         21.4111 
        1.08405          69.515         20.6991 
        1.09979         68.9454         20.0192 
        1.11537         66.3831         19.3768 
        1.13105         66.7884         18.7588 
        1.14679         65.3856         18.1654 
        1.16256         64.3835         17.5967 
        1.17828          62.687         17.0543 
        1.19395          62.224         16.5366 
         1.2097         60.7137         16.0379 
        1.22537         60.7748         15.5623 
          1.241         59.1827         15.1074 
        1.25666         58.0702         14.6696 
        1.27241         57.5608         14.2472 
        1.28819         56.3796         13.8408 
        1.30392         55.5916         13.4515 
        1.31957         55.0975         13.0789 
        1.33529         54.1815         12.7191 
        1.35108         53.8818         12.3714 
        1.36674         53.0572         12.0393 
         1.3824         51.7812         11.7197 
        1.39811         51.5522         11.4107 
        1.41389          50.718         11.1117 
        1.42964         50.0265         10.8239 
        1.44531          49.279         10.5478 
        1.46101         48.3997         10.2807 
        1.47667         48.3324         10.0237 
        1.49229         47.7012          9.7762 
        1.50793         46.9422         9.53679 
        1.52367         46.2484         9.30388 
        1.53953         45.9255          9.0772 
        1.55526         45.2132         8.85991 
        1.57092         44.8363         8.65064 
        1.58662         44.2479         8.44765 
        1.60235         43.7599          8.2508 
        1.61809         43.0545         8.06014 
        1.63369         42.4286          7.8772 
        1.64941         41.8986         7.69865 
        1.66519         41.3615           7.525 
        1.68085         41.0651         7.35796 
        1.69652         40.4791         7.19595 
        1.71228         40.2534          7.0379 
        1.72806         39.7149         6.88449 
        1.74368         39.1165          6.7372 
        1.75933         38.7156         6.59393 
        1.77505         38.4355         6.45416 
        1.79081         37.8313         6.31821 
         1.8065           37.44         6.18676 
        1.82218         37.0846         6.05918 
        1.83797         36.5622         5.93432 
        1.85367         36.0533         5.81368 
        1.86928         35.8465         5.69713 
        1.88497         35.4374         5.58313 
        1.90073         35.1234         5.47185 
        1.91647         34.6967          5.3637 
        1.93218         34.3647          5.2587 
        1.94787         33.9415         5.15668 
        1.96363         33.6657         5.05696 
        1.97935         33.2328         4.96009 
        1.99499         32.8646         4.86631 
        2.01064         32.6324         4.77482 
         2.0264         32.1212         4.68511 
        2.04216         31.7449         4.59775 
        2.05781         31.4024         4.51317 
        2.07353         31.1425         4.43042 
        2.08928         31.0872         4.34957 
        2.10499         30.6708         4.27096 
        2.12065         30.2071         4.19453 
        2.13633         30.0876          4.1199 
        2.15211         29.5269         4.04661 
        2.16785         29.2172         3.97531 
        2.18349         29.0795         3.90618 
        2.19916         28.8232         3.83855 
        2.21489         28.3783         3.77229 
        2.23063         28.1894         3.70756 
         2.2463         27.9445         3.64464 
        2.26194         27.6924         3.58334 
        2.27765         27.3981         3.52313 
        2.29341          27.111         3.46415 
        2.30914         26.9475         3.40665 
        2.32486         26.5403         3.35048 
        2.34061         26.3947         3.29549 
        2.35635         26.0903         3.24178 
        2.37203         25.8953         3.18946 
        2.38768          25.563          3.1384 
        2.40339         25.4805         3.08827 
        2.41914         25.1571         3.03912 
        2.43483         24.8587         2.99122 
         2.4505         24.6445         2.94443 
        2.46622         24.4119         2.89848 
        2.48195         24.1843         2.85351 
        2.49759         23.9501         2.80974 
        2.51328         23.6867         2.76677 
        2.52906         23.5531         2.72442 
        2.54479         23.2344         2.68312 
        2.56049         22.9746         2.64276 
        2.57618         22.7539         2.60326 
        2.59189          22.654         2.56452 
        2.60758         22.4495         2.52662 
        2.62325         22.1606         2.48953 
        2.63898         22.1038         2.45306 
        2.65468         21.7826          2.4174 
        2.67044         21.6122         2.38229 
        2.68618         21.3467         2.34796 
        2.70184         21.2308         2.31445 
        2.71755         21.0561          2.2815 
        2.73329         20.8189         2.24915 
        2.74897         20.5532         2.21753 
        2.76462         20.5467         2.18659 
        2.78034         20.3037         2.15611 
        2.79607         20.1058         2.12618 
        2.81179         19.9541         2.09686 
        2.82749         19.7567         2.06812 
        2.84321         19.6348         2.03988 
        2.85893         19.3872         2.01218 
        2.87462         19.1916         1.98505 
        2.89033         19.0889         1.95839 
        2.90605         18.9706         1.93219 
        2.92176         18.6685         1.90649 
        2.93747         18.6213         1.88127 
        2.95318         18.3705          1.8565 
        2.96891         18.2459         1.83217 
        2.98456         18.0735         1.80837 
        3.00023         17.8999         1.78497 
        3.01596          17.817         1.76191 
        3.03164         17.6482         1.73932 
        3.04738         17.4257         1.71706 
         3.0631         17.2697          1.6952 
        3.07883         17.1381         1.67372 
        3.09456         17.0144         1.65261 
        3.11026         16.8791          1.6319 
        3.12596          16.691         1.61155 
        3.14163         16.6076         1.59159 
        3.15734         16.3912         1.57193 
        3.17308         16.2751         1.55254 
        3.18879         16.1283         1.53354 
        3.20447         15.9975         1.51489 
         3.2202         15.8345         1.49648 
         3.2359         15.7259         1.47842 
        3.25157         15.6106         1.46069 
        3.26729         15.5008         1.44321 
        3.28304         15.3261         1.42597 
        3.29877         15.1611         1.40904 
        3.31446         15.0358         1.39242 
        3.33014         14.9219         1.37608 
        3.34585         14.7527         1.35998 
        3.36158         14.6747         1.34412 
        3.37727         14.5051         1.32855 
        3.39294         14.3813         1.31325 
        3.40867         14.2903         1.29813 
        3.42439         14.1489         1.28326 
        3.44008          14.076         1.26865 
        3.45578         13.9374         1.25426 
        3.47153         13.8476         1.24006 
        3.48724          13.732          1.2261 
        3.50292         13.5722          1.2124 
        3.51859         13.5075          1.1989 
        3.53431         13.4007         1.18557 
        3.55007         13.2801         1.17241 
        3.56577          13.169         1.15951 
        3.58146         13.0864          1.1468 
        3.59719         12.9228         1.13425 
        3.61292         12.8432          1.1219 
        3.62859         12.7147         1.10977 
        3.64429         12.6176          1.0978 
        3.66003         12.5253         1.08598 
        3.67578         12.4574         1.07433 
        3.69146         12.3204         1.06289 
        3.70712         12.2122         1.05164 
        3.72284          12.126         1.04051 
        3.73853         11.9806         1.02957 
        3.75422         11.9328         1.01877 
        3.76993         11.8504         1.00813 
        3.78564          11.709        0.997635 
        3.80137         11.6304        0.987276 
        3.81707         11.5313        0.977085 
        3.83279         11.4276         0.96703 
        3.84853         11.3521          0.9571 
        3.86424         11.2132        0.947329 
        3.87992          11.166        0.937709 
        3.89561         11.0753        0.928222 
        3.91134         11.0071        0.918847 
        3.92704         10.8751        0.909611 
        3.94273         10.8059        0.900512 
        3.95845         10.7374        0.891521 
        3.97418         10.6486        0.882651 
        3.98988         10.5365        0.873913 
        4.00554         10.4985        0.865317 
        4.02125         10.3558        0.856812 
        4.03698         10.3187        0.848409 
        4.05268         10.2188        0.840136 
        4.06839         10.1337        0.831969 
         4.0841         10.0649        0.823912 
        4.09983         9.97888         0.81595 
        4.11555         9.89448        0.808097 
        4.13124         9.81949        0.800369 
        4.14693          9.7439        0.792735 
        4.16266         9.67926        0.785183 
        4.17839          9.5825        0.777734 
        4.19408         9.52949        0.770399 
        4.20977         9.44304        0.763155 
        4.22551         9.38812        0.755986 
        4.24123         9.31283        0.748917 
        4.25691         9.23598        0.741958 
        4.27259         9.14059        0.735085 
        4.28831         9.08603        0.728285 
        4.30404         9.01937        0.721564 
        4.31974         8.96641        0.714943 
        4.33543         8.86766        0.708409 
        4.35116         8.80347         0.70194 
        4.36688         8.73899        0.695555 
        4.38255         8.67208        0.689273 
        4.39825         8.59795        0.683055 
        4.41398         8.54759        0.676901 
         4.4297         8.47727         0.67083 
        4.44541         8.42368        0.664834 
        4.46111         8.35172        0.658916 
        4.47683         8.29319        0.653065 
        4.49251         8.21825        0.647298 
        4.50819         8.15639        0.641602 
         4.5239         8.11743        0.635966 
        4.53962         8.04643         0.63039 
        4.55535         7.97329        0.624879 
        4.57106         7.91692        0.619441 
        4.58678         7.85133        0.614067 
         4.6025         7.78674        0.608756 
        4.61821         7.75191        0.603508 
        4.63391         7.70962        0.598329 
         4.6496         7.62914        0.593212 
        4.66532         7.57839        0.588148 
        4.68103         7.49747        0.583144 
        4.69673         7.45848        0.578204 
        4.71241          7.4132        0.573326 
        4.72811         7.33676        0.568496 
        4.74384         7.29348        0.563716 
        4.75955         7.24242        0.558997 
        4.77525          7.1854        0.554335 
        4.79096         7.13598        0.549721 
        4.80669         7.08601        0.545157 
         4.8224         7.03846         0.54065 
        4.83809          6.9622        0.536199 
        4.85379         6.91021        0.531795 
         4.8695         6.87285        0.527437 
        4.88521         6.83116        0.523129 
        4.90093         6.76682        0.518869 
        4.91663         6.71893        0.514661 
        4.93234         6.67879        0.510494 
        4.94807         6.62414        0.506371 
        4.96377          6.5896        0.502301 
        4.97943         6.53519        0.498284 
        4.99514         6.48111          0.4943 
        5.01086         6.44025        0.490358 
        5.02654         6.38932        0.486468 
        5.04227          6.3478        0.482609 
          5.058         6.31907         0.47879 
        5.07371         6.27115         0.47502 
        5.08942          6.2185         0.47129 
        5.10513         6.17169        0.467599 
        5.12084         6.12792        0.463946 
        5.13656         6.09036        0.460333 
        5.15225         6.05635        0.456765 
        5.16796         6.00524        0.453228 
        5.18369         5.96068        0.449726 
         5.1994         5.92592        0.446267 
        5.21509         5.87954        0.442847 
        5.23079         5.84118         0.43946 
        5.24649         5.80452         0.43611 
        5.26217         5.76698        0.432798 
        5.27788         5.71939        0.429515 
        5.29359         5.68256        0.426266 
        5.30933         5.65273        0.423045 
        5.32504         5.60689        0.419864 
        5.34073          5.5684        0.416718 
        5.35646         5.52937        0.413598 
        5.37218         5.48312         0.41051 
        5.38789         5.46704        0.407458 
        5.40357         5.41724        0.404441 
        5.41929         5.38573        0.401447 
        5.43502         5.34462        0.398484 
         5.4507         5.30857        0.395557 
        5.46639         5.26315         0.39266 
        5.48212         5.22153        0.389784 
        5.49786         5.21048        0.386934 
        5.51353         5.16117        0.384127 
        5.52921         5.13228        0.381344 
        5.54495         5.09934        0.378581 
        5.56066         5.06564        0.375849 
        5.57637         5.03036        0.373143 
        5.59207          4.9902        0.370467 
        5.60778         4.96944        0.367816 
        5.62346         4.93439        0.365194 
        5.63916         4.90419        0.362596 
        5.65487         4.85924        0.360021 
         5.6706         4.83993        0.357469 
        5.68633         4.80044         0.35494 
        5.70203         4.77252        0.352441 
        5.71773         4.74389        0.349966 
        5.73344         4.71208        0.347514 
        5.74916         4.68921        0.345083 
        5.76486         4.65312        0.342678 
        5.78054         4.61942          0.3403 
        5.79626         4.58312        0.337938 
          5.812         4.56606        0.335596 
         5.8277         4.52603        0.333283 
        5.84339         4.51645        0.330992 
        5.85911         4.48895        0.328718 
        5.87484         4.44791        0.326466 
        5.89053         4.42523        0.324239 
        5.90623         4.40198        0.322032 
        5.92195         4.35848        0.319842 
        5.93767            4.34        0.317673 
        5.95336         4.31538        0.315528 
        5.96905         4.28058        0.313404 
        5.98476         4.25736        0.311296 
        6.00048         4.22285        0.309206 
        6.01617         4.20546        0.307139 
        6.03185         4.17967        0.305093 
        6.04756         4.15358        0.303061 
        6.06331         4.12889        0.301043 
        6.07903         4.09773        0.299048 
        6.09473         4.07365        0.297072 
        6.11044         4.04576        0.295113 
        6.12616         4.03737        0.293171 
        6.14186          3.9985        0.291249 
        6.15755         3.98085        0.289345 
        6.17326         3.96097        0.287455 
        6.18898         3.93294        0.285582 
        6.20467         3.90837        0.283729 
        6.22036         3.88746        0.281892 
         6.2361         3.85778        0.280067 
         6.2518         3.84511        0.278261 
        6.26748         3.81787        0.276475 
        6.28319         3.79144        0.274699 
        6.29893         3.76848        0.272937 
        6.31463         3.74658        0.271194 
        6.33033         3.72299        0.269467 
        6.34604         3.69705        0.267753 
        6.36177         3.67627        0.266053 
        6.37747         3.65799        0.264371 
