# k  (h/Mpc)    Pcb(k)  (Mpc/h)^3    Pcb_linear(k) (Mpc/h)^3   ShotnoiseSubtracted = true
      0.0200456         18521.4         18831.9 
      0.0350414         14102.3         13690.2 
      0.0492313          9770.2         9947.03 
      0.0637834         7882.63         8268.88 
      0.0800726          6193.3          6562.8 
       0.096163         4942.49         4761.89 
       0.111083         4024.29          3798.2 
       0.126058         3331.54         3365.98 
       0.142273         2905.63         2851.73 
       0.158546         2386.36         2252.27 
        0.17375            2118         1897.53 
       0.188953         1994.03         1718.17 
       0.204907         1712.31         1520.23 
       0.220756         1543.74         1286.21 
        0.23588         1377.13         1118.89 
         0.2514         1241.12          1016.5 
       0.267535         1202.04         919.758 
       0.283568         1063.59         811.103 
       0.299022         1015.62         722.651 
       0.314451         1051.43         660.454 
       0.330372         917.043         605.892 
       0.346141         844.327         549.939 
       0.361624         810.152          499.82 
       0.377134          772.47         459.913 
       0.392932         741.164         425.548 
       0.408854         708.002         392.274 
       0.424564         690.664         361.564 
       0.440253         635.088         335.212 
       0.455999         607.829         312.298 
       0.471626          619.02         291.239 
        0.48727         584.263         271.541 
       0.502856         551.503         253.845 
       0.518488         542.856         238.055 
       0.534347         514.262         223.376 
       0.550082         492.111         209.841 
       0.565732         487.312         197.459 
       0.581496         475.683         186.118 
       0.597222         463.092         175.718 
       0.612804         452.611         166.154 
       0.628434         434.235          157.24 
       0.644267         419.748         148.906 
       0.660051         414.344         141.225 
       0.675724         406.522         134.133 
       0.691403         397.155         127.521 
       0.707174         382.789         121.318 
       0.722871         376.825         115.552 
        0.73838         371.293         110.223 
       0.754018         358.901          105.19 
       0.769845           356.4         100.416 
        0.78569         348.753         95.9342 
       0.801365          337.56         91.7707 
       0.817031         334.659         87.8582 
       0.832809         328.951           84.15 
       0.848511         321.801         80.6735 
       0.864097         313.844         77.4183 
       0.879701         311.943         74.3404 
       0.895507         302.179         71.3943 
       0.911279         295.855         68.6147 
        0.92691         293.384         66.0069 
       0.942635         290.739         63.5208 
       0.958396         281.696          61.158 
       0.974128         278.915         58.9202 
       0.989692         268.657          56.817 
        1.00528         268.388         54.8138 
        1.02113         264.386         52.8762 
        1.03692         258.718         51.0397 
        1.05264         254.428         49.2993 
        1.06832         252.951         47.6431 
        1.08405         247.162         46.0589 
        1.09979         244.406         44.5461 
        1.11537         238.962         43.1165 
        1.13105         235.222         41.7413 
        1.14679          233.01          40.421 
        1.16256         230.393         39.1555 
        1.17828         227.209         37.9485 
        1.19395         221.199         36.7967 
         1.2097         221.029          35.687 
        1.22537          218.17         34.6285 
          1.241         212.319         33.6164 
        1.25666         210.796         32.6423 
        1.27241         206.991         31.7024 
        1.28819         204.318          30.798 
        1.30392         201.999         29.9317 
        1.31957         196.811         29.1026 
        1.33529         194.186          28.302 
        1.35108         193.186         27.5285 
        1.36674         188.611         26.7894 
         1.3824         187.355         26.0783 
        1.39811         185.287         25.3907 
        1.41389         180.743         24.7253 
        1.42964         178.772          24.085 
        1.44531          177.15         23.4705 
        1.46101         173.749         22.8763 
        1.47667         172.337         22.3044 
        1.49229         169.744         21.7536 
        1.50793         166.859         21.2209 
        1.52367         165.307         20.7026 
        1.53953         161.547         20.1983 
        1.55526         161.024         19.7147 
        1.57092         159.569         19.2491 
        1.58662         155.359         18.7974 
        1.60235          154.12         18.3594 
        1.61809         151.707         17.9351 
        1.63369          149.39         17.5281 
        1.64941         148.151         17.1308 
        1.66519         146.247         16.7444 
        1.68085          143.64         16.3727 
        1.69652         142.037         16.0122 
        1.71228          140.34         15.6605 
        1.72806         139.095         15.3191 
        1.74368         137.163         14.9914 
        1.75933         135.981         14.6726 
        1.77505         133.746         14.3616 
        1.79081         131.322          14.059 
         1.8065         129.615         13.7666 
        1.82218         127.805         13.4827 
        1.83797         127.211         13.2048 
        1.85367         125.466         12.9364 
        1.86928         124.101          12.677 
        1.88497         122.258         12.4234 
        1.90073           121.3         12.1757 
        1.91647         119.242         11.9351 
        1.93218         118.055         11.7015 
        1.94787         116.063         11.4744 
        1.96363         115.341         11.2526 
        1.97935         113.903          11.037 
        1.99499         113.045         10.8283 
        2.01064         110.416         10.6247 
         2.0264         109.801         10.4251 
        2.04216         107.801         10.2307 
        2.05781         107.026         10.0425 
        2.07353         105.551         9.85842 
        2.08928         104.196         9.67851 
        2.10499         103.139         9.50358 
        2.12065         102.259         9.33351 
        2.13633         101.267         9.16745 
        2.15211         99.5908         9.00437 
        2.16785         98.2228         8.84572 
        2.18349         96.8926         8.69189 
        2.19916          95.816         8.54139 
        2.21489         95.1831         8.39397 
        2.23063         93.4724         8.24993 
         2.2463          92.747         8.10992 
        2.26194         91.6962         7.97351 
        2.27765         90.3849         7.83954 
        2.29341         89.5249          7.7083 
        2.30914          88.354         7.58035 
        2.32486         86.8427         7.45537 
        2.34061         86.3931           7.333 
        2.35635         85.1152         7.21349 
        2.37203         83.9117         7.09706 
        2.38768         83.0886         6.98345 
        2.40339         82.6512         6.87191 
        2.41914           81.03         6.76255 
        2.43483         80.3999         6.65595 
         2.4505         79.4024         6.55184 
        2.46622         78.6774          6.4496 
        2.48195         77.6489         6.34953 
        2.49759         76.7192         6.25212 
        2.51328         75.8267          6.1565 
        2.52906         74.4752         6.06228 
        2.54479         74.0005         5.97038 
        2.56049         73.0638         5.88057 
        2.57618         72.1444         5.79269 
        2.59189         71.7142         5.70646 
        2.60758         70.3912         5.62213 
        2.62325         69.9477         5.53961 
        2.63898         69.1915         5.45846 
        2.65468         68.4437          5.3791 
        2.67044          67.624         5.30098 
        2.68618          66.987          5.2246 
        2.70184         66.0299         5.15002 
        2.71755          65.313         5.07672 
        2.73329         64.4682         5.00473 
        2.74897         63.9645         4.93437 
        2.76462         63.3998         4.86552 
        2.78034         62.6682          4.7977 
        2.79607         62.0001          4.7311 
        2.81179         61.3053         4.66585 
        2.82749         60.7059         4.60189 
        2.84321         60.1418         4.53907 
        2.85893         59.4768         4.47744 
        2.87462         58.7762         4.41705 
        2.89033         58.0638         4.35773 
        2.90605         57.5086         4.29944 
        2.92176         56.9403         4.24225 
        2.93747         56.2608         4.18613 
        2.95318         55.7323         4.13102 
        2.96891         55.0549         4.07687 
        2.98456         54.4932         4.02393 
        3.00023         53.8173         3.97185 
        3.01596          53.363         3.92054 
        3.03164           52.86         3.87027 
        3.04738         52.3005         3.82074 
         3.0631         51.4588          3.7721 
        3.07883         51.0559          3.7243 
        3.09456         50.4759         3.67734 
        3.11026         50.0062         3.63125 
        3.12596         49.5967         3.58597 
        3.14163          48.907         3.54155 
        3.15734         48.4597         3.49779 
        3.17308         47.9343         3.45466 
        3.18879         47.4992         3.41238 
        3.20447          47.197         3.37087 
         3.2202         46.4506         3.32992 
         3.2359         46.0732         3.28972 
        3.25157         45.7547         3.25028 
        3.26729         45.1423         3.21137 
        3.28304         44.7817         3.17302 
        3.29877         44.1674         3.13534 
        3.31446         43.8516         3.09836 
        3.33014         43.4427         3.06201 
        3.34585         42.8966         3.02618 
        3.36158         42.4742         2.99088 
        3.37727         42.1125         2.95625 
        3.39294         41.7203         2.92219 
        3.40867         41.3338         2.88856 
        3.42439         40.8486         2.85547 
        3.44008          40.439         2.82296 
        3.45578         40.0536         2.79093 
        3.47153         39.6455         2.75934 
        3.48724         39.2059         2.72828 
        3.50292         38.8617         2.69778 
        3.51859         38.5939         2.66775 
        3.53431         38.1875         2.63809 
        3.55007         37.6913         2.60881 
        3.56577         37.6099         2.58009 
        3.58146         37.0573         2.55181 
        3.59719         36.7523         2.52389 
        3.61292         36.4521          2.4964 
        3.62859         36.0889         2.46942 
        3.64429         35.7809         2.44279 
        3.66003         35.4207         2.41647 
        3.67578         35.1477         2.39055 
        3.69146         34.7819          2.3651 
        3.70712          34.401         2.34007 
        3.72284         34.0557         2.31531 
        3.73853         33.8612         2.29096 
        3.75422         33.4815         2.26694 
        3.76993          33.189         2.24325 
        3.78564         32.9298          2.2199 
        3.80137         32.5608         2.19685 
        3.81707         32.2987         2.17417 
        3.83279          31.955          2.1518 
        3.84853         31.6539          2.1297 
        3.86424         31.3559         2.10796 
        3.87992         31.0985         2.08656 
        3.89561         30.8977         2.06544 
        3.91134         30.5587         2.04458 
        3.92704         30.2258         2.02403 
        3.94273         30.0084         2.00379 
        3.95845         29.7627         1.98378 
        3.97418         29.3987         1.96404 
        3.98988         29.1485          1.9446 
        4.00554         28.8625         1.92547 
        4.02125          28.689         1.90655 
        4.03698         28.3798         1.88785 
        4.05268         28.1439         1.86944 
        4.06839         27.8709         1.85127 
         4.0841         27.6948         1.83334 
        4.09983         27.3597         1.81562 
        4.11555         27.0588         1.79815 
        4.13124         26.9972         1.78095 
        4.14693         26.7035         1.76396 
        4.16266          26.454         1.74716 
        4.17839         26.2988         1.73059 
        4.19408         25.9461         1.71426 
        4.20977         25.7859         1.69814 
        4.22551         25.5968         1.68219 
        4.24123         25.3681         1.66646 
        4.25691         25.1181         1.65098 
        4.27259         24.9589         1.63568 
        4.28831         24.7336         1.62055 
        4.30404          24.552          1.6056 
        4.31974         24.2727         1.59086 
        4.33543         24.1041         1.57632 
        4.35116         23.8888         1.56193 
        4.36688         23.7045         1.54772 
        4.38255         23.4983         1.53375 
        4.39825         23.2781         1.51991 
        4.41398         23.0998         1.50622 
         4.4297         22.8805         1.49271 
        4.44541         22.6868         1.47936 
        4.46111          22.478         1.46619 
        4.47683         22.3073         1.45318 
        4.49251         22.1462         1.44034 
        4.50819         21.9498         1.42767 
         4.5239         21.7912         1.41513 
        4.53962         21.6065         1.40272 
        4.55535         21.4008         1.39046 
        4.57106         21.2482         1.37836 
        4.58678         21.0753          1.3664 
         4.6025         20.8425         1.35458 
        4.61821         20.7143          1.3429 
        4.63391          20.512         1.33138 
         4.6496         20.4125         1.31999 
        4.66532         20.2125         1.30872 
        4.68103         20.0021         1.29759 
        4.69673         19.9352          1.2866 
        4.71241         19.8134         1.27574 
        4.72811          19.576           1.265 
        4.74384         19.4188         1.25436 
        4.75955         19.3204         1.24386 
        4.77525           19.14         1.23349 
        4.79096          18.966         1.22322 
        4.80669         18.8012         1.21306 
         4.8224         18.6437         1.20303 
        4.83809         18.5261         1.19313 
        4.85379         18.3729         1.18333 
         4.8695         18.2177         1.17363 
        4.88521          18.086         1.16405 
        4.90093         17.9541         1.15457 
        4.91663         17.7885          1.1452 
        4.93234         17.6232         1.13593 
        4.94807         17.5198         1.12676 
        4.96377          17.399          1.1177 
        4.97943         17.2555         1.10876 
        4.99514         17.1239          1.0999 
        5.01086         16.9761         1.09113 
        5.02654         16.8839         1.08247 
        5.04227         16.7303         1.07388 
          5.058         16.5689         1.06539 
        5.07371         16.4972           1.057 
        5.08942          16.378          1.0487 
        5.10513         16.2437         1.04048 
        5.12084         16.1172         1.03236 
        5.13656         15.9824         1.02432 
        5.15225         15.8612         1.01638 
        5.16796         15.7094         1.00851 
        5.18369          15.612         1.00071 
         5.1994         15.5456        0.993017 
        5.21509         15.3908        0.985408 
        5.23079         15.2867         0.97787 
        5.24649         15.1756        0.970416 
        5.26217         15.0486        0.963045 
        5.27788         14.9466        0.955741 
        5.29359         14.8191        0.948511 
        5.30933         14.7285        0.941345 
        5.32504         14.6004        0.934265 
        5.34073         14.5245        0.927266 
        5.35646         14.4123        0.920324 
        5.37218         14.2717        0.913452 
        5.38789         14.1894        0.906661 
        5.40357         14.0709        0.899947 
        5.41929         13.9882        0.893286 
        5.43502         13.8746        0.886691 
         5.4507          13.795        0.880179 
        5.46639         13.6772        0.873732 
        5.48212          13.554        0.867333 
        5.49786         13.4735        0.860992 
        5.51353         13.3751        0.854745 
        5.52921         13.2956        0.848553 
        5.54495         13.2138        0.842405 
        5.56066         13.1189        0.836324 
        5.57637          12.999        0.830304 
        5.59207          12.913        0.824349 
        5.60778         12.8121         0.81845 
        5.62346         12.7398        0.812616 
        5.63916         12.6468        0.806834 
        5.65487         12.5433        0.801105 
         5.6706         12.4554        0.795426 
        5.68633         12.3835        0.789799 
        5.70203         12.2846        0.784237 
        5.71773         12.2093        0.778731 
        5.73344         12.1045        0.773274 
        5.74916          12.043        0.767865 
        5.76486         11.9513        0.762514 
        5.78054         11.8667        0.757223 
        5.79626         11.7909        0.751967 
          5.812         11.6974        0.746756 
         5.8277         11.6055         0.74161 
        5.84339          11.521        0.736511 
        5.85911          11.469        0.731451 
        5.87484         11.3626         0.72644 
        5.89053         11.2824        0.721485 
        5.90623         11.2091        0.716574 
        5.92195         11.1205          0.7117 
        5.93767         11.0651        0.706874 
        5.95336         10.9951        0.702101 
        5.96905         10.9037        0.697374 
        5.98476         10.8424        0.692683 
        6.00048         10.7734        0.688035 
        6.01617         10.6955        0.683435 
        6.03185         10.6168        0.678882 
        6.04756         10.5309         0.67436 
        6.06331         10.4697         0.66987 
        6.07903         10.4097         0.66543 
        6.09473         10.3423        0.661034 
        6.11044         10.2625        0.656674 
        6.12616          10.196        0.652354 
        6.14186         10.1158        0.648077 
        6.15755         10.0682        0.643839 
        6.17326         9.99691        0.639635 
        6.18898         9.92564        0.635467 
        6.20467         9.86259        0.631343 
        6.22036         9.78259        0.627256 
         6.2361         9.74606        0.623195 
         6.2518         9.67264        0.619176 
        6.26748         9.60261        0.615201 
        6.28319         9.55736         0.61125 
        6.29893         9.49368         0.60733 
        6.31463         9.41868        0.603452 
        6.33033         9.37087        0.599608 
        6.34604         9.31333        0.595795 
        6.36177         9.22638        0.592012 
        6.37747         9.17594        0.588268 
