# k  (h/Mpc)    Pcb(k)  (Mpc/h)^3    Pcb_linear(k) (Mpc/h)^3   ShotnoiseSubtracted = true
      0.0200456         1802.71         1823.75 
      0.0350414          1314.4         1294.05 
      0.0492313         953.753         952.065 
      0.0637834         772.973         783.694 
      0.0800726         586.188         593.408 
       0.096163         439.353         430.546 
       0.111083         364.495         356.225 
       0.126058         308.959         310.968 
       0.142273         249.549         249.754 
       0.158546         202.127         198.994 
        0.17375         178.595         174.506 
       0.188953         158.576         155.483 
       0.204907         131.068         131.527 
       0.220756         115.004         111.857 
        0.23588          102.87         100.396 
         0.2514          92.607         90.4823 
       0.267535         83.1666         79.2927 
       0.283568         72.9594         69.9167 
       0.299022         67.0544          63.471 
       0.314451         62.7891         57.8665 
       0.330372         55.5801         52.0751 
       0.346141         50.5475          47.089 
       0.361624         46.4503         43.1984 
       0.377134         42.4907         39.7524 
       0.392932         40.6225         36.4097 
       0.408854         36.7818           33.41 
       0.424564          35.052         30.8938 
       0.440253         31.9673         28.6502 
       0.455999         29.1144         26.5563 
       0.471626         27.3754         24.6747 
        0.48727         26.4412         23.0074 
       0.502856         24.7128         21.5034 
       0.518488         22.8801         20.1126 
       0.534347         21.4306          18.821 
       0.550082         20.5435         17.6615 
       0.565732         19.6594         16.6065 
       0.581496         18.4509         15.6263 
       0.597222         17.3672         14.7242 
       0.612804         16.4187         13.9033 
       0.628434         15.9953         13.1439 
       0.644267         15.1288         12.4317 
       0.660051         14.3049         11.7736 
       0.675724         13.5598         11.1668 
       0.691403         13.1719         10.6022 
       0.707174         12.5523         10.0733 
       0.722871         12.1591         9.58259 
        0.73838         11.4292         9.12968 
       0.754018         10.8523         8.70255 
       0.769845         10.4517         8.29803 
        0.78569         10.1511         7.91879 
       0.801365         9.69702         7.56691 
       0.817031         9.34951         7.23661 
       0.832809         8.95456         6.92388 
       0.848511         8.68023         6.63099 
       0.864097         8.35721         6.35701 
       0.879701         8.16735          6.0982 
       0.895507         7.84274         5.85072 
       0.911279         7.50994         5.61745 
        0.92691         7.30629          5.3988 
       0.942635         7.05835         5.19055 
       0.958396          6.8148         4.99282 
       0.974128         6.64015         4.80572 
       0.989692         6.31789         4.63003 
        1.00528         6.23735         4.46284 
        1.02113         6.02057         4.30127 
        1.03692         5.86505         4.14828 
        1.05264         5.67034         4.00342 
        1.06832         5.52567         3.86568 
        1.08405         5.37296         3.73405 
        1.09979         5.22672         3.60845 
        1.11537         5.08325         3.48985 
        1.13105         4.94382         3.37587 
        1.14679         4.82247         3.26653 
        1.16256         4.67856          3.1618 
        1.17828         4.59732           3.062 
        1.19395         4.44427         2.96683 
         1.2097         4.30816         2.87521 
        1.22537         4.19344         2.78789 
          1.241         4.09379         2.70444 
        1.25666         4.05884          2.6242 
        1.27241         3.96107         2.54683 
        1.28819           3.799         2.47243 
        1.30392         3.72313         2.40121 
        1.31957         3.65752         2.33311 
        1.33529         3.55357         2.26739 
        1.35108         3.47785         2.20393 
        1.36674         3.38642         2.14335 
         1.3824         3.34809         2.08509 
        1.39811         3.26207          2.0288 
        1.41389         3.17397         1.97436 
        1.42964         3.12248         1.92201 
        1.44531         3.05727          1.8718 
        1.46101         3.00883         1.82327 
        1.47667         2.93769          1.7766 
        1.49229         2.84599         1.73169 
        1.50793         2.78584         1.68827 
        1.52367         2.73665         1.64605 
        1.53953         2.67503         1.60499 
        1.55526          2.6751         1.56566 
        1.57092         2.59542          1.5278 
        1.58662         2.56204         1.49109 
        1.60235         2.49474         1.45552 
        1.61809         2.45052         1.42108 
        1.63369         2.40391         1.38806 
        1.64941         2.36228         1.35585 
        1.66519         2.32872         1.32454 
        1.68085         2.27649         1.29444 
        1.69652         2.23823         1.26526 
        1.71228         2.20017         1.23681 
        1.72806          2.1658         1.20921 
        1.74368          2.1279         1.18273 
        1.75933         2.09507         1.15698 
        1.77505         2.05439         1.13188 
        1.79081         2.01931         1.10747 
         1.8065         1.99066         1.08388 
        1.82218         1.94674           1.061 
        1.83797         1.91442         1.03862 
        1.85367         1.88748           1.017 
        1.86928         1.86113        0.996131 
        1.88497         1.82068        0.975728 
        1.90073         1.80507        0.955818 
        1.91647         1.76996        0.936479 
        1.93218         1.74369        0.917713 
        1.94787         1.72065        0.899487 
        1.96363         1.69557        0.881682 
        1.97935         1.66603        0.864392 
        1.99499         1.64173        0.847662 
        2.01064         1.62018        0.831348 
         2.0264          1.5902        0.815359 
        2.04216         1.57141        0.799796 
        2.05781         1.54445        0.784736 
        2.07353         1.53228        0.770008 
        2.08928         1.50578        0.755624 
        2.10499         1.47834        0.741644 
        2.12065         1.46687        0.728058 
        2.13633         1.44357        0.714798 
        2.15211          1.4182        0.701782 
        2.16785         1.40328        0.689125 
        2.18349         1.37941        0.676857 
        2.19916         1.36998        0.664861 
        2.21489         1.35347        0.653115 
        2.23063         1.32425        0.641643 
         2.2463         1.30349        0.630496 
        2.26194         1.29522        0.619641 
        2.27765         1.26749        0.608984 
        2.29341         1.25636        0.598549 
        2.30914           1.237        0.588379 
        2.32486         1.23092         0.57845 
        2.34061         1.21279        0.568732 
        2.35635          1.1965        0.559244 
        2.37203           1.183        0.550005 
        2.38768         1.16723        0.540992 
        2.40339         1.15396        0.532148 
        2.41914         1.14062         0.52348 
        2.43483          1.1274        0.515035 
         2.4505         1.11069        0.506789 
        2.46622         1.09596        0.498694 
        2.48195         1.08641        0.490774 
        2.49759         1.06987        0.483068 
        2.51328         1.05937        0.475506 
        2.52906         1.05066        0.468058 
        2.54479         1.03394        0.460796 
        2.56049         1.02455        0.453701 
        2.57618         1.01189        0.446761 
        2.59189         1.00298        0.439955 
        2.60758        0.988857          0.4333 
        2.62325         0.97711        0.426791 
        2.63898        0.966422        0.420392 
        2.65468        0.950853        0.414136 
        2.67044        0.948555        0.407981 
        2.68618        0.938055        0.401964 
        2.70184        0.926778        0.396092 
        2.71755        0.920318        0.390321 
        2.73329        0.904345        0.384657 
        2.74897          0.8963        0.379122 
        2.76462        0.886533        0.373708 
        2.78034        0.882606        0.368377 
        2.79607        0.869636        0.363143 
        2.81179        0.859669        0.358017 
        2.82749        0.850051        0.352995 
        2.84321        0.843131        0.348063 
        2.85893        0.833411        0.343226 
        2.87462        0.825805        0.338488 
        2.89033        0.818498        0.333836 
        2.90605        0.811364        0.329266 
        2.92176        0.803253        0.324784 
        2.93747        0.796226        0.320386 
        2.95318        0.785325        0.316069 
        2.96891        0.783213        0.311829 
        2.98456          0.7702        0.307685 
        3.00023        0.763445         0.30361 
        3.01596        0.755528        0.299595 
        3.03164        0.750468        0.295665 
        3.04738        0.743716        0.291792 
         3.0631         0.73458         0.28799 
        3.07883        0.728861        0.284255 
        3.09456        0.721269        0.280587 
        3.11026        0.717397        0.276989 
        3.12596        0.709102        0.273453 
        3.14163        0.706288        0.269988 
        3.15734        0.697203        0.266573 
        3.17308        0.691954         0.26321 
        3.18879        0.687518        0.259913 
        3.20447        0.680619        0.256677 
         3.2202        0.671861        0.253486 
         3.2359        0.667358        0.250354 
        3.25157        0.660972        0.247282 
        3.26729        0.657045        0.244253 
        3.28304        0.651771        0.241268 
        3.29877        0.645761        0.238336 
        3.31446         0.64229        0.235459 
        3.33014        0.631917        0.232632 
        3.34585        0.629745        0.229847 
        3.36158        0.624441        0.227103 
        3.37727        0.621469        0.224412 
        3.39294        0.614111        0.221766 
        3.40867        0.611322        0.219154 
        3.42439        0.607221        0.216585 
        3.44008        0.600764        0.214062 
        3.45578        0.595832        0.211577 
        3.47153        0.592598        0.209125 
        3.48724        0.587014        0.206717 
        3.50292         0.58139        0.204351 
        3.51859        0.580715        0.202024 
        3.53431        0.573052        0.199726 
        3.55007        0.570357        0.197457 
        3.56577        0.566664        0.195233 
        3.58146        0.562987        0.193043 
        3.59719        0.558326        0.190882 
        3.61292        0.553137        0.188754 
        3.62859        0.549847        0.186666 
        3.64429        0.544897        0.184606 
        3.66003        0.541412        0.182571 
        3.67578        0.537695        0.180567 
        3.69146        0.535394          0.1786 
        3.70712        0.531295        0.176666 
        3.72284        0.527236        0.174753 
        3.73853        0.522537        0.172872 
        3.75422        0.520461        0.171017 
        3.76993        0.515752        0.169188 
        3.78564        0.512663        0.167386 
        3.80137        0.509544        0.165608 
        3.81707        0.504988        0.163859 
        3.83279        0.501923        0.162133 
        3.84853        0.498312        0.160429 
        3.86424         0.49431        0.158753 
        3.87992        0.493436        0.157104 
        3.89561        0.489297        0.155477 
        3.91134        0.484164         0.15387 
        3.92704        0.482193        0.152288 
        3.94273        0.478731        0.150729 
        3.95845        0.476189        0.149189 
        3.97418        0.473305         0.14767 
        3.98988         0.47054        0.146174 
        4.00554         0.46558        0.144703 
        4.02125         0.46328        0.143248 
        4.03698        0.458838         0.14181 
        4.05268        0.455265        0.140395 
        4.06839        0.451521        0.138998 
         4.0841        0.447007        0.137621 
        4.09983        0.444008         0.13626 
        4.11555        0.440408        0.134918 
        4.13124        0.436663        0.133598 
        4.14693        0.435215        0.132294 
        4.16266        0.428726        0.131005 
        4.17839        0.425595        0.129733 
        4.19408        0.424321        0.128481 
        4.20977        0.420614        0.127245 
        4.22551        0.418091        0.126021 
        4.24123        0.414641        0.124816 
        4.25691        0.412128        0.123629 
        4.27259        0.408802        0.122457 
        4.28831        0.406774        0.121298 
        4.30404        0.404762        0.120153 
        4.31974         0.40139        0.119024 
        4.33543        0.398461        0.117911 
        4.35116        0.396601         0.11681 
        4.36688        0.392841        0.115722 
        4.38255        0.391893        0.114653 
        4.39825        0.389415        0.113595 
        4.41398        0.386337        0.112547 
         4.4297        0.386278        0.111515 
        4.44541        0.382525        0.110495 
        4.46111        0.380361        0.109488 
        4.47683        0.378813        0.108494 
        4.49251        0.377161        0.107513 
        4.50819        0.375815        0.106545 
         4.5239         0.37374        0.105587 
        4.53962        0.370583         0.10464 
        4.55535        0.371027        0.103704 
        4.57106        0.369057        0.102781 
        4.58678        0.367318        0.101868 
         4.6025        0.365931        0.100967 
        4.61821        0.364453        0.100076 
        4.63391        0.364803       0.0991975 
         4.6496        0.361784       0.0983295 
        4.66532        0.360816       0.0974706 
        4.68103        0.359494       0.0966222 
        4.69673        0.358067       0.0957847 
        4.71241        0.358045       0.0949578 
        4.72811        0.356662       0.0941393 
        4.74384        0.355829       0.0933293 
        4.75955        0.355153       0.0925301 
        4.77525        0.353544       0.0917405 
        4.79096        0.353507       0.0909592 
        4.80669         0.35186       0.0901865 
         4.8224        0.350761       0.0894236 
        4.83809        0.350007       0.0886703 
        4.85379        0.350494       0.0879251 
         4.8695        0.349998       0.0871879 
        4.88521        0.349926       0.0864593 
        4.90093        0.348587        0.085739 
        4.91663        0.348888       0.0850274 
        4.93234        0.347366       0.0843231 
        4.94807        0.347708       0.0836262 
        4.96377        0.348325       0.0829385 
        4.97943        0.346684       0.0822599 
        4.99514         0.34675       0.0815871 
        5.01086        0.347348       0.0809212 
        5.02654        0.347452       0.0802645 
        5.04227        0.346644        0.079613 
          5.058        0.347254       0.0789685 
        5.07371         0.34675       0.0783322 
        5.08942        0.348529       0.0777029 
        5.10513        0.347731       0.0770804 
        5.12084        0.347027       0.0764643 
        5.13656        0.348178        0.075855 
        5.15225        0.348579       0.0752534 
        5.16796        0.348931       0.0746572 
        5.18369        0.348401        0.074067 
         5.1994        0.349566       0.0734842 
        5.21509         0.35014       0.0729081 
        5.23079        0.349669       0.0723374 
        5.24649        0.351572       0.0717733 
        5.26217        0.351116       0.0712156 
        5.27788        0.352862       0.0706629 
        5.29359        0.353267        0.070116 
        5.30933        0.353424       0.0695741 
        5.32504        0.354297       0.0690387 
        5.34073        0.355513       0.0685095 
        5.35646        0.355736       0.0679848 
        5.37218        0.357628       0.0674654 
        5.38789        0.356408       0.0669523 
        5.40357        0.358424        0.066445 
        5.41929        0.359957       0.0659419 
        5.43502        0.360923       0.0654438 
         5.4507        0.362248       0.0649521 
        5.46639        0.362476       0.0644653 
        5.48212        0.363774       0.0639823 
        5.49786        0.364988       0.0635037 
        5.51353        0.366349       0.0630323 
        5.52921        0.366481       0.0625652 
        5.54495        0.368305       0.0621014 
        5.56066        0.370039       0.0616428 
        5.57637         0.37038       0.0611888 
        5.59207        0.372871       0.0607398 
        5.60778        0.374269       0.0602951 
        5.62346        0.374332       0.0598554 
        5.63916        0.376281       0.0594197 
        5.65487        0.377337       0.0589881 
         5.6706        0.378226       0.0585602 
        5.68633          0.3814       0.0581364 
        5.70203        0.382297       0.0577176 
        5.71773        0.383223        0.057303 
        5.73344        0.385417       0.0568922 
        5.74916        0.386285        0.056485 
        5.76486        0.387714       0.0560824 
        5.78054        0.389392       0.0556842 
        5.79626        0.389907       0.0552888 
          5.812         0.39276       0.0548968 
         5.8277        0.394124       0.0545097 
        5.84339        0.395879       0.0541264 
        5.85911        0.398123       0.0537459 
        5.87484         0.39878       0.0533692 
        5.89053         0.40218       0.0529968 
        5.90623        0.403614       0.0526277 
        5.92195        0.404108       0.0522615 
        5.93767        0.406077        0.051899 
        5.95336         0.40743       0.0515405 
        5.96905        0.408522       0.0511855 
        5.98476        0.409266       0.0508333 
        6.00048        0.411552       0.0504842 
        6.01617        0.413086       0.0501389 
        6.03185        0.415196       0.0497973 
        6.04756        0.416235       0.0494579 
        6.06331        0.419269        0.049121 
        6.07903        0.420065       0.0487879 
        6.09473        0.422586       0.0484582 
        6.11044         0.42213       0.0481313 
        6.12616        0.424929       0.0478073 
        6.14186        0.425645       0.0474867 
        6.15755        0.428861        0.047169 
        6.17326         0.43026       0.0468539 
        6.18898        0.431019       0.0465415 
        6.20467        0.434239       0.0462326 
        6.22036        0.433388       0.0459264 
         6.2361        0.436268       0.0456222 
         6.2518        0.437554       0.0453212 
        6.26748        0.439465       0.0450235 
        6.28319        0.441554       0.0447277 
        6.29893        0.443667       0.0444343 
        6.31463         0.44569        0.044144 
        6.33033        0.444811       0.0438564 
        6.34604        0.448275       0.0435711 
        6.36177        0.448561        0.043288 
        6.37747        0.450769        0.043008 
