# k  (h/Mpc)    Pcb(k)  (Mpc/h)^3    Pcb_linear(k) (Mpc/h)^3   ShotnoiseSubtracted = true
      0.0200456         203.457         205.959 
      0.0350414         146.338         146.139 
      0.0492313         107.888         107.518 
      0.0637834         88.7282         88.5037 
      0.0800726         67.3924         67.0145 
       0.096163         48.7645         48.6222 
       0.111083         40.1049          40.229 
       0.126058         35.0962         35.1181 
       0.142273         28.3796         28.2051 
       0.158546         22.6408         22.4727 
        0.17375         19.6391         19.7073 
       0.188953         17.5514         17.5589 
       0.204907         15.0841         14.8536 
       0.220756         12.7342         12.6322 
        0.23588         11.3882         11.3379 
         0.2514         10.2191         10.2183 
       0.267535         8.99053         8.95465 
       0.283568         7.94439          7.8958 
       0.299022         7.21812         7.16788 
       0.314451         6.50974         6.53496 
       0.330372         5.89817         5.88092 
       0.346141         5.33577         5.31783 
       0.361624         4.90562         4.87846 
       0.377134         4.53139          4.4893 
       0.392932         4.07831         4.11181 
       0.408854         3.80791         3.77305 
       0.424564         3.49872         3.48889 
       0.440253         3.24795         3.23552 
       0.455999         3.02706         2.99905 
       0.471626         2.82258         2.78655 
        0.48727         2.61499         2.59827 
       0.502856         2.43641         2.42841 
       0.518488         2.30499         2.27134 
       0.534347         2.17062         2.12548 
       0.550082         2.00547         1.99454 
       0.565732         1.86424          1.8754 
       0.581496         1.78331          1.7647 
       0.597222         1.68519         1.66283 
       0.612804         1.58271         1.57012 
       0.628434         1.50959         1.48436 
       0.644267         1.42046         1.40393 
       0.660051         1.34068         1.32961 
       0.675724         1.27593         1.26108 
       0.691403         1.21702         1.19732 
       0.707174         1.15157          1.1376 
       0.722871         1.09002         1.08218 
        0.73838         1.04701         1.03103 
       0.754018         1.00443        0.982792 
       0.769845        0.953857        0.937109 
        0.78569        0.909061        0.894281 
       0.801365        0.867006        0.854543 
       0.817031        0.831108        0.817242 
       0.832809        0.795275        0.781925 
       0.848511        0.759041        0.748848 
       0.864097        0.724058        0.717907 
       0.879701          0.6944         0.68868 
       0.895507        0.671768        0.660731 
       0.911279        0.646243        0.634388 
        0.92691        0.619043        0.609695 
       0.942635        0.595531        0.586177 
       0.958396        0.570808        0.563847 
       0.974128        0.549475        0.542717 
       0.989692        0.531616        0.522876 
        1.00528         0.51295        0.503995 
        1.02113        0.489998        0.485749 
        1.03692        0.476111        0.468472 
        1.05264        0.459292        0.452112 
        1.06832        0.443989        0.436557 
        1.08405        0.425762        0.421692 
        1.09979         0.41179        0.407508 
        1.11537        0.401542        0.394115 
        1.13105        0.387966        0.381242 
        1.14679        0.377222        0.368894 
        1.16256        0.361264        0.357067 
        1.17828        0.350195        0.345796 
        1.19395         0.33852        0.335048 
         1.2097        0.326959        0.324702 
        1.22537        0.320222         0.31484 
          1.241        0.309699        0.305417 
        1.25666        0.302363        0.296355 
        1.27241        0.291232        0.287617 
        1.28819        0.282693        0.279215 
        1.30392        0.274938        0.271173 
        1.31957        0.267548        0.263482 
        1.33529        0.259045         0.25606 
        1.35108        0.251795        0.248894 
        1.36674        0.242807        0.242052 
         1.3824        0.239522        0.235473 
        1.39811        0.231518        0.229115 
        1.41389        0.225729        0.222968 
        1.42964        0.220649        0.217055 
        1.44531        0.212926        0.211385 
        1.46101        0.208447        0.205905 
        1.47667        0.201295        0.200635 
        1.49229        0.197598        0.195562 
        1.50793        0.191571        0.190659 
        1.52367        0.187421        0.185891 
        1.53953        0.182964        0.181255 
        1.55526        0.178531        0.176812 
        1.57092        0.172884        0.172536 
        1.58662        0.169642        0.168391 
        1.60235        0.166076        0.164374 
        1.61809        0.160507        0.160485 
        1.63369        0.158453        0.156756 
        1.64941        0.154179        0.153119 
        1.66519        0.150087        0.149583 
        1.68085        0.146301        0.146183 
        1.69652        0.142903        0.142888 
        1.71228        0.140612        0.139675 
        1.72806        0.136126        0.136558 
        1.74368        0.134159        0.133567 
        1.75933        0.130968         0.13066 
        1.77505        0.127847        0.127825 
        1.79081        0.125632        0.125068 
         1.8065        0.121851        0.122404 
        1.82218        0.119834         0.11982 
        1.83797        0.116971        0.117293 
        1.85367        0.114648        0.114852 
        1.86928        0.112475        0.112495 
        1.88497        0.110261         0.11019 
        1.90073         0.10764        0.107942 
        1.91647        0.105342        0.105758 
        1.93218        0.103004        0.103639 
        1.94787        0.100868         0.10158 
        1.96363       0.0991367       0.0995697 
        1.97935       0.0966085       0.0976172 
        1.99499       0.0950505       0.0957278 
        2.01064       0.0933364       0.0938854 
         2.0264       0.0913716       0.0920797 
        2.04216       0.0898556       0.0903222 
        2.05781       0.0879473       0.0886214 
        2.07353       0.0857148       0.0869582 
        2.08928       0.0842144       0.0853338 
        2.10499       0.0824747        0.083755 
        2.12065        0.081383       0.0822207 
        2.13633       0.0793646       0.0807233 
        2.15211       0.0785046       0.0792534 
        2.16785       0.0767413        0.077824 
        2.18349       0.0749151       0.0764386 
        2.19916       0.0742625       0.0750838 
        2.21489       0.0728586       0.0737573 
        2.23063       0.0714313       0.0724617 
         2.2463       0.0699118       0.0712029 
        2.26194       0.0685647        0.069977 
        2.27765       0.0673388       0.0687736 
        2.29341       0.0664871       0.0675951 
        2.30914       0.0649712       0.0664466 
        2.32486       0.0638721       0.0653252 
        2.34061        0.062904       0.0642277 
        2.35635       0.0616427       0.0631563 
        2.37203       0.0606899       0.0621129 
        2.38768       0.0595554       0.0610951 
        2.40339       0.0585484       0.0600963 
        2.41914       0.0578295       0.0591174 
        2.43483       0.0565207       0.0581637 
         2.4505        0.055475       0.0572324 
        2.46622        0.054591       0.0563183 
        2.48195       0.0536315       0.0554239 
        2.49759       0.0531146       0.0545536 
        2.51328       0.0522957       0.0536997 
        2.52906       0.0512784       0.0528585 
        2.54479        0.050359       0.0520384 
        2.56049       0.0495745       0.0512372 
        2.57618        0.048821       0.0504534 
        2.59189       0.0480336       0.0496848 
        2.60758        0.047466       0.0489333 
        2.62325       0.0465614       0.0481982 
        2.63898        0.045829       0.0474755 
        2.65468       0.0449353       0.0467691 
        2.67044       0.0445396       0.0460739 
        2.68618       0.0437538       0.0453944 
        2.70184       0.0429946       0.0447313 
        2.71755        0.042227       0.0440796 
        2.73329       0.0417074       0.0434399 
        2.74897       0.0412055       0.0428149 
        2.76462       0.0404396       0.0422034 
        2.78034        0.039892       0.0416014 
        2.79607       0.0392885       0.0410104 
        2.81179       0.0387365       0.0404314 
        2.82749       0.0380685       0.0398643 
        2.84321       0.0376079       0.0393073 
        2.85893       0.0370532        0.038761 
        2.87462       0.0367027        0.038226 
        2.89033       0.0360263       0.0377006 
        2.90605       0.0353873       0.0371845 
        2.92176       0.0350705       0.0366783 
        2.93747       0.0344745       0.0361817 
        2.95318        0.033913       0.0356942 
        2.96891       0.0335319       0.0352153 
        2.98456       0.0331452       0.0347474 
        3.00023       0.0325534       0.0342871 
        3.01596       0.0321014       0.0338338 
        3.03164       0.0318234       0.0333899 
        3.04738       0.0312892       0.0329526 
         3.0631       0.0307568       0.0325232 
        3.07883       0.0303437       0.0321014 
        3.09456       0.0301109       0.0316871 
        3.11026       0.0296272       0.0312808 
        3.12596       0.0293489       0.0308815 
        3.14163       0.0288826       0.0304901 
        3.15734       0.0285538       0.0301045 
        3.17308       0.0281227       0.0297247 
        3.18879        0.027694       0.0293524 
        3.20447       0.0274723       0.0289869 
         3.2202       0.0270901       0.0286265 
         3.2359       0.0268197       0.0282729 
        3.25157       0.0263484        0.027926 
        3.26729        0.026056       0.0275839 
        3.28304        0.025771       0.0272467 
        3.29877       0.0254645       0.0269157 
        3.31446       0.0250983       0.0265908 
        3.33014       0.0248205       0.0262715 
        3.34585       0.0245093        0.025957 
        3.36158       0.0241539       0.0256471 
        3.37727       0.0239612       0.0253432 
        3.39294        0.023694       0.0250444 
        3.40867       0.0233493       0.0247494 
        3.42439       0.0231206       0.0244593 
        3.44008       0.0228429       0.0241743 
        3.45578       0.0226399       0.0238937 
        3.47153       0.0223222       0.0236168 
        3.48724       0.0222228       0.0233448 
        3.50292       0.0217956       0.0230777 
        3.51859       0.0215227       0.0228149 
        3.53431       0.0213978       0.0225553 
        3.55007         0.02114       0.0222991 
        3.56577       0.0209608       0.0220479 
        3.58146       0.0206282       0.0218006 
        3.59719       0.0205074       0.0215566 
        3.61292       0.0201887       0.0213163 
        3.62859       0.0199857       0.0210805 
        3.64429       0.0198402       0.0208479 
        3.66003       0.0195805        0.020618 
        3.67578       0.0194133       0.0203917 
        3.69146       0.0192417       0.0201696 
        3.70712       0.0190803       0.0199512 
        3.72284       0.0188475       0.0197351 
        3.73853       0.0186226       0.0195227 
        3.75422       0.0185283       0.0193132 
        3.76993       0.0182726       0.0191067 
        3.78564       0.0181361       0.0189032 
        3.80137       0.0179332       0.0187023 
        3.81707       0.0177111       0.0185048 
        3.83279       0.0176033       0.0183099 
        3.84853       0.0174469       0.0181175 
        3.86424       0.0172706       0.0179283 
        3.87992       0.0171247        0.017742 
        3.89561       0.0169819       0.0175583 
        3.91134       0.0168342       0.0173768 
        3.92704       0.0166115       0.0171981 
        3.94273        0.016479       0.0170221 
        3.95845       0.0163586       0.0168481 
        3.97418        0.016234       0.0166766 
        3.98988       0.0160436       0.0165077 
        4.00554       0.0158666       0.0163415 
        4.02125       0.0156815       0.0161772 
        4.03698       0.0155295       0.0160148 
        4.05268       0.0153247        0.015855 
        4.06839       0.0151155       0.0156973 
         4.0841        0.014923       0.0155418 
        4.09983       0.0147124       0.0153881 
        4.11555       0.0146024       0.0152365 
        4.13124       0.0144121       0.0150874 
        4.14693       0.0141678       0.0149402 
        4.16266       0.0140208       0.0147945 
        4.17839       0.0138826       0.0146509 
        4.19408       0.0137604       0.0145095 
        4.20977       0.0135958       0.0143699 
        4.22551       0.0134142       0.0142318 
        4.24123       0.0132931       0.0140956 
        4.25691       0.0131616       0.0139616 
        4.27259       0.0130409       0.0138293 
        4.28831       0.0129749       0.0136984 
        4.30404       0.0128267        0.013569 
        4.31974       0.0127034       0.0134416 
        4.33543       0.0126176       0.0133159 
        4.35116       0.0125073       0.0131915 
        4.36688       0.0124199       0.0130687 
        4.38255       0.0123146       0.0129479 
        4.39825       0.0122804       0.0128284 
        4.41398       0.0122347       0.0127102 
         4.4297       0.0121372       0.0125935 
        4.44541        0.012077       0.0124783 
        4.46111       0.0119968       0.0123647 
        4.47683       0.0119727       0.0122523 
        4.49251       0.0118928       0.0121416 
        4.50819       0.0118558       0.0120323 
         4.5239       0.0118075       0.0119242 
        4.53962       0.0118145       0.0118172 
        4.55535       0.0117866       0.0117115 
        4.57106       0.0117884       0.0116072 
        4.58678       0.0117374       0.0115042 
         4.6025       0.0117537       0.0114023 
        4.61821       0.0117732       0.0113018 
        4.63391       0.0117421       0.0112025 
         4.6496       0.0117166       0.0111045 
        4.66532       0.0117356       0.0110075 
        4.68103       0.0117569       0.0109117 
        4.69673       0.0117793       0.0108171 
        4.71241       0.0118475       0.0107237 
        4.72811       0.0118382       0.0106313 
        4.74384       0.0118616       0.0105398 
        4.75955       0.0119497       0.0104496 
        4.77525       0.0120007       0.0103604 
        4.79096       0.0120645       0.0102722 
        4.80669       0.0120572       0.0101849 
         4.8224       0.0121968       0.0100987 
        4.83809       0.0122181       0.0100137 
        4.85379       0.0123417      0.00992952 
         4.8695       0.0123665      0.00984626 
        4.88521       0.0124549      0.00976399 
        4.90093       0.0125971      0.00968264 
        4.91663       0.0127183      0.00960228 
        4.93234       0.0127732      0.00952274 
        4.94807       0.0128725      0.00944404 
        4.96377       0.0130073      0.00936637 
        4.97943       0.0131556      0.00928974 
        4.99514       0.0132764      0.00921376 
        5.01086        0.013346      0.00913856 
        5.02654       0.0135595      0.00906439 
        5.04227       0.0136715      0.00899082 
          5.058       0.0138321      0.00891803 
        5.07371       0.0139996      0.00884618 
        5.08942       0.0142863      0.00877511 
        5.10513       0.0144039       0.0087048 
        5.12084       0.0144887      0.00863523 
        5.13656       0.0147454      0.00856643 
        5.15225       0.0149188      0.00849848 
        5.16796       0.0152285      0.00843116 
        5.18369       0.0153514       0.0083645 
         5.1994       0.0155809      0.00829868 
        5.21509       0.0158076      0.00823362 
        5.23079       0.0159649      0.00816918 
        5.24649       0.0162557      0.00810547 
        5.26217        0.016534      0.00804249 
        5.27788       0.0167763      0.00798008 
        5.29359       0.0170691      0.00791831 
        5.30933       0.0172875      0.00785711 
        5.32504       0.0175825      0.00779665 
        5.34073       0.0180173      0.00773689 
        5.35646       0.0182524      0.00767763 
        5.37218        0.018537      0.00761897 
        5.38789       0.0189536      0.00756102 
        5.40357       0.0192631      0.00750374 
        5.41929       0.0195183      0.00744692 
        5.43502       0.0199978      0.00739067 
         5.4507       0.0202976      0.00733514 
        5.46639       0.0207309      0.00728017 
        5.48212        0.020959      0.00722562 
        5.49786       0.0214591      0.00717157 
        5.51353       0.0219892      0.00711833 
        5.52921       0.0223828      0.00706558 
        5.54495       0.0228488      0.00701321 
        5.56066       0.0233434      0.00696141 
        5.57637       0.0237985      0.00691015 
        5.59207        0.024212      0.00685944 
        5.60778       0.0247699      0.00680922 
        5.62346       0.0252664      0.00675957 
        5.63916       0.0257278      0.00671036 
        5.65487       0.0263607      0.00666162 
         5.6706       0.0268227       0.0066133 
        5.68633       0.0274926      0.00656543 
        5.70203       0.0281429      0.00651814 
        5.71773       0.0287934      0.00647132 
        5.73344       0.0293303      0.00642492 
        5.74916        0.030114      0.00637894 
        5.76486        0.030712      0.00633347 
        5.78054       0.0312625      0.00628851 
        5.79626       0.0321218      0.00624385 
          5.812       0.0327689      0.00619958 
         5.8277        0.033802      0.00615587 
        5.84339       0.0342866      0.00611258 
        5.85911       0.0351738      0.00606961 
        5.87484       0.0360173      0.00602707 
        5.89053       0.0369421      0.00598501 
        5.90623       0.0377818      0.00594333 
        5.92195        0.038788      0.00590198 
        5.93767       0.0396829      0.00586104 
        5.95336       0.0406361      0.00582055 
        5.96905       0.0416485      0.00578045 
        5.98476       0.0423362      0.00574068 
        6.00048       0.0435318      0.00570126 
        6.01617       0.0445268      0.00566227 
        6.03185       0.0456013      0.00562368 
        6.04756       0.0470195      0.00558536 
        6.06331       0.0482733      0.00554731 
        6.07903       0.0493152       0.0055097 
        6.09473       0.0506717      0.00547246 
        6.11044       0.0521977      0.00543554 
        6.12616       0.0534678      0.00539896 
        6.14186       0.0547613      0.00536274 
        6.15755         0.05609      0.00532686 
        6.17326       0.0572739      0.00529128 
        6.18898       0.0590517      0.00525601 
        6.20467        0.060825      0.00522112 
        6.22036       0.0624719      0.00518654 
         6.2361       0.0636686      0.00515218 
         6.2518        0.066059      0.00511819 
        6.26748       0.0670684      0.00508458 
        6.28319       0.0695875      0.00505117 
        6.29893       0.0715547      0.00501804 
        6.31463       0.0731849      0.00498525 
        6.33033         0.07514      0.00495277 
        6.34604       0.0769247      0.00492055 
        6.36177       0.0794927      0.00488858 
        6.37747       0.0813164      0.00485696 
