# k  (h/Mpc)    Pcb(k)  (Mpc/h)^3    Pcb_linear(k) (Mpc/h)^3   ShotnoiseSubtracted = true
      0.0200456         34217.5         34880.6 
      0.0350414           25677         24749.6 
      0.0492313         17590.8           18209 
      0.0637834         14036.4         14988.7 
      0.0800726         10587.6         11349.4 
       0.096163         8687.89         8234.51 
       0.111083            7212         6813.07 
       0.126058         5919.14          5947.5 
       0.142273         5118.62         4776.73 
       0.158546         4191.68         3805.91 
        0.17375         3863.76         3337.56 
       0.188953         3730.27         2973.73 
       0.204907         3184.36         2515.56 
       0.220756         2913.66         2139.36 
        0.23588         2611.83         1920.15 
         0.2514         2390.48         1730.54 
       0.267535         2279.17         1516.53 
       0.283568         2070.61         1337.21 
       0.299022         1960.84         1213.93 
       0.314451         2040.33         1106.74 
       0.330372         1869.75         995.976 
       0.346141         1734.66         900.612 
       0.361624         1649.95         826.202 
       0.377134         1610.77         760.294 
       0.392932         1500.13         696.364 
       0.408854         1464.96         638.992 
       0.424564         1430.74         590.868 
       0.440253         1363.45         547.958 
       0.455999         1297.36          507.91 
       0.471626         1291.54         471.922 
        0.48727         1233.16         440.035 
       0.502856         1220.09         411.269 
       0.518488         1160.01         384.668 
       0.534347         1129.41         359.966 
       0.550082         1098.03          337.79 
       0.565732         1062.31         317.613 
       0.581496          1038.6         298.864 
       0.597222         1028.84         281.612 
       0.612804         992.798         265.911 
       0.628434         963.103         251.386 
       0.644267         943.704         237.765 
       0.660051          921.51         225.179 
       0.675724         909.035         213.573 
       0.691403         870.818         202.774 
       0.707174         853.414          192.66 
       0.722871         853.195         183.274 
        0.73838         815.035         174.612 
       0.754018          814.98         166.443 
       0.769845         788.341         158.706 
        0.78569          770.81         151.453 
       0.801365         755.665         144.723 
       0.817031         740.591         138.406 
       0.832809         727.852         132.425 
       0.848511         698.909         126.823 
       0.864097         695.625         121.583 
       0.879701         689.087         116.633 
       0.895507         675.032         111.899 
       0.911279         665.983         107.438 
        0.92691          652.24         103.256 
       0.942635         634.995         99.2732 
       0.958396         632.026         95.4914 
       0.974128         613.302          91.913 
       0.989692         607.805         88.5528 
        1.00528         590.414         85.3552 
        1.02113         578.799          82.265 
        1.03692         570.008          79.339 
        1.05264         561.789         76.5684 
        1.06832         553.754         73.9341 
        1.08405         542.909         71.4164 
        1.09979          532.81         69.0143 
        1.11537         518.586         66.7461 
        1.13105         512.164         64.5661 
        1.14679         505.135         62.4748 
        1.16256         496.577         60.4719 
        1.17828         490.694          58.563 
        1.19395         481.039         56.7428 
         1.2097         469.946         54.9905 
        1.22537         462.317         53.3204 
          1.241         453.806         51.7246 
        1.25666         442.633         50.1898 
        1.27241         439.679           48.71 
        1.28819         432.874         47.2871 
        1.30392         426.098         45.9251 
        1.31957         416.554         44.6225 
        1.33529         411.976         43.3656 
        1.35108           409.1         42.1519 
        1.36674         400.138         40.9932 
         1.3824         395.198          39.879 
        1.39811         388.332         38.8023 
        1.41389         384.504         37.7612 
        1.42964         372.962         36.7598 
        1.44531         371.649         35.7996 
        1.46101         362.805         34.8715 
        1.47667         357.606         33.9789 
        1.49229         355.042         33.1199 
        1.50793         343.789         32.2894 
        1.52367         342.513          31.482 
        1.53953         335.526         30.6967 
        1.55526         328.477         29.9444 
        1.57092         324.712         29.2203 
        1.58662         321.146         28.5183 
        1.60235         315.477         27.8379 
        1.61809         308.691         27.1793 
        1.63369         304.935         26.5478 
        1.64941         302.188         25.9317 
        1.66519         296.669         25.3329 
        1.68085         289.803         24.7572 
        1.69652         286.773         24.1991 
        1.71228         283.367          23.655 
        1.72806         277.362         23.1271 
        1.74368         274.009         22.6206 
        1.75933         270.721         22.1281 
        1.77505          266.32          21.648 
        1.79081         263.514         21.1812 
         1.8065         259.569         20.7301 
        1.82218         254.101         20.2924 
        1.83797         251.313         19.8644 
        1.85367         247.384          19.451 
        1.86928         244.026         19.0518 
        1.88497         241.876         18.6615 
        1.90073         236.539         18.2807 
        1.91647          233.72         17.9109 
        1.93218         230.556          17.552 
        1.94787         228.298         17.2034 
        1.96363         224.811         16.8628 
        1.97935         218.966         16.5322 
        1.99499         217.682         16.2122 
        2.01064         214.205         15.9002 
         2.0264         211.196         15.5944 
        2.04216         208.917         15.2967 
        2.05781         204.623         15.0087 
        2.07353         203.221          14.727 
        2.08928         199.725         14.4519 
        2.10499         198.195         14.1845 
        2.12065         194.361         13.9247 
        2.13633         191.687         13.6711 
        2.15211         189.672         13.4221 
        2.16785         187.045           13.18 
        2.18349         184.197         12.9454 
        2.19916         181.922          12.716 
        2.21489         179.988         12.4913 
        2.23063         176.739         12.2719 
         2.2463         174.441         12.0587 
        2.26194         171.623         11.8511 
        2.27765         169.189         11.6473 
        2.29341         168.283         11.4477 
        2.30914         165.443         11.2532 
        2.32486          164.22         11.0633 
        2.34061         160.712         10.8774 
        2.35635         159.391          10.696 
        2.37203         158.047         10.5193 
        2.38768         155.216         10.3469 
        2.40339         153.218         10.1777 
        2.41914         152.053          10.012 
        2.43483         149.154         9.85043 
         2.4505         147.384         9.69271 
        2.46622           145.8          9.5379 
        2.48195         144.292         9.38643 
        2.49759         142.179         9.23904 
        2.51328         140.054         9.09442 
        2.52906          138.74         8.95196 
        2.54479         136.923         8.81307 
        2.56049         134.745         8.67738 
        2.57618         133.758         8.54464 
        2.59189         132.309         8.41447 
        2.60758         130.543          8.2872 
        2.62325         128.795          8.1627 
        2.63898         127.049         8.04031 
        2.65468         125.166         7.92067 
        2.67044         124.066         7.80294 
        2.68618         122.778         7.68787 
        2.70184         121.513         7.57555 
        2.71755         119.544         7.46519 
        2.73329         118.662         7.35685 
        2.74897         117.151           7.251 
        2.76462         116.042         7.14745 
        2.78034         114.397         7.04549 
        2.79607         113.371         6.94539 
        2.81179         110.993         6.84735 
        2.82749         110.371         6.75129 
        2.84321         108.925         6.65696 
        2.85893         107.545         6.56445 
        2.87462         106.344         6.47385 
        2.89033         105.432         6.38486 
        2.90605         103.787         6.29746 
        2.92176         102.974         6.21173 
        2.93747         101.923         6.12763 
        2.95318         100.676         6.04506 
        2.96891         99.6361         5.96397 
        2.98456         98.8127         5.88471 
        3.00023         97.3708         5.80677 
        3.01596         96.3729         5.72999 
        3.03164         95.2183         5.65481 
        3.04738         94.3504         5.58075 
         3.0631         92.9867         5.50803 
        3.07883         92.4196          5.4366 
        3.09456         91.5168         5.36644 
        3.11026         90.3623         5.29762 
        3.12596         89.0885            5.23 
        3.14163         88.2762         5.16372 
        3.15734         87.1805         5.09842 
        3.17308         86.4089         5.03408 
        3.18879         85.0128         4.97103 
        3.20447         84.3767         4.90914 
         3.2202         83.4349         4.84811 
         3.2359         82.6697         4.78821 
        3.25157         81.8377         4.72947 
        3.26729           80.93         4.67152 
        3.28304          80.325         4.61443 
        3.29877         79.2541         4.55836 
        3.31446         78.2655         4.50334 
        3.33014          77.995         4.44927 
        3.34585           76.95         4.39599 
        3.36158         75.9187         4.34351 
        3.37727         75.2139         4.29204 
        3.39294         74.4397         4.24145 
        3.40867         73.8121         4.19149 
        3.42439         72.9444         4.14235 
        3.44008         72.2183         4.09409 
        3.45578         71.3698         4.04656 
        3.47153         70.6251         3.99968 
        3.48724         69.9205         3.95361 
        3.50292         69.3878         3.90838 
        3.51859         68.7598         3.86387 
        3.53431         67.8533          3.8199 
        3.55007         67.1823         3.77652 
        3.56577         66.5299         3.73397 
        3.58146         65.8165         3.69209 
        3.59719         65.2756         3.65075 
        3.61292         64.5401         3.61006 
        3.62859         63.9979         3.57014 
        3.64429         63.4753         3.53074 
        3.66003         62.7877         3.49181 
        3.67578         61.8912         3.45348 
        3.69146         61.5341         3.41586 
        3.70712         60.9103         3.37887 
        3.72284          60.486         3.34228 
        3.73853         59.6388          3.3063 
        3.75422         59.4016         3.27083 
        3.76993         58.5088         3.23585 
        3.78564         57.9487         3.20139 
        3.80137         57.4141         3.16737 
        3.81707         56.8217         3.13392 
        3.83279         56.4559         3.10092 
        3.84853          55.826         3.06833 
        3.86424         55.4176         3.03628 
        3.87992         54.8194         3.00473 
        3.89561         54.3004         2.97362 
        3.91134         53.7429         2.94289 
        3.92704         53.3838         2.91262 
        3.94273         52.9009          2.8828 
        3.95845         52.2282         2.85335 
        3.97418         51.9016          2.8243 
        3.98988         51.3662         2.79569 
        4.00554           50.86         2.76755 
        4.02125          50.337         2.73972 
        4.03698         49.6624         2.71222 
        4.05268         49.4838         2.68516 
        4.06839          48.897         2.65845 
         4.0841         48.6256         2.63211 
        4.09983         48.1206         2.60608 
        4.11555         47.7461         2.58041 
        4.13124         47.3045         2.55516 
        4.14693         47.0107         2.53022 
        4.16266         46.3909         2.50556 
        4.17839         46.1137         2.48124 
        4.19408         45.6859         2.45729 
        4.20977         45.2126         2.43365 
        4.22551         44.7418         2.41026 
        4.24123         44.3099          2.3872 
        4.25691          43.926          2.3645 
        4.27259         43.7987         2.34208 
        4.28831         43.2648         2.31991 
        4.30404         42.8447         2.29801 
        4.31974         42.3579         2.27643 
        4.33543         42.1141         2.25514 
        4.35116         41.7193         2.23407 
        4.36688         41.4464         2.21328 
        4.38255         40.9387         2.19283 
        4.39825         40.7356         2.17258 
        4.41398         40.3016         2.15256 
         4.4297         40.0335          2.1328 
        4.44541         39.6657         2.11329 
        4.46111         39.3189         2.09405 
        4.47683          38.963         2.07502 
        4.49251         38.5488         2.05627 
        4.50819          38.255         2.03775 
         4.5239         37.9882         2.01944 
        4.53962         37.6608         2.00132 
        4.55535         37.3213         1.98342 
        4.57106         37.0423         1.96576 
        4.58678         36.7262         1.94831 
         4.6025         36.3978         1.93107 
        4.61821         36.0907         1.91403 
        4.63391         35.7119         1.89723 
         4.6496         35.4253         1.88063 
        4.66532         35.1369          1.8642 
        4.68103         34.7418         1.84797 
        4.69673         34.6608         1.83195 
        4.71241         34.3372         1.81614 
        4.72811         34.0486         1.80049 
        4.74384         33.7315         1.78499 
        4.75955         33.5186         1.76971 
        4.77525         33.1631         1.75461 
        4.79096          32.856         1.73966 
        4.80669         32.5658         1.72488 
         4.8224         32.3045         1.71029 
        4.83809         32.1311         1.69589 
        4.85379         31.7783         1.68163 
         4.8695         31.5681         1.66753 
        4.88521         31.3125          1.6536 
        4.90093         31.1266         1.63982 
        4.91663         30.8268         1.62621 
        4.93234         30.6162         1.61274 
        4.94807          30.268         1.59941 
        4.96377         30.1248         1.58626 
        4.97943         29.7885         1.57328 
        4.99514         29.6741         1.56041 
        5.01086         29.3766         1.54768 
        5.02654         29.1275         1.53512 
        5.04227           28.93         1.52266 
          5.058          28.678         1.51033 
        5.07371         28.4016         1.49816 
        5.08942          28.276         1.48613 
        5.10513         27.9345         1.47422 
        5.12084         27.7257         1.46244 
        5.13656         27.5851         1.45078 
        5.15225         27.3369         1.43928 
        5.16796         27.0767         1.42788 
        5.18369         26.8882         1.41659 
         5.1994          26.619         1.40544 
        5.21509         26.4436         1.39442 
        5.23079         26.2568         1.38351 
        5.24649         26.0101         1.37272 
        5.26217         25.8492         1.36205 
        5.27788         25.6985         1.35148 
        5.29359         25.4715         1.34102 
        5.30933         25.2559         1.33066 
        5.32504         25.0783         1.32042 
        5.34073          24.816          1.3103 
        5.35646         24.6095         1.30026 
        5.37218         24.4922         1.29033 
        5.38789         24.2382         1.28051 
        5.40357         24.0882         1.27081 
        5.41929         23.9268         1.26119 
        5.43502         23.8076         1.25166 
         5.4507         23.5666         1.24226 
        5.46639         23.3193         1.23295 
        5.48212         23.2274         1.22371 
        5.49786         23.0366         1.21456 
        5.51353           22.86         1.20554 
        5.52921         22.6923         1.19661 
        5.54495         22.5382         1.18774 
        5.56066         22.3572         1.17896 
        5.57637          22.154         1.17028 
        5.59207         22.0185         1.16169 
        5.60778         21.8072         1.15319 
        5.62346         21.6937         1.14478 
        5.63916         21.4947         1.13645 
        5.65487         21.3708         1.12819 
         5.6706         21.2321         1.12001 
        5.68633         21.0424          1.1119 
        5.70203         20.9047         1.10389 
        5.71773         20.7909         1.09596 
        5.73344         20.5861         1.08811 
        5.74916         20.4398         1.08032 
        5.76486         20.3099         1.07262 
        5.78054         20.1649           1.065 
        5.79626         20.0052         1.05744 
          5.812         19.8366         1.04994 
         5.8277         19.6892         1.04254 
        5.84339         19.5796         1.03521 
        5.85911          19.424         1.02793 
        5.87484         19.3075         1.02073 
        5.89053         19.1818          1.0136 
        5.90623         19.0015         1.00655 
        5.92195         18.8677        0.999542 
        5.93767         18.7327        0.992608 
        5.95336         18.6131        0.985751 
        5.96905         18.4454        0.978961 
        5.98476         18.3025        0.972225 
        6.00048         18.1999        0.965549 
        6.01617         18.0588        0.958945 
        6.03185         17.9557        0.952411 
        6.04756         17.8236        0.945921 
        6.06331         17.6915        0.939477 
        6.07903         17.5531        0.933106 
        6.09473         17.4263          0.9268 
        6.11044         17.3166        0.920547 
        6.12616         17.1853        0.914351 
        6.14186         17.0659        0.908219 
        6.15755         16.9383        0.902142 
        6.17326         16.8187        0.896116 
        6.18898         16.6907        0.890142 
        6.20467         16.6109        0.884233 
        6.22036         16.4564        0.878377 
         6.2361         16.3759        0.872559 
         6.2518          16.308        0.866802 
        6.26748           16.13        0.861109 
        6.28319         16.0397        0.855452 
        6.29893         15.9116         0.84984 
        6.31463         15.7896        0.844287 
        6.33033         15.6999        0.838786 
        6.34604         15.6081        0.833329 
        6.36177         15.4751        0.827916 
        6.37747         15.4125         0.82256 
