# k  (h/Mpc)    Pcb(k)  (Mpc/h)^3    Pcb_linear(k) (Mpc/h)^3   ShotnoiseSubtracted = true
      0.0200456         10198.1         10374.4 
      0.0350414         7168.62         7361.16 
      0.0492313         5374.73         5415.81 
      0.0637834         4544.85         4458.03 
      0.0800726         3457.61         3375.59 
       0.096163         2413.59         2449.15 
       0.111083         1975.99         2026.38 
       0.126058         1797.12         1768.94 
       0.142273         1494.24         1420.72 
       0.158546         1247.55         1131.97 
        0.17375          1026.4         992.675 
       0.188953         977.338         884.462 
       0.204907         895.155          748.19 
       0.220756         759.107         636.298 
        0.23588         673.934           571.1 
         0.2514         588.068         514.707 
       0.267535         562.001         451.055 
       0.283568         508.459          397.72 
       0.299022         474.284         361.054 
       0.314451         441.876         329.173 
       0.330372         406.196         296.228 
       0.346141         366.146         267.865 
       0.361624         351.761         245.733 
       0.377134         327.075         226.131 
       0.392932         306.657         207.116 
       0.408854          293.51         190.052 
       0.424564         279.437         175.739 
       0.440253         267.861         162.976 
       0.455999         251.353         151.065 
       0.471626          233.49         140.362 
        0.48727         226.033         130.877 
       0.502856         217.882         122.322 
       0.518488         214.436          114.41 
       0.534347         202.205         107.063 
       0.550082         188.817         100.467 
       0.565732         184.538          94.466 
       0.581496         175.243         88.8897 
       0.597222         170.397         83.7585 
       0.612804         163.627         79.0888 
       0.628434          158.33         74.7686 
       0.644267         152.872         70.7172 
       0.660051         150.731         66.9739 
       0.675724         146.658         63.5221 
       0.691403         142.037         60.3102 
       0.707174          135.99          57.302 
       0.722871          134.53         54.5104 
        0.73838         131.449          51.934 
       0.754018         126.645         49.5043 
       0.769845         123.344         47.2032 
        0.78569         120.892         45.0459 
       0.801365         117.253         43.0443 
       0.817031         113.169         41.1653 
       0.832809         111.487         39.3864 
       0.848511         108.278         37.7203 
       0.864097         105.795         36.1617 
       0.879701         103.771         34.6895 
       0.895507         101.223         33.2817 
       0.911279          99.359         31.9548 
        0.92691         97.8309          30.711 
       0.942635         95.0111         29.5264 
       0.958396         94.6278         28.4016 
       0.974128         91.9521         27.3372 
       0.989692          89.551         26.3378 
        1.00528         87.6877         25.3868 
        1.02113         86.8179         24.4677 
        1.03692         83.5828         23.5974 
        1.05264         83.3999         22.7734 
        1.06832          81.098         21.9899 
        1.08405         79.8962          21.241 
        1.09979          79.447         20.5266 
        1.11537         76.6497          19.852 
        1.13105         76.5883         19.2036 
        1.14679         75.2819         18.5816 
        1.16256          74.121         17.9859 
        1.17828         72.1038         17.4181 
        1.19395         71.2546         16.8767 
         1.2097         69.4438         16.3556 
        1.22537         69.6102         15.8588 
          1.241         67.7999         15.3842 
        1.25666         66.3731         14.9277 
        1.27241         65.5613         14.4876 
        1.28819         64.3992         14.0644 
        1.30392         63.5684         13.6593 
        1.31957         62.6723         13.2719 
        1.33529          61.508          12.898 
        1.35108          61.127          12.537 
        1.36674         60.3059         12.1924 
         1.3824         58.9972          11.861 
        1.39811         58.3536         11.5408 
        1.41389         57.4526         11.2311 
        1.42964         56.7602         10.9333 
        1.44531          55.647         10.6477 
        1.46101         54.7311         10.3717 
        1.47667         54.6922         10.1062 
        1.49229         53.6554         9.85068 
        1.50793         53.1306         9.60369 
        1.52367         52.1479         9.36355 
        1.53953         51.5122         9.12998 
        1.55526         50.9802         8.90621 
        1.57092         50.6264         8.69084 
        1.58662         49.6871         8.48205 
        1.60235         49.1529         8.27969 
        1.61809         48.4876         8.08381 
        1.63369         47.6183         7.89597 
        1.64941         47.1779         7.71274 
        1.66519         46.2942         7.53464 
        1.68085         45.9688         7.36341 
        1.69652         45.2053         7.19743 
        1.71228           44.89          7.0356 
        1.72806         44.4429         6.87859 
        1.74368         43.7085         6.72793 
        1.75933         43.2864         6.58147 
        1.77505         42.7401         6.43866 
        1.79081         42.1883         6.29982 
         1.8065          41.797         6.16564 
        1.82218         41.1846         6.03548 
        1.83797         40.5977         5.90817 
        1.85367         40.1273         5.78521 
        1.86928         39.6503         5.66647 
        1.88497          39.374         5.55041 
        1.90073         38.8449         5.43715 
        1.91647         38.4226         5.32714 
        1.93218         38.0159          5.2204 
        1.94787         37.5375         5.11672 
        1.96363         37.0927         5.01543 
        1.97935         36.6447         4.91708 
        1.99499         36.2082         4.82191 
        2.01064          35.947         4.72911 
         2.0264         35.2296         4.63815 
        2.04216          34.996         4.54963 
        2.05781         34.5182         4.46396 
        2.07353         34.1845         4.38017 
        2.08928         33.9181         4.29835 
        2.10499         33.4251         4.21883 
        2.12065         33.0251         4.14154 
        2.13633         32.8996         4.06612 
        2.15211         32.4351         3.99208 
        2.16785         31.7981         3.92007 
        2.18349         31.6169         3.85029 
        2.19916         31.3745         3.78205 
        2.21489          30.931         3.71523 
        2.23063          30.604         3.64997 
         2.2463          30.179         3.58657 
        2.26194          29.854         3.52482 
        2.27765         29.5604          3.4642 
        2.29341         29.2495         3.40484 
        2.30914         28.9803         3.34698 
        2.32486         28.5516          3.2905 
        2.34061         28.3505         3.23522 
        2.35635         28.0686         3.18125 
        2.37203         27.7851         3.12869 
        2.38768         27.4291         3.07743 
        2.40339         27.2639         3.02712 
        2.41914         26.9856         2.97781 
        2.43483         26.5094         2.92976 
         2.4505         26.3225         2.88286 
        2.46622          26.093         2.83681 
        2.48195         25.8354         2.79176 
        2.49759         25.5205         2.74792 
        2.51328         25.1774         2.70491 
        2.52906         25.0886         2.66254 
        2.54479         24.6993         2.62123 
        2.56049         24.4656         2.58087 
        2.57618         24.1807         2.54139 
        2.59189         24.0976         2.50268 
        2.60758         23.8115         2.46482 
        2.62325         23.4534         2.42779 
        2.63898         23.3444         2.39139 
        2.65468         23.0033         2.35581 
        2.67044         22.8384         2.32079 
        2.68618         22.5651         2.28656 
        2.70184         22.3171         2.25316 
        2.71755         22.1879         2.22034 
        2.73329         21.9167         2.18811 
        2.74897         21.6545         2.15663 
        2.76462         21.4587         2.12583 
        2.78034         21.3638          2.0955 
        2.79607         21.1198         2.06573 
        2.81179          20.871         2.03657 
        2.82749         20.7092           2.008 
        2.84321         20.4092         1.97995 
        2.85893         20.1936         1.95243 
        2.87462         20.0309         1.92549 
        2.89033         19.8848         1.89902 
        2.90605         19.6822         1.87302 
        2.92176         19.5579         1.84752 
        2.93747         19.3551         1.82251 
        2.95318         19.0752         1.79795 
        2.96891         18.9698         1.77383 
        2.98456          18.732         1.75026 
        3.00023         18.5379         1.72708 
        3.01596          18.362         1.70424 
        3.03164         18.1814         1.68188 
        3.04738         18.0407         1.65986 
         3.0631         17.8859         1.63823 
        3.07883         17.7289         1.61698 
        3.09456         17.5165         1.59611 
        3.11026         17.3587         1.57564 
        3.12596         17.2092         1.55553 
        3.14163         17.0693         1.53582 
        3.15734         16.8868          1.5164 
        3.17308         16.7476         1.49726 
        3.18879         16.5715         1.47851 
        3.20447         16.4152          1.4601 
         3.2202         16.2862         1.44195 
         3.2359         16.0516         1.42413 
        3.25157          16.029         1.40666 
        3.26729         15.8653         1.38943 
        3.28304         15.7123         1.37245 
        3.29877         15.4568         1.35577 
        3.31446         15.3751         1.33941 
        3.33014         15.2185         1.32332 
        3.34585         15.0628         1.30748 
        3.36158         14.9507         1.29187 
        3.37727         14.7909         1.27656 
        3.39294         14.6511         1.26151 
        3.40867         14.5108         1.24665 
        3.42439         14.4224         1.23204 
        3.44008         14.2705         1.21769 
        3.45578         14.1115         1.20355 
        3.47153         14.0129          1.1896 
        3.48724         13.8565          1.1759 
        3.50292         13.7782         1.16245 
        3.51859         13.6258         1.14921 
        3.53431         13.5197         1.13614 
        3.55007         13.3921         1.12323 
        3.56577         13.2614         1.11058 
        3.58146         13.1677         1.09812 
        3.59719         13.0211         1.08583 
        3.61292         12.9068         1.07372 
        3.62859          12.791         1.06185 
        3.64429         12.6816         1.05013 
        3.66003          12.572         1.03855 
        3.67578         12.4676         1.02715 
        3.69146         12.3954         1.01596 
        3.70712         12.2198         1.00496 
        3.72284         12.1773         0.99408 
        3.73853         12.0433        0.983378 
        3.75422         11.8793        0.972828 
        3.76993         11.8184        0.962424 
        3.78564         11.6858        0.952174 
        3.80137         11.6064        0.942057 
        3.81707         11.5106        0.932106 
        3.83279         11.3819        0.922291 
        3.84853         11.2967        0.912599 
        3.86424         11.1873        0.903066 
        3.87992         11.0848        0.893681 
        3.89561         10.9965        0.884429 
        3.91134         10.8974        0.875288 
        3.92704         10.8158        0.866286 
        3.94273         10.7198        0.857419 
        3.95845          10.619        0.848658 
        3.97418         10.5617        0.840018 
        3.98988         10.4366        0.831509 
        4.00554         10.3714         0.82314 
        4.02125         10.2708        0.814861 
        4.03698         10.1849        0.806683 
        4.05268         10.0889        0.798635 
        4.06839         10.0077         0.79069 
         4.0841         9.90529        0.782854 
        4.09983         9.80927        0.775114 
        4.11555         9.74785         0.76748 
        4.13124         9.66861         0.75997 
        4.14693         9.60258        0.752553 
        4.16266         9.50013        0.745217 
        4.17839         9.42876        0.737983 
        4.19408         9.35159         0.73086 
        4.20977         9.27257        0.723828 
        4.22551         9.18111        0.716871 
        4.24123         9.11908        0.710012 
        4.25691         9.03523        0.703261 
        4.27259         8.97035        0.696595 
        4.28831         8.88822        0.690001 
        4.30404         8.81289        0.683486 
        4.31974          8.7413        0.677068 
        4.33543         8.68462        0.670736 
        4.35116         8.60269         0.66447 
        4.36688         8.52905        0.658285 
        4.38255         8.46624        0.652201 
        4.39825         8.41488        0.646181 
        4.41398         8.32152        0.640224 
         4.4297         8.23952        0.634349 
        4.44541         8.17622        0.628547 
        4.46111         8.12639        0.622822 
        4.47683         8.06548        0.617164 
        4.49251         8.01126        0.611587 
        4.50819         7.92575         0.60608 
         4.5239         7.86206        0.600632 
        4.53962         7.82243        0.595244 
        4.55535         7.74275        0.589919 
        4.57106         7.68459        0.584667 
        4.58678         7.60907        0.579477 
         4.6025         7.55972        0.574348 
        4.61821         7.47917        0.569282 
        4.63391         7.43343        0.564283 
         4.6496         7.39299        0.559346 
        4.66532         7.32028         0.55446 
        4.68103          7.2686        0.549634 
        4.69673         7.19842        0.544869 
        4.71241         7.14856        0.540166 
        4.72811         7.07405         0.53551 
        4.74384         7.05217        0.530902 
        4.75955         6.98801        0.526356 
        4.77525         6.93999        0.521864 
        4.79096         6.89075         0.51742 
        4.80669         6.81733        0.513024 
         4.8224         6.77125        0.508685 
        4.83809         6.73251        0.504399 
        4.85379         6.66549        0.500161 
         4.8695         6.61786        0.495967 
        4.88521         6.57684        0.491822 
        4.90093         6.51064        0.487725 
        4.91663         6.46167        0.483677 
        4.93234         6.42339         0.47967 
        4.94807         6.35602        0.475706 
        4.96377         6.31645        0.471794 
        4.97943         6.29404        0.467934 
        4.99514         6.21977        0.464107 
        5.01086         6.16814        0.460319 
        5.02654         6.12391        0.456583 
        5.04227         6.09834        0.452877 
          5.058         6.03781        0.449211 
        5.07371          5.9971        0.445592 
        5.08942         5.94466        0.442011 
        5.10513         5.89705         0.43847 
        5.12084         5.86245        0.434966 
        5.13656          5.8213          0.4315 
        5.15225         5.76843        0.428077 
        5.16796         5.73966        0.424686 
        5.18369         5.68058        0.421329 
         5.1994         5.63325        0.418013 
        5.21509         5.61325        0.414736 
        5.23079         5.55794         0.41149 
        5.24649         5.52284        0.408281 
        5.26217         5.47938        0.405109 
        5.27788         5.43726        0.401965 
        5.29359         5.41357        0.398854 
        5.30933         5.36391        0.395771 
        5.32504         5.32555        0.392725 
        5.34073         5.28861        0.389715 
        5.35646         5.24841         0.38673 
        5.37218         5.22324        0.383776 
        5.38789         5.18628        0.380857 
        5.40357         5.13989        0.377971 
        5.41929         5.10388        0.375109 
        5.43502         5.07291        0.372276 
         5.4507         5.03851        0.369479 
        5.46639         4.99328         0.36671 
        5.48212         4.96377        0.363962 
        5.49786         4.92822        0.361239 
        5.51353         4.88732        0.358558 
        5.52921          4.8641        0.355901 
        5.54495         4.82894        0.353263 
        5.56066         4.79494        0.350654 
        5.57637         4.75288        0.348071 
        5.59207         4.72927        0.345517 
        5.60778         4.69101        0.342988 
        5.62346         4.65877        0.340487 
        5.63916         4.63298        0.338008 
        5.65487         4.59765        0.335553 
         5.6706         4.57306        0.333119 
        5.68633         4.53681        0.330708 
        5.70203         4.51038        0.328325 
        5.71773         4.47695        0.325967 
        5.73344         4.44685         0.32363 
        5.74916         4.41092        0.321314 
        5.76486         4.39605        0.319023 
        5.78054         4.35677        0.316759 
        5.79626         4.33027        0.314509 
          5.812         4.30188         0.31228 
         5.8277         4.27221        0.310078 
        5.84339         4.24557        0.307897 
        5.85911         4.21115        0.305733 
        5.87484          4.1967         0.30359 
        5.89053         4.16118        0.301471 
        5.90623         4.13348        0.299372 
        5.92195         4.10798        0.297289 
        5.93767         4.07314        0.295227 
        5.95336         4.04733        0.293187 
        5.96905         4.03487        0.291168 
        5.98476         4.00163        0.289164 
        6.00048         3.97828        0.287179 
        6.01617         3.94772        0.285214 
        6.03185         3.92409        0.283271 
        6.04756         3.90552        0.281341 
        6.06331         3.87183        0.279424 
        6.07903          3.8472        0.277529 
        6.09473          3.8278        0.275654 
        6.11044         3.79434        0.273794 
        6.12616         3.78054        0.271951 
        6.14186         3.74849        0.270127 
        6.15755         3.73198         0.26832 
        6.17326         3.71139        0.266528 
        6.18898         3.68487        0.264751 
        6.20467         3.66146        0.262993 
        6.22036         3.63299        0.261252 
         6.2361         3.61625        0.259521 
         6.2518         3.58938        0.257809 
        6.26748         3.56531        0.256116 
        6.28319         3.54563        0.254433 
        6.29893          3.5261        0.252764 
        6.31463         3.50057        0.251112 
        6.33033         3.48092        0.249476 
        6.34604         3.46922        0.247853 
        6.36177         3.44058        0.246243 
        6.37747         3.42064         0.24465 
