# k  (h/Mpc)    Pcb(k)  (Mpc/h)^3    Pcb_linear(k) (Mpc/h)^3   ShotnoiseSubtracted = true
      0.0200456         5574.21         5658.99 
      0.0350414         3947.11         4015.35 
      0.0492313         2947.52          2954.2 
      0.0637834         2471.17         2431.75 
      0.0800726         1879.82         1841.31 
       0.096163         1323.31         1335.96 
       0.111083         1082.89         1105.34 
       0.126058         977.112         964.916 
       0.142273         805.841         774.971 
       0.158546         657.592         617.466 
        0.17375           549.4         541.482 
       0.188953         513.244         482.454 
       0.204907         464.112         408.121 
       0.220756         389.307         347.087 
        0.23588         345.704         311.522 
         0.2514         304.384         280.761 
       0.267535          282.04          246.04 
       0.283568         254.258         216.947 
       0.299022         235.019         196.947 
       0.314451         213.492         179.556 
       0.330372         196.617         161.586 
       0.346141         176.535         146.114 
       0.361624          167.32         134.042 
       0.377134             157         123.349 
       0.392932         141.864         112.977 
       0.408854         135.877         103.669 
       0.424564         129.887         95.8616 
       0.440253          121.21            88.9 
       0.455999         113.722         82.4027 
       0.471626         105.159         76.5641 
        0.48727         101.636         71.3907 
       0.502856         96.6843         66.7237 
       0.518488         93.2649         62.4081 
       0.534347         89.2596         58.4004 
       0.550082         82.0977         54.8026 
       0.565732         78.2684         51.5291 
       0.581496         75.4541         48.4874 
       0.597222         72.8612         45.6884 
       0.612804         68.8582         43.1412 
       0.628434         67.1122         40.7846 
       0.644267         64.9131         38.5747 
       0.660051         62.7062         36.5328 
       0.675724         59.9327         34.6499 
       0.691403         58.0887         32.8979 
       0.707174         56.1487         31.2569 
       0.722871         54.4083         29.7342 
        0.73838          52.977         28.3288 
       0.754018         50.3471         27.0035 
       0.769845         49.1656         25.7483 
        0.78569         47.8385         24.5715 
       0.801365         46.0453         23.4797 
       0.817031         44.8546         22.4548 
       0.832809         44.1011         21.4844 
       0.848511         41.8171         20.5756 
       0.864097         40.9189         19.7254 
       0.879701         40.1422         18.9224 
       0.895507         39.5114         18.1544 
       0.911279          38.282         17.4306 
        0.92691          37.372         16.7522 
       0.942635         35.9642          16.106 
       0.958396         35.6818         15.4924 
       0.974128         34.6176         14.9119 
       0.989692         34.0715         14.3667 
        1.00528         33.2933         13.8479 
        1.02113         32.1783         13.3466 
        1.03692         31.4827         12.8719 
        1.05264         31.0937         12.4224 
        1.06832         30.1885          11.995 
        1.08405         29.6937         11.5865 
        1.09979         29.0994         11.1968 
        1.11537         28.2231         10.8288 
        1.13105         28.1506         10.4751 
        1.14679         27.6832         10.1358 
        1.16256         26.8045         9.81088 
        1.17828         26.4029          9.5012 
        1.19395         25.8209         9.20589 
         1.2097         25.5948         8.92159 
        1.22537          25.158         8.65064 
          1.241         24.5531         8.39173 
        1.25666         23.9393         8.14273 
        1.27241         23.6791         7.90265 
        1.28819         23.0493          7.6718 
        1.30392         22.8359         7.45082 
        1.31957         22.6449          7.2395 
        1.33529         22.3407         7.03558 
        1.35108          21.807         6.83867 
        1.36674         21.4381         6.65069 
         1.3824         20.9989         6.46992 
        1.39811         20.8035         6.29524 
        1.41389         20.5655         6.12633 
        1.42964         20.1436         5.96387 
        1.44531         20.0281         5.80808 
        1.46101         19.5022          5.6575 
        1.47667         19.2754         5.51269 
        1.49229         19.0803         5.37332 
        1.50793         18.8009          5.2386 
        1.52367         18.5603         5.10761 
        1.53953          18.372          4.9802 
        1.55526         18.0103         4.85814 
        1.57092         17.7225         4.74066 
        1.58662         17.5328         4.62677 
        1.60235         17.3068         4.51639 
        1.61809         17.0926         4.40954 
        1.63369         16.8866         4.30708 
        1.64941         16.5246         4.20713 
        1.66519         16.4611         4.10998 
        1.68085         16.1859         4.01658 
        1.69652         15.9762         3.92603 
        1.71228         15.8229         3.83776 
        1.72806         15.6119         3.75212 
        1.74368          15.387         3.66994 
        1.75933         15.2267         3.59004 
        1.77505         15.0525         3.51214 
        1.79081         14.8331         3.43641 
         1.8065         14.7482         3.36322 
        1.82218         14.4831         3.29222 
        1.83797         14.2551         3.22277 
        1.85367         14.1295          3.1557 
        1.86928         14.0276         3.09094 
        1.88497         13.7975         3.02762 
        1.90073         13.7719         2.96585 
        1.91647         13.5363         2.90584 
        1.93218         13.3969         2.84761 
        1.94787         13.2784         2.79105 
        1.96363         13.1579          2.7358 
        1.97935         12.9895         2.68216 
        1.99499         12.7912         2.63024 
        2.01064         12.6882         2.57962 
         2.0264         12.5249         2.53001 
        2.04216         12.3954         2.48172 
        2.05781          12.212         2.43499 
        2.07353         12.1192         2.38929 
        2.08928         12.0037         2.34465 
        2.10499         11.8662         2.30128 
        2.12065         11.6775         2.25912 
        2.13633         11.6752         2.21798 
        2.15211         11.4753         2.17759 
        2.16785         11.4392         2.13831 
        2.18349         11.3335         2.10025 
        2.19916         11.1665         2.06302 
        2.21489         11.0858         2.02658 
        2.23063         10.9548         1.99098 
         2.2463         10.8284         1.95639 
        2.26194         10.7312         1.92271 
        2.27765         10.6806         1.88964 
        2.29341         10.5347         1.85726 
        2.30914         10.3796          1.8257 
        2.32486         10.3484         1.79489 
        2.34061         10.2324         1.76474 
        2.35635          10.122          1.7353 
        2.37203         10.0659         1.70663 
        2.38768         9.90855         1.67867 
        2.40339         9.80159         1.65122 
        2.41914         9.71681         1.62433 
        2.43483         9.68186         1.59812 
         2.4505         9.56588         1.57253 
        2.46622         9.47432         1.54742 
        2.48195         9.41975         1.52284 
        2.49759          9.3074         1.49893 
        2.51328         9.19945         1.47547 
        2.52906         9.12976         1.45236 
        2.54479         9.02801         1.42982 
        2.56049         9.01085         1.40781 
        2.57618         8.92489         1.38627 
        2.59189         8.78692         1.36515 
        2.60758         8.77247         1.34451 
        2.62325         8.70608         1.32431 
        2.63898         8.55945         1.30445 
        2.65468         8.48092         1.28504 
        2.67044         8.42148         1.26594 
        2.68618         8.32438         1.24727 
        2.70184          8.2839         1.22905 
        2.71755         8.19787         1.21114 
        2.73329             8.1         1.19357 
        2.74897         8.06143         1.17639 
        2.76462         8.03229         1.15959 
        2.78034         7.87857         1.14305 
        2.79607         7.85517         1.12681 
        2.81179         7.77644         1.11091 
        2.82749         7.74486         1.09532 
        2.84321          7.6597         1.08002 
        2.85893         7.59984         1.06501 
        2.87462          7.5359         1.05031 
        2.89033         7.44057         1.03587 
        2.90605          7.3845         1.02169 
        2.92176         7.34279         1.00778 
        2.93747         7.28171        0.994139 
        2.95318         7.23504        0.980743 
        2.96891         7.16428        0.967587 
        2.98456         7.08578        0.954728 
        3.00023         7.04508        0.942083 
        3.01596         6.99483        0.929626 
        3.03164         6.95784        0.917429 
        3.04738         6.89914        0.905414 
         3.0631         6.81032        0.893616 
        3.07883         6.77948        0.882027 
        3.09456         6.72462        0.870645 
        3.11026         6.65277        0.859479 
        3.12596         6.62531        0.848509 
        3.14163         6.54913        0.837755 
        3.15734         6.51048        0.827161 
        3.17308         6.45977        0.816723 
        3.18879         6.39411        0.806494 
        3.20447         6.35163        0.796453 
         3.2202         6.28605        0.786551 
         3.2359         6.25458        0.776834 
        3.25157         6.20666        0.767303 
        3.26729         6.17318        0.757902 
        3.28304         6.09684        0.748639 
        3.29877         6.05344        0.739542 
        3.31446         6.02063        0.730616 
        3.33014         5.95956        0.721843 
        3.34585         5.95045        0.713201 
        3.36158         5.88836        0.704686 
        3.37727         5.85098        0.696336 
        3.39294         5.80945        0.688128 
        3.40867         5.73798        0.680022 
        3.42439         5.71076         0.67205 
        3.44008         5.65892         0.66422 
        3.45578         5.61669        0.656509 
        3.47153         5.58932        0.648903 
        3.48724         5.54252        0.641429 
        3.50292         5.51541         0.63409 
        3.51859          5.4632        0.626869 
        3.53431         5.41347        0.619737 
        3.55007         5.39376        0.612698 
        3.56577         5.35209        0.605795 
        3.58146         5.31694           0.599 
        3.59719         5.26563        0.592294 
        3.61292         5.24295        0.585692 
        3.62859         5.19586        0.579215 
        3.64429         5.15638        0.572823 
        3.66003         5.10551        0.566507 
        3.67578         5.09362        0.560288 
        3.69146         5.03393        0.554185 
        3.70712         5.02687        0.548184 
        3.72284         4.96418        0.542248 
        3.73853         4.93969        0.536411 
        3.75422          4.8975        0.530656 
        3.76993         4.87821        0.524981 
        3.78564         4.82719         0.51939 
        3.80137         4.80653        0.513871 
        3.81707         4.76698        0.508443 
        3.83279         4.74606        0.503089 
        3.84853         4.69369        0.497803 
        3.86424         4.65787        0.492602 
        3.87992         4.63262        0.487483 
        3.89561           4.597        0.482436 
        3.91134         4.56306         0.47745 
        3.92704         4.53455         0.47254 
        3.94273         4.50054        0.467703 
        3.95845         4.47184        0.462924 
        3.97418         4.44555        0.458211 
        3.98988         4.40727        0.453569 
        4.00554         4.38651        0.449004 
        4.02125         4.34895        0.444488 
        4.03698         4.31575        0.440027 
        4.05268         4.28797        0.435637 
        4.06839         4.26762        0.431303 
         4.0841         4.23683         0.42703 
        4.09983         4.20078        0.422807 
        4.11555          4.1631        0.418643 
        4.13124         4.14046        0.414546 
        4.14693         4.09866        0.410501 
        4.16266         4.06764        0.406499 
        4.17839         4.04433        0.402553 
        4.19408         4.00678        0.398668 
        4.20977         3.98978        0.394832 
        4.22551         3.95253        0.391037 
        4.24123         3.93124        0.387296 
        4.25691         3.91135        0.383613 
        4.27259         3.88717        0.379977 
        4.28831         3.85745         0.37638 
        4.30404         3.82429        0.372826 
        4.31974         3.80019        0.369326 
        4.33543          3.7703        0.365872 
        4.35116          3.7455        0.362453 
        4.36688         3.70772         0.35908 
        4.38255         3.68446        0.355761 
        4.39825         3.67429        0.352477 
        4.41398         3.64686        0.349228 
         4.4297         3.62013        0.346023 
        4.44541         3.59859        0.342858 
        4.46111         3.57982        0.339735 
        4.47683         3.53348        0.336649 
        4.49251         3.52984        0.333607 
        4.50819         3.49904        0.330603 
         4.5239         3.47569        0.327631 
        4.53962         3.46529        0.324692 
        4.55535         3.43897        0.321788 
        4.57106         3.41965        0.318923 
        4.58678         3.39279        0.316092 
         4.6025         3.37664        0.313294 
        4.61821         3.34829        0.310531 
        4.63391         3.32807        0.307804 
         4.6496         3.31071        0.305111 
        4.66532         3.28381        0.302445 
        4.68103         3.25865        0.299813 
        4.69673          3.2441        0.297214 
        4.71241          3.2169        0.294648 
        4.72811         3.20701        0.292109 
        4.74384         3.19341        0.289595 
        4.75955         3.15921        0.287115 
        4.77525         3.13423        0.284665 
        4.79096         3.11593        0.282241 
        4.80669         3.10161        0.279843 
         4.8224         3.08605        0.277476 
        4.83809         3.06511        0.275139 
        4.85379         3.04768        0.272826 
         4.8695         3.02629        0.270539 
        4.88521         3.00306        0.268278 
        4.90093         2.99653        0.266043 
        4.91663         2.97314        0.263835 
        4.93234         2.95694        0.261649 
        4.94807         2.94075        0.259487 
        4.96377         2.91104        0.257353 
        4.97943         2.89579        0.255247 
        4.99514         2.87774         0.25316 
        5.01086         2.86576        0.251094 
        5.02654         2.84602        0.249056 
        5.04227         2.82731        0.247034 
          5.058         2.81717        0.245034 
        5.07371         2.79662         0.24306 
        5.08942         2.78143        0.241107 
        5.10513          2.7608        0.239176 
        5.12084         2.74323        0.237264 
        5.13656         2.73212        0.235374 
        5.15225         2.71409        0.233507 
        5.16796         2.70088        0.231657 
        5.18369         2.68525        0.229825 
         5.1994         2.66455        0.228017 
        5.21509         2.65368        0.226229 
        5.23079         2.63519        0.224459 
        5.24649         2.62282        0.222708 
        5.26217         2.60687        0.220978 
        5.27788         2.58802        0.219263 
        5.29359         2.57364        0.217566 
        5.30933         2.56131        0.215884 
        5.32504         2.54538        0.214223 
        5.34073         2.52731        0.212581 
        5.35646          2.5202        0.210953 
        5.37218         2.49948        0.209341 
        5.38789         2.48682        0.207749 
        5.40357         2.47413        0.206175 
        5.41929          2.4581        0.204614 
        5.43502         2.44712        0.203068 
         5.4507         2.43546        0.201542 
        5.46639         2.41888        0.200032 
        5.48212         2.40337        0.198533 
        5.49786         2.38894        0.197048 
        5.51353          2.3766        0.195585 
        5.52921         2.36848        0.194136 
        5.54495         2.35176        0.192697 
        5.56066         2.33913        0.191274 
        5.57637         2.32745        0.189865 
        5.59207         2.31453        0.188472 
        5.60778         2.30454        0.187092 
        5.62346         2.28886        0.185728 
        5.63916         2.27425        0.184376 
        5.65487         2.26336        0.183036 
         5.6706         2.24885        0.181709 
        5.68633         2.23724        0.180394 
        5.70203         2.23045        0.179094 
        5.71773         2.21249        0.177808 
        5.73344          2.1978        0.176533 
        5.74916         2.18895         0.17527 
        5.76486          2.1822         0.17402 
        5.78054         2.16572        0.172785 
        5.79626         2.15795        0.171558 
          5.812          2.1461        0.170342 
         5.8277          2.1366         0.16914 
        5.84339         2.12172        0.167951 
        5.85911         2.11468         0.16677 
        5.87484         2.10358        0.165601 
        5.89053         2.08932        0.164446 
        5.90623          2.0807        0.163301 
        5.92195         2.06945        0.162164 
        5.93767         2.05414         0.16104 
        5.95336         2.04679        0.159927 
        5.96905         2.03698        0.158825 
        5.98476         2.02548        0.157733 
        6.00048         2.01764         0.15665 
        6.01617         2.00354        0.155578 
        6.03185         1.99495        0.154518 
        6.04756         1.98179        0.153465 
        6.06331         1.97209         0.15242 
        6.07903         1.96279        0.151386 
        6.09473         1.95741        0.150363 
        6.11044         1.94065        0.149348 
        6.12616         1.93273        0.148343 
        6.14186         1.92506        0.147348 
        6.15755         1.91743        0.146362 
        6.17326          1.9083        0.145385 
        6.18898          1.8991        0.144416 
        6.20467         1.88772        0.143457 
        6.22036         1.87768        0.142507 
         6.2361         1.87224        0.141563 
         6.2518         1.86185        0.140629 
        6.26748         1.84866        0.139705 
        6.28319         1.84041        0.138787 
        6.29893         1.83454        0.137877 
        6.31463         1.82585        0.136976 
        6.33033         1.81318        0.136084 
        6.34604         1.80683        0.135198 
        6.36177         1.79884         0.13432 
        6.37747         1.78996        0.133451 
