# k  (h/Mpc)    Pcb(k)  (Mpc/h)^3    Pcb_linear(k) (Mpc/h)^3   ShotnoiseSubtracted = true
      0.0200456         4310.25         4361.99 
      0.0350414          3159.3         3095.06 
      0.0492313         2275.08         2277.12 
      0.0637834         1835.35         1874.41 
      0.0800726          1390.9         1419.29 
       0.096163         1059.03         1029.77 
       0.111083          881.55         852.007 
       0.126058         738.856         743.764 
       0.142273         601.005         597.353 
       0.158546         491.034         475.947 
        0.17375         435.298         417.378 
       0.188953          389.96         371.879 
       0.204907         321.574         314.583 
       0.220756          285.49         267.537 
        0.23588         255.524         240.123 
         0.2514         229.018         216.413 
       0.267535         211.217          189.65 
       0.283568         184.282         167.224 
       0.299022         172.312         151.808 
       0.314451         164.462         138.403 
       0.330372         143.495         124.552 
       0.346141          131.59         112.626 
       0.361624         122.594         103.321 
       0.377134         111.982         95.0784 
       0.392932         108.144         87.0837 
       0.408854         100.225          79.909 
       0.424564         95.4241         73.8908 
       0.440253         86.7815         68.5247 
       0.455999         79.7436         63.5166 
       0.471626         76.2311         59.0161 
        0.48727         73.8375         55.0284 
       0.502856          68.129         51.4311 
       0.518488         65.1047         48.1046 
       0.534347         61.3154         45.0154 
       0.550082         59.1641         42.2422 
       0.565732         57.1347          39.719 
       0.581496         52.9537         37.3744 
       0.597222         50.7803         35.2169 
       0.612804         48.7466         33.2535 
       0.628434         47.6988         31.4371 
       0.644267          45.061         29.7336 
       0.660051         43.1421         28.1597 
       0.675724         41.4699         26.7084 
       0.691403         40.6674         25.3579 
       0.707174         39.1529         24.0931 
       0.722871         37.9045         22.9193 
        0.73838         36.1342         21.8361 
       0.754018         34.2083         20.8145 
       0.769845         33.6445          19.847 
        0.78569         32.4269         18.9399 
       0.801365         31.4398         18.0983 
       0.817031          30.181         17.3083 
       0.832809         29.5685         16.5603 
       0.848511         28.6008         15.8598 
       0.864097         27.8701         15.2045 
       0.879701         27.3275         14.5855 
       0.895507         26.2712         13.9936 
       0.911279         25.4105         13.4356 
        0.92691         24.9435         12.9127 
       0.942635          24.358         12.4146 
       0.958396         23.7669         11.9417 
       0.974128         23.1094         11.4942 
       0.989692         22.1646         11.0739 
        1.00528         21.9658         10.6741 
        1.02113         21.3098         10.2876 
        1.03692         20.8985         9.92172 
        1.05264         20.4501         9.57524 
        1.06832         20.0456         9.24581 
        1.08405         19.4466         8.93097 
        1.09979         19.1536         8.63057 
        1.11537         18.5395         8.34692 
        1.13105         18.2613          8.0743 
        1.14679         17.7857         7.81278 
        1.16256         17.5067          7.5623 
        1.17828         17.1986         7.32359 
        1.19395         16.8818         7.09596 
         1.2097         16.4982         6.87683 
        1.22537         16.1795         6.66798 
          1.241         15.8253          6.4684 
        1.25666         15.6316         6.27648 
        1.27241         15.3477         6.09142 
        1.28819         14.7429         5.91348 
        1.30392         14.8794         5.74315 
        1.31957         14.4607         5.58026 
        1.33529         14.2149         5.42307 
        1.35108         14.0399          5.2713 
        1.36674         13.7344          5.1264 
         1.3824         13.4736         4.98706 
        1.39811         13.2294         4.85242 
        1.41389         13.0517         4.72222 
        1.42964          12.872         4.59699 
        1.44531         12.6619         4.47691 
        1.46101         12.4847         4.36084 
        1.47667         12.2651         4.24922 
        1.49229         11.9731          4.1418 
        1.50793          11.874         4.03795 
        1.52367         11.7226         3.93698 
        1.53953         11.5308         3.83877 
        1.55526         11.3011         3.74469 
        1.57092         11.2596         3.65413 
        1.58662         11.0668         3.56635 
        1.60235         10.8974         3.48126 
        1.61809         10.7509          3.3989 
        1.63369          10.564         3.31993 
        1.64941          10.431         3.24289 
        1.66519         10.2976           3.168 
        1.68085         10.0871         3.09601 
        1.69652         10.0829         3.02622 
        1.71228         9.89703         2.95817 
        1.72806         9.73884         2.89216 
        1.74368         9.63784         2.82881 
        1.75933         9.52609         2.76723 
        1.77505         9.38024         2.70719 
        1.79081         9.26668         2.64881 
         1.8065         9.20048         2.59239 
        1.82218         9.10375         2.53767 
        1.83797          8.9685         2.48414 
        1.85367         8.86835         2.43244 
        1.86928         8.73867         2.38251 
        1.88497         8.66116         2.33371 
        1.90073          8.5236         2.28609 
        1.91647         8.32844         2.23984 
        1.93218         8.32157         2.19496 
        1.94787         8.18278         2.15136 
        1.96363         8.12098         2.10878 
        1.97935         8.04739         2.06743 
        1.99499          7.9344         2.02741 
        2.01064         7.84384         1.98839 
         2.0264         7.73712         1.95015 
        2.04216         7.74429         1.91293 
        2.05781         7.63341         1.87691 
        2.07353         7.52054         1.84168 
        2.08928         7.42332         1.80728 
        2.10499         7.34821         1.77384 
        2.12065         7.30162         1.74134 
        2.13633         7.19809         1.70963 
        2.15211         7.13592          1.6785 
        2.16785         7.02336         1.64823 
        2.18349         6.99474         1.61889 
        2.19916         6.91243         1.59019 
        2.21489         6.85218          1.5621 
        2.23063         6.79574         1.53466 
         2.2463         6.68293           1.508 
        2.26194         6.61589         1.48204 
        2.27765         6.55343         1.45655 
        2.29341         6.45783         1.43159 
        2.30914         6.46032         1.40727 
        2.32486         6.36228         1.38352 
        2.34061         6.32684         1.36027 
        2.35635         6.24872         1.33758 
        2.37203         6.18271         1.31548 
        2.38768         6.11858         1.29393 
        2.40339         6.06973         1.27277 
        2.41914         6.01396         1.25204 
        2.43483         5.98568         1.23184 
         2.4505         5.90447         1.21212 
        2.46622         5.83097         1.19276 
        2.48195          5.8319         1.17382 
        2.49759         5.71688         1.15539 
        2.51328         5.69359          1.1373 
        2.52906          5.6249         1.11949 
        2.54479         5.57962         1.10212 
        2.56049         5.52331         1.08515 
        2.57618         5.49405         1.06855 
        2.59189         5.48865         1.05227 
        2.60758         5.39326         1.03635 
        2.62325          5.3266         1.02078 
        2.63898         5.33732         1.00548 
        2.65468         5.25858        0.990518 
        2.67044         5.22143        0.975796 
        2.68618         5.15463        0.961404 
        2.70184         5.14507        0.947359 
        2.71755         5.07831        0.933558 
        2.73329         5.01693         0.92001 
        2.74897         4.99132        0.906772 
        2.76462         4.96155        0.893823 
        2.78034         4.91558        0.881072 
        2.79607         4.88323        0.868555 
        2.81179         4.83142        0.856294 
        2.82749         4.78099        0.844282 
        2.84321         4.75547        0.832485 
        2.85893         4.71552        0.820916 
        2.87462         4.69227        0.809586 
        2.89033         4.63802        0.798458 
        2.90605         4.60421        0.787528 
        2.92176         4.55324        0.776807 
        2.93747         4.52757         0.76629 
        2.95318          4.4857        0.755964 
        2.96891         4.45233        0.745823 
        2.98456         4.42239        0.735911 
        3.00023         4.40119        0.726164 
        3.01596         4.33468        0.716563 
        3.03164         4.31104        0.707161 
        3.04738          4.2903        0.697899 
         3.0631         4.26124        0.688806 
        3.07883         4.22178        0.679873 
        3.09456         4.16699        0.671099 
        3.11026         4.15528        0.662492 
        3.12596         4.12394        0.654037 
        3.14163         4.09274        0.645747 
        3.15734         4.05916        0.637582 
        3.17308         4.04806        0.629536 
        3.18879         4.00616        0.621651 
        3.20447         3.97828        0.613911 
         3.2202         3.93951        0.606279 
         3.2359          3.9071        0.598789 
        3.25157         3.89072        0.591442 
        3.26729         3.86406        0.584196 
        3.28304         3.82812        0.577056 
        3.29877         3.80705        0.570045 
        3.31446         3.79092        0.563164 
        3.33014           3.742        0.556402 
        3.34585         3.72561         0.54974 
        3.36158         3.69475        0.543177 
        3.37727         3.66909         0.53674 
        3.39294         3.64732        0.530414 
        3.40867         3.62722        0.524166 
        3.42439         3.58451        0.518021 
        3.44008         3.57083        0.511986 
        3.45578         3.54062        0.506042 
        3.47153         3.51437        0.500179 
        3.48724          3.4949        0.494418 
        3.50292         3.47091        0.488761 
        3.51859         3.44289        0.483195 
        3.53431         3.42128        0.477697 
        3.55007         3.40622        0.472272 
        3.56577         3.36676        0.466951 
        3.58146         3.35483        0.461714 
        3.59719         3.33806        0.456544 
        3.61292          3.3095        0.451456 
        3.62859         3.29179        0.446463 
        3.64429         3.26384        0.441536 
        3.66003         3.24956        0.436667 
        3.67578         3.22985        0.431874 
        3.69146         3.19885         0.42717 
        3.70712          3.1909        0.422544 
        3.72284         3.16358        0.417969 
        3.73853         3.13652        0.413469 
        3.75422         3.11298        0.409033 
        3.76993         3.10098        0.404659 
        3.78564         3.07915        0.400349 
        3.80137         3.05527        0.396095 
        3.81707         3.03982        0.391912 
        3.83279         3.01759        0.387784 
        3.84853         2.99186         0.38371 
        3.86424         2.97538        0.379701 
        3.87992           2.961        0.375756 
        3.89561         2.93812        0.371865 
        3.91134         2.91805        0.368022 
        3.92704         2.89354        0.364237 
        3.94273         2.88254        0.360509 
        3.95845         2.86079        0.356825 
        3.97418         2.84869        0.353192 
        3.98988         2.83012        0.349614 
        4.00554         2.80675        0.346096 
        4.02125         2.78382        0.342615 
        4.03698         2.76543        0.339176 
        4.05268         2.74702        0.335792 
        4.06839         2.72966        0.332452 
         4.0841         2.71069        0.329157 
        4.09983          2.6952        0.325903 
        4.11555         2.67698        0.322693 
        4.13124         2.66002        0.319535 
        4.14693         2.64642        0.316417 
        4.16266         2.62392        0.313332 
        4.17839          2.6053        0.310291 
        4.19408         2.59315        0.307296 
        4.20977         2.58094        0.304339 
        4.22551         2.55292        0.301414 
        4.24123         2.54295         0.29853 
        4.25691         2.52552        0.295692 
        4.27259          2.5068        0.292889 
        4.28831         2.48535        0.290116 
        4.30404         2.48196        0.287377 
        4.31974          2.4626        0.284679 
        4.33543         2.44745        0.282017 
        4.35116         2.42997        0.279382 
        4.36688         2.41779        0.276781 
        4.38255         2.40364        0.274223 
        4.39825         2.38946        0.271692 
        4.41398         2.37581        0.269187 
         4.4297         2.36047        0.266717 
        4.44541         2.34052        0.264278 
        4.46111         2.32636         0.26187 
        4.47683         2.31144        0.259491 
        4.49251         2.30298        0.257147 
        4.50819         2.28428        0.254831 
         4.5239         2.27508        0.252541 
        4.53962         2.25753        0.250275 
        4.55535         2.24593        0.248036 
        4.57106         2.23218        0.245828 
        4.58678         2.21741        0.243646 
         4.6025          2.2083        0.241489 
        4.61821         2.19762        0.239359 
        4.63391         2.18072        0.237257 
         4.6496         2.16798        0.235181 
        4.66532         2.15839        0.233127 
        4.68103         2.14151        0.231098 
        4.69673         2.13138        0.229095 
        4.71241         2.12412        0.227117 
        4.72811         2.10915        0.225159 
        4.74384         2.09877        0.223222 
        4.75955         2.08351         0.22131 
        4.77525         2.07223        0.219422 
        4.79096         2.06291        0.217553 
        4.80669         2.05344        0.215705 
         4.8224         2.03828        0.213881 
        4.83809          2.0312        0.212079 
        4.85379         2.01801        0.210297 
         4.8695         2.00964        0.208533 
        4.88521         1.99251        0.206791 
        4.90093         1.98813        0.205068 
        4.91663         1.97593        0.203366 
        4.93234         1.96626        0.201681 
        4.94807         1.95538        0.200014 
        4.96377         1.94497         0.19837 
        4.97943         1.93545        0.196747 
        4.99514         1.92328        0.195137 
        5.01086         1.91538        0.193545 
        5.02654         1.90491        0.191974 
        5.04227          1.8945        0.190416 
          5.058         1.88695        0.188874 
        5.07371         1.87681        0.187353 
        5.08942         1.86766        0.185847 
        5.10513         1.85788        0.184358 
        5.12084         1.84482        0.182885 
        5.13656         1.83688        0.181428 
        5.15225         1.82519        0.179989 
        5.16796          1.8201        0.178563 
        5.18369          1.8092        0.177151 
         5.1994          1.8008        0.175757 
        5.21509         1.79243        0.174379 
        5.23079         1.78675        0.173014 
        5.24649         1.77782        0.171665 
        5.26217         1.76686        0.170331 
        5.27788         1.75765        0.169009 
        5.29359         1.75214        0.167701 
        5.30933         1.73988        0.166405 
        5.32504         1.73547        0.165125 
        5.34073         1.72563        0.163859 
        5.35646         1.71562        0.162604 
        5.37218         1.71174        0.161362 
        5.38789         1.69852        0.160134 
        5.40357         1.69303        0.158921 
        5.41929         1.68759        0.157718 
        5.43502         1.68004        0.156526 
         5.4507         1.66935         0.15535 
        5.46639          1.6586        0.154186 
        5.48212         1.65477        0.153031 
        5.49786         1.64603        0.151886 
        5.51353         1.64183        0.150759 
        5.52921         1.63068        0.149641 
        5.54495         1.62486        0.148532 
        5.56066         1.61838        0.147435 
        5.57637         1.60627        0.146349 
        5.59207         1.60263        0.145276 
        5.60778         1.59886        0.144212 
        5.62346         1.58708         0.14316 
        5.63916         1.57843        0.142118 
        5.65487         1.57387        0.141086 
         5.6706         1.56802        0.140062 
        5.68633         1.55955        0.139049 
        5.70203         1.55459        0.138047 
        5.71773         1.54656        0.137055 
        5.73344         1.54052        0.136073 
        5.74916         1.53264        0.135099 
        5.76486         1.52744        0.134136 
        5.78054         1.51983        0.133184 
        5.79626         1.51333        0.132238 
          5.812         1.50133          0.1313 
         5.8277         1.50217        0.130375 
        5.84339         1.49472        0.129458 
        5.85911         1.48835        0.128548 
        5.87484         1.48067        0.127647 
        5.89053         1.47727        0.126756 
        5.90623         1.47279        0.125873 
        5.92195         1.46161        0.124997 
        5.93767         1.45964         0.12413 
        5.95336         1.45076        0.123273 
        5.96905         1.44468        0.122424 
        5.98476         1.44178        0.121581 
        6.00048          1.4336        0.120747 
        6.01617         1.42994        0.119921 
        6.03185         1.42334        0.119104 
        6.04756         1.41969        0.118292 
        6.06331         1.41071        0.117486 
        6.07903         1.40445        0.116689 
        6.09473         1.40028        0.115901 
        6.11044         1.39594        0.115119 
        6.12616          1.3898        0.114344 
        6.14186         1.38408        0.113577 
        6.15755         1.37612        0.112817 
        6.17326         1.37202        0.112064 
        6.18898         1.36881        0.111317 
        6.20467         1.36421        0.110578 
        6.22036         1.35959        0.109845 
         6.2361         1.35416        0.109118 
         6.2518          1.3478        0.108398 
        6.26748         1.34368        0.107686 
        6.28319         1.33633        0.106978 
        6.29893         1.33046        0.106277 
        6.31463         1.32725        0.105582 
        6.33033         1.32167        0.104894 
        6.34604         1.31604        0.104212 
        6.36177         1.31287        0.103535 
        6.37747          1.3093        0.102865 
