# k  (h/Mpc)    Pcb(k)  (Mpc/h)^3    Pcb_linear(k) (Mpc/h)^3   ShotnoiseSubtracted = true
      0.0200456         23404.9         23937.7 
      0.0350414         16204.3           16985 
      0.0492313         12212.3         12496.4 
      0.0637834         10496.4         10286.4 
      0.0800726         7979.85         7788.78 
       0.096163         5512.11         5651.13 
       0.111083         4550.67         4675.63 
       0.126058         4147.27         4081.62 
       0.142273         3493.22         3278.15 
       0.158546         3077.05          2611.9 
        0.17375         2496.04         2290.48 
       0.188953         2427.07         2040.79 
       0.204907         2249.86         1726.36 
       0.220756         1952.02         1468.19 
        0.23588         1754.63         1317.75 
         0.2514          1525.6         1187.63 
       0.267535         1517.69         1040.76 
       0.283568         1373.49         917.693 
       0.299022         1301.37          833.09 
       0.314451         1236.71         759.528 
       0.330372         1132.41         683.513 
       0.346141          1086.5         618.067 
       0.361624         1043.11         567.001 
       0.377134          970.59         521.771 
       0.392932           927.9         477.897 
       0.408854          912.07         438.524 
       0.424564         840.031         405.497 
       0.440253         824.914         376.049 
       0.455999         795.467         348.566 
       0.471626         766.631         323.868 
        0.48727         733.139         301.985 
       0.502856         710.619         282.243 
       0.518488         703.035         263.988 
       0.534347         658.589         247.035 
       0.550082         642.686         231.816 
       0.565732         638.229         217.969 
       0.581496         601.713         205.103 
       0.597222         589.363         193.263 
       0.612804         578.037         182.488 
       0.628434         560.758          172.52 
       0.644267         545.712         163.172 
       0.660051         528.975         154.535 
       0.675724          522.72          146.57 
       0.691403          504.68         139.159 
       0.707174         487.591         132.218 
       0.722871         481.164         125.776 
        0.73838         471.683         119.832 
       0.754018          461.28         114.225 
       0.769845         451.749         108.916 
        0.78569         442.833         103.938 
       0.801365         430.994         99.3197 
       0.817031         419.638         94.9843 
       0.832809         415.286         90.8796 
       0.848511         405.691         87.0352 
       0.864097         392.668          83.439 
       0.879701         386.967         80.0421 
       0.895507         383.873         76.7938 
       0.911279         372.461          73.732 
        0.92691         367.663         70.8621 
       0.942635         356.867         68.1287 
       0.958396         348.246         65.5333 
       0.974128         342.691         63.0776 
       0.989692         339.756         60.7715 
        1.00528         329.823         58.5771 
        1.02113         327.602         56.4564 
        1.03692         318.253         54.4483 
        1.05264         315.639         52.5469 
        1.06832         306.143         50.7391 
        1.08405          302.11         49.0113 
        1.09979         297.096         47.3627 
        1.11537         291.265         45.8062 
        1.13105         286.006         44.3101 
        1.14679         277.942         42.8749 
        1.16256         273.494         41.5003 
        1.17828          272.24         40.1903 
        1.19395         265.251         38.9412 
         1.2097         260.707         37.7386 
        1.22537         255.291         36.5925 
          1.241          252.89         35.4972 
        1.25666         248.452          34.444 
        1.27241         244.247         33.4284 
        1.28819         239.881         32.4519 
        1.30392         234.728         31.5172 
        1.31957         233.828         30.6233 
        1.33529         229.113         29.7607 
        1.35108         223.744         28.9278 
        1.36674          220.09         28.1326 
         1.3824         218.902         27.3679 
        1.39811         214.862          26.629 
        1.41389         212.158         25.9145 
        1.42964         209.406         25.2273 
        1.44531         206.059         24.5683 
        1.46101         202.006         23.9314 
        1.47667         199.501         23.3189 
        1.49229         197.264         22.7293 
        1.50793         191.947         22.1594 
        1.52367         190.973         21.6053 
        1.53953         187.721         21.0664 
        1.55526          183.75         20.5501 
        1.57092         182.042         20.0531 
        1.58662         179.812         19.5714 
        1.60235         176.807         19.1044 
        1.61809         174.776         18.6525 
        1.63369         172.192         18.2191 
        1.64941         168.237         17.7963 
        1.66519         167.208         17.3853 
        1.68085         164.574         16.9902 
        1.69652         162.159         16.6072 
        1.71228         158.228         16.2338 
        1.72806         156.615         15.8716 
        1.74368         154.376         15.5239 
        1.75933         151.827          15.186 
        1.77505         150.481         14.8565 
        1.79081         148.741         14.5361 
         1.8065         145.705         14.2265 
        1.82218         144.448         13.9262 
        1.83797         142.484         13.6324 
        1.85367         140.314         13.3487 
        1.86928         137.733         13.0747 
        1.88497         136.294         12.8069 
        1.90073         134.624         12.5456 
        1.91647         133.057         12.2918 
        1.93218         131.212         12.0455 
        1.94787         128.238         11.8062 
        1.96363         126.643         11.5725 
        1.97935         125.783         11.3456 
        1.99499         123.593          11.126 
        2.01064         122.095         10.9119 
         2.0264         120.738          10.702 
        2.04216         118.826         10.4977 
        2.05781         117.619         10.3001 
        2.07353          116.29         10.1068 
        2.08928         113.951         9.91795 
        2.10499         113.037         9.73446 
        2.12065         110.901         9.55613 
        2.13633         109.567          9.3821 
        2.15211         107.866         9.21126 
        2.16785         106.609         9.04512 
        2.18349         105.646         8.88411 
        2.19916         104.042         8.72665 
        2.21489         102.886         8.57247 
        2.23063         100.973         8.42189 
         2.2463           100.1         8.27559 
        2.26194         98.2813         8.13311 
        2.27765         97.3792         7.99324 
        2.29341         95.9831         7.85627 
        2.30914         95.1469         7.72278 
        2.32486         93.6757         7.59245 
        2.34061         92.4823          7.4649 
        2.35635         91.3719         7.34037 
        2.37203         90.2401          7.2191 
        2.38768         88.9157         7.10081 
        2.40339         88.0774         6.98472 
        2.41914          86.667         6.87095 
        2.43483         85.8042          6.7601 
         2.4505         84.7898         6.65186 
        2.46622         83.8473         6.54561 
        2.48195         82.5219         6.44167 
        2.49759         81.3708         6.34052 
        2.51328          81.012         6.24127 
        2.52906         79.6141          6.1435 
        2.54479         78.7137         6.04819 
        2.56049          77.691         5.95506 
        2.57618         76.7946         5.86397 
        2.59189         75.9596         5.77464 
        2.60758         74.9458         5.68729 
        2.62325         73.8706         5.60185 
        2.63898         72.9043         5.51786 
        2.65468         72.0001         5.43576 
        2.67044         71.4949         5.35496 
        2.68618          70.674         5.27599 
        2.70184         70.0667         5.19891 
        2.71755         68.8516         5.12317 
        2.73329         68.3359         5.04882 
        2.74897         67.5458         4.97618 
        2.76462          66.435         4.90511 
        2.78034         65.9418         4.83514 
        2.79607          64.769         4.76645 
        2.81179         64.1166         4.69916 
        2.82749         63.4644         4.63324 
        2.84321         62.7793          4.5685 
        2.85893         62.0297         4.50502 
        2.87462         61.3107         4.44284 
        2.89033         60.4678         4.38177 
        2.90605          59.784         4.32179 
        2.92176         59.0082         4.26295 
        2.93747         58.6503         4.20524 
        2.95318         57.8434         4.14857 
        2.96891          57.369         4.09292 
        2.98456         56.8397         4.03853 
        3.00023         55.9385         3.98504 
        3.01596          55.269         3.93235 
        3.03164         54.6761         3.88075 
        3.04738         54.1078         3.82993 
         3.0631         53.4156         3.78002 
        3.07883         53.1094           3.731 
        3.09456          52.477         3.68285 
        3.11026         51.6416         3.63562 
        3.12596         51.1439         3.58922 
        3.14163         50.6961         3.54373 
        3.15734         49.9917         3.49891 
        3.17308         49.4243         3.45476 
        3.18879         49.0766         3.41149 
        3.20447          48.403         3.36902 
         3.2202         48.0186         3.32713 
         3.2359         47.3379         3.28603 
        3.25157         46.8562         3.24571 
        3.26729         46.4688         3.20595 
        3.28304         46.0893         3.16676 
        3.29877         45.5095         3.12828 
        3.31446         44.7714         3.09052 
        3.33014         44.6201         3.05342 
        3.34585         43.9372         3.01686 
        3.36158         43.5709         2.98084 
        3.37727         43.1715         2.94552 
        3.39294         42.6553          2.9108 
        3.40867         42.1612         2.87651 
        3.42439         41.8089         2.84279 
        3.44008         41.3257         2.80967 
        3.45578          40.896         2.77705 
        3.47153         40.5089         2.74488 
        3.48724           40.08         2.71326 
        3.50292          39.787         2.68222 
        3.51859         39.2437         2.65167 
        3.53431         38.9844          2.6215 
        3.55007         38.4822         2.59173 
        3.56577         38.1529         2.56253 
        3.58146         37.8089         2.53379 
        3.59719         37.3635         2.50542 
        3.61292         37.0028         2.47749 
        3.62859         36.6022         2.45009 
        3.64429         36.2607         2.42306 
        3.66003         35.9411         2.39634 
        3.67578          35.512         2.37003 
        3.69146         35.1937         2.34422 
        3.70712         34.7597         2.31883 
        3.72284         34.4745         2.29372 
        3.73853         34.1462         2.26903 
        3.75422         33.6863         2.24469 
        3.76993         33.4282         2.22068 
        3.78564         33.1614         2.19703 
        3.80137         32.8362         2.17369 
        3.81707         32.4498         2.15073 
        3.83279         32.1887         2.12808 
        3.84853         31.9113         2.10572 
        3.86424         31.5952         2.08372 
        3.87992         31.3333         2.06207 
        3.89561         31.0294         2.04072 
        3.91134         30.6662         2.01963 
        3.92704         30.3759         1.99886 
        3.94273         30.1239          1.9784 
        3.95845         29.9701         1.95818 
        3.97418         29.5963         1.93825 
        3.98988         29.3582         1.91861 
        4.00554         29.0165          1.8993 
        4.02125         28.8255          1.8802 
        4.03698         28.5742         1.86133 
        4.05268         28.2869         1.84276 
        4.06839         27.9907         1.82443 
         4.0841         27.7258         1.80635 
        4.09983         27.5067         1.78849 
        4.11555          27.187         1.77087 
        4.13124         27.0454         1.75354 
        4.14693         26.7301         1.73643 
        4.16266         26.5122          1.7195 
        4.17839         26.1999         1.70281 
        4.19408         26.0333         1.68638 
        4.20977         25.7677         1.67015 
        4.22551         25.4915          1.6541 
        4.24123         25.3187         1.63827 
        4.25691         25.0941         1.62269 
        4.27259         24.8549         1.60731 
        4.28831         24.6453          1.5921 
        4.30404          24.475         1.57707 
        4.31974         24.1869         1.56226 
        4.33543         23.9095         1.54765 
        4.35116         23.8089         1.53319 
        4.36688         23.5842         1.51892 
        4.38255         23.3732         1.50488 
        4.39825         23.1652         1.49099 
        4.41398         23.0162         1.47724 
         4.4297         22.7008         1.46369 
        4.44541         22.5668          1.4503 
        4.46111         22.3256         1.43709 
        4.47683         22.1765         1.42403 
        4.49251         21.9352         1.41117 
        4.50819         21.8035         1.39846 
         4.5239         21.6443         1.38589 
        4.53962         21.3825         1.37346 
        4.55535         21.2666         1.36117 
        4.57106         21.0659         1.34905 
        4.58678         20.8763         1.33708 
         4.6025         20.6018         1.32524 
        4.61821         20.5329         1.31355 
        4.63391         20.3431         1.30202 
         4.6496         20.1614         1.29063 
        4.66532         20.0111         1.27935 
        4.68103         19.8405         1.26822 
        4.69673         19.6824         1.25722 
        4.71241         19.5559         1.24637 
        4.72811          19.305         1.23563 
        4.74384         19.2402           1.225 
        4.75955         19.0123         1.21451 
        4.77525         18.8456         1.20414 
        4.79096         18.7461         1.19389 
        4.80669         18.5511         1.18374 
         4.8224         18.4055         1.17373 
        4.83809         18.3059         1.16384 
        4.85379         18.1054         1.15406 
         4.8695         17.9762         1.14439 
        4.88521         17.7976         1.13482 
        4.90093         17.6219         1.12537 
        4.91663         17.5287         1.11603 
        4.93234         17.4102         1.10678 
        4.94807         17.2506         1.09764 
        4.96377         17.0914         1.08861 
        4.97943         16.9747          1.0797 
        4.99514         16.8491         1.07087 
        5.01086         16.7373         1.06213 
        5.02654         16.5457         1.05351 
        5.04227         16.4639         1.04496 
          5.058         16.3153          1.0365 
        5.07371         16.1841         1.02815 
        5.08942         16.0337         1.01989 
        5.10513         15.9368         1.01172 
        5.12084         15.8181         1.00363 
        5.13656          15.674        0.995637 
        5.15225         15.5164         0.98774 
        5.16796         15.4556        0.979915 
        5.18369         15.3034        0.972168 
         5.1994         15.2285        0.964518 
        5.21509         15.0857        0.956956 
        5.23079          14.978        0.949467 
        5.24649         14.8666        0.942062 
        5.26217         14.7578        0.934742 
        5.27788         14.6292        0.927488 
        5.29359         14.5027        0.920309 
        5.30933         14.3687        0.913196 
        5.32504         14.2772        0.906169 
        5.34073         14.1481        0.899223 
        5.35646         14.0189        0.892336 
        5.37218         13.9567        0.885519 
        5.38789         13.8356        0.878783 
        5.40357         13.7319        0.872125 
        5.41929         13.6323        0.865521 
        5.43502         13.5359        0.858984 
         5.4507         13.4369         0.85253 
        5.46639         13.3187         0.84614 
        5.48212         13.2536        0.839801 
        5.49786         13.1228        0.833519 
        5.51353         13.0206        0.827331 
        5.52921         12.9473          0.8212 
        5.54495         12.8492        0.815113 
        5.56066         12.7411        0.809093 
        5.57637         12.6397        0.803135 
        5.59207          12.554        0.797242 
        5.60778         12.4457        0.791405 
        5.62346          12.367        0.785634 
        5.63916         12.2819        0.779915 
        5.65487         12.1717        0.774249 
         5.6706         12.1021        0.768633 
        5.68633         12.0074         0.76307 
        5.70203         11.9175        0.757573 
        5.71773         11.8545        0.752131 
        5.73344         11.7195         0.74674 
        5.74916         11.6579        0.741395 
        5.76486         11.5932         0.73611 
        5.78054         11.5162        0.730884 
        5.79626         11.4042        0.725694 
          5.812         11.3423        0.720549 
         5.8277         11.2418        0.715469 
        5.84339          11.179        0.710437 
        5.85911         11.0909        0.705443 
        5.87484         11.0025        0.700499 
        5.89053         10.9224         0.69561 
        5.90623         10.8624        0.690767 
        5.92195         10.7689         0.68596 
        5.93767         10.6955        0.681202 
        5.95336          10.609        0.676496 
        5.96905         10.5361        0.671836 
        5.98476         10.4749        0.667213 
        6.00048         10.3979        0.662632 
        6.01617         10.3307          0.6581 
        6.03185         10.2593        0.653615 
        6.04756         10.1797        0.649161 
        6.06331         10.1203        0.644739 
        6.07903         10.0467        0.640367 
        6.09473         9.96182        0.636039 
        6.11044         9.90859        0.631748 
        6.12616         9.83296        0.627496 
        6.14186         9.74698        0.623287 
        6.15755         9.67511        0.619117 
        6.17326         9.62646        0.614982 
        6.18898         9.56957        0.610882 
        6.20467         9.50091        0.606827 
        6.22036         9.42627        0.602808 
         6.2361          9.3518        0.598815 
         6.2518         9.29533        0.594864 
        6.26748         9.23298        0.590957 
        6.28319         9.18399        0.587075 
        6.29893         9.09838        0.583223 
        6.31463         9.04461        0.579413 
        6.33033         8.99263        0.575638 
        6.34604         8.93176        0.571893 
        6.36177         8.87636        0.568178 
        6.37747         8.81497        0.564502 
