# k  (h/Mpc)    Pcb(k)  (Mpc/h)^3    Pcb_linear(k) (Mpc/h)^3   ShotnoiseSubtracted = true
      0.0200456         91.3257         92.4365 
      0.0350414         65.7646         65.5885 
      0.0492313         48.4285         48.2552 
      0.0637834         39.7744         39.7213 
      0.0800726          30.207         30.0767 
       0.096163         21.9161         21.8221 
       0.111083         18.0365         18.0552 
       0.126058         15.7421         15.7614 
       0.142273         12.7174         12.6587 
       0.158546         10.1488          10.086 
        0.17375         8.82443         8.84481 
       0.188953         7.86949         7.88062 
       0.204907         6.73407         6.66643 
       0.220756         5.70103         5.66947 
        0.23588         5.10047         5.08854 
         0.2514         4.58212         4.58608 
       0.267535         4.02633         4.01893 
       0.283568          3.5556         3.54371 
       0.299022         3.22766         3.21701 
       0.314451          2.9205         2.93295 
       0.330372         2.64076         2.63942 
       0.346141         2.38879         2.38669 
       0.361624         2.19425          2.1895 
       0.377134         2.02347         2.01484 
       0.392932         1.83164         1.84542 
       0.408854         1.70053         1.69338 
       0.424564         1.56392         1.56585 
       0.440253         1.45252         1.45213 
       0.455999         1.35155           1.346 
       0.471626         1.25852         1.25063 
        0.48727         1.16719         1.16613 
       0.502856         1.08857         1.08989 
       0.518488         1.02661          1.0194 
       0.534347         0.96463        0.953938 
       0.550082        0.895658         0.89517 
       0.565732        0.835636        0.841699 
       0.581496        0.794677        0.792014 
       0.597222        0.749858        0.746295 
       0.612804        0.706034        0.704687 
       0.628434        0.671161        0.666194 
       0.644267        0.632077        0.630096 
       0.660051         0.59732        0.596742 
       0.675724         0.56824        0.565986 
       0.691403        0.540917        0.537369 
       0.707174        0.512676        0.510565 
       0.722871        0.485186        0.485691 
        0.73838        0.465484        0.462736 
       0.754018        0.445357        0.441087 
       0.769845        0.424075        0.420584 
        0.78569         0.40365        0.401362 
       0.801365        0.385129        0.383528 
       0.817031        0.368738        0.366786 
       0.832809        0.352998        0.350936 
       0.848511        0.337551         0.33609 
       0.864097        0.322279        0.322204 
       0.879701        0.308822        0.309086 
       0.895507        0.298602        0.296543 
       0.911279        0.286407         0.28472 
        0.92691        0.274551        0.273637 
       0.942635        0.264432        0.263082 
       0.958396        0.253667         0.25306 
       0.974128        0.244082        0.243577 
       0.989692        0.235688        0.234672 
        1.00528        0.227824        0.226198 
        1.02113        0.217875        0.218009 
        1.03692        0.210969        0.210255 
        1.05264        0.203736        0.202912 
        1.06832        0.196808        0.195931 
        1.08405        0.189408        0.189259 
        1.09979        0.182931        0.182893 
        1.11537        0.178178        0.176883 
        1.13105        0.172061        0.171105 
        1.14679        0.167038        0.165563 
        1.16256         0.16042        0.160255 
        1.17828        0.155395        0.155197 
        1.19395          0.1503        0.150373 
         1.2097        0.145586        0.145729 
        1.22537        0.142116        0.141303 
          1.241        0.137499        0.137074 
        1.25666        0.133765        0.133007 
        1.27241        0.129435        0.129085 
        1.28819        0.125684        0.125315 
        1.30392        0.121903        0.121705 
        1.31957         0.11866        0.118253 
        1.33529        0.114961        0.114922 
        1.35108        0.111906        0.111706 
        1.36674        0.108081        0.108635 
         1.3824        0.106304        0.105682 
        1.39811        0.102898        0.102829 
        1.41389        0.100187         0.10007 
        1.42964       0.0979142       0.0974165 
        1.44531       0.0947576       0.0948718 
        1.46101       0.0925467       0.0924122 
        1.47667       0.0897449       0.0900468 
        1.49229       0.0877296       0.0877703 
        1.50793       0.0853149       0.0855696 
        1.52367       0.0833305       0.0834299 
        1.53953       0.0815255       0.0813488 
        1.55526       0.0794558        0.079355 
        1.57092       0.0769812        0.077436 
        1.58662       0.0755199       0.0755757 
        1.60235       0.0739491       0.0737727 
        1.61809       0.0716511       0.0720274 
        1.63369       0.0703124       0.0703537 
        1.64941        0.068733       0.0687211 
        1.66519       0.0669682       0.0671342 
        1.68085       0.0653102       0.0656085 
        1.69652       0.0637456       0.0641296 
        1.71228       0.0627023       0.0626877 
        1.72806       0.0608253       0.0612888 
        1.74368       0.0597702       0.0599464 
        1.75933       0.0584927       0.0586414 
        1.77505       0.0571162       0.0573689 
        1.79081       0.0560542       0.0561318 
         1.8065       0.0545113       0.0549363 
        1.82218       0.0535624       0.0537766 
        1.83797       0.0523421       0.0526422 
        1.85367       0.0512064       0.0515466 
        1.86928        0.050322       0.0504887 
        1.88497       0.0493383       0.0494546 
        1.90073        0.048231       0.0484454 
        1.91647       0.0470977       0.0474652 
        1.93218       0.0461601       0.0465141 
        1.94787       0.0451916       0.0455903 
        1.96363       0.0444344       0.0446879 
        1.97935       0.0434091       0.0438115 
        1.99499       0.0426185       0.0429636 
        2.01064       0.0419026       0.0421367 
         2.0264       0.0411302       0.0413263 
        2.04216       0.0402246       0.0405375 
        2.05781       0.0395053       0.0397742 
        2.07353       0.0385587       0.0390277 
        2.08928       0.0379242       0.0382986 
        2.10499       0.0370713       0.0375901 
        2.12065       0.0365682       0.0369015 
        2.13633       0.0357098       0.0362294 
        2.15211       0.0353137       0.0355697 
        2.16785       0.0346368       0.0349282 
        2.18349       0.0338253       0.0343064 
        2.19916       0.0334588       0.0336984 
        2.21489       0.0328984        0.033103 
        2.23063       0.0321996       0.0325215 
         2.2463       0.0315106       0.0319566 
        2.26194       0.0309684       0.0314064 
        2.27765       0.0304359       0.0308663 
        2.29341       0.0300484       0.0303374 
        2.30914       0.0294055       0.0298219 
        2.32486       0.0289289       0.0293186 
        2.34061       0.0284938        0.028826 
        2.35635       0.0279348       0.0283452 
        2.37203       0.0275065       0.0278769 
        2.38768       0.0269818       0.0274201 
        2.40339       0.0265347       0.0269718 
        2.41914       0.0262133       0.0265325 
        2.43483       0.0256263       0.0261044 
         2.4505       0.0252503       0.0256865 
        2.46622       0.0248487       0.0252762 
        2.48195       0.0244071       0.0248748 
        2.49759       0.0240885       0.0244842 
        2.51328        0.023783       0.0241009 
        2.52906       0.0233507       0.0237234 
        2.54479       0.0229944       0.0233553 
        2.56049       0.0226199       0.0229957 
        2.57618       0.0222675        0.022644 
        2.59189       0.0219079        0.022299 
        2.60758       0.0216216       0.0219617 
        2.62325       0.0212597       0.0216318 
        2.63898        0.020899       0.0213075 
        2.65468       0.0205856       0.0209904 
        2.67044        0.020356       0.0206784 
        2.68618       0.0200063       0.0203735 
        2.70184       0.0197085       0.0200758 
        2.71755       0.0193494       0.0197834 
        2.73329       0.0190754       0.0194962 
        2.74897       0.0188766       0.0192157 
        2.76462       0.0185409       0.0189413 
        2.78034       0.0182808       0.0186711 
        2.79607       0.0180656       0.0184059 
        2.81179       0.0177628        0.018146 
        2.82749       0.0175032       0.0178915 
        2.84321       0.0172843       0.0176415 
        2.85893       0.0170119       0.0173963 
        2.87462       0.0168129       0.0171562 
        2.89033       0.0165985       0.0169204 
        2.90605       0.0163015       0.0166888 
        2.92176       0.0161606       0.0164616 
        2.93747       0.0158843       0.0162387 
        2.95318       0.0156417       0.0160199 
        2.96891       0.0154713        0.015805 
        2.98456       0.0153073        0.015595 
        3.00023       0.0150253       0.0153884 
        3.01596       0.0147974       0.0151849 
        3.03164       0.0146861       0.0149857 
        3.04738        0.014457       0.0147894 
         3.0631        0.014204       0.0145967 
        3.07883        0.014032       0.0144074 
        3.09456       0.0139317       0.0142215 
        3.11026       0.0137093       0.0140391 
        3.12596       0.0135798       0.0138599 
        3.14163       0.0133598       0.0136843 
        3.15734       0.0132118       0.0135112 
        3.17308       0.0130059       0.0133407 
        3.18879       0.0128743       0.0131736 
        3.20447       0.0127248       0.0130096 
         3.2202       0.0125616       0.0128479 
         3.2359       0.0124182       0.0126891 
        3.25157       0.0122338       0.0125335 
        3.26729       0.0121284       0.0123799 
        3.28304       0.0119431       0.0122286 
        3.29877       0.0118232         0.01208 
        3.31446       0.0116718       0.0119342 
        3.33014       0.0115018       0.0117909 
        3.34585       0.0113676       0.0116497 
        3.36158       0.0112466       0.0115107 
        3.37727       0.0111299       0.0113743 
        3.39294       0.0109909       0.0112402 
        3.40867       0.0108784       0.0111078 
        3.42439       0.0107731       0.0109776 
        3.44008       0.0106398       0.0108497 
        3.45578       0.0105163       0.0107237 
        3.47153       0.0103837       0.0105995 
        3.48724       0.0103236       0.0104774 
        3.50292        0.010126       0.0103575 
        3.51859       0.0100253       0.0102396 
        3.53431      0.00995651       0.0101231 
        3.55007      0.00985794       0.0100081 
        3.56577      0.00976312      0.00989532 
        3.58146      0.00959119      0.00978434 
        3.59719      0.00950954      0.00967479 
        3.61292      0.00939008      0.00956695 
        3.62859      0.00930977      0.00946115 
        3.64429       0.0092298      0.00935674 
        3.66003      0.00913069      0.00925357 
        3.67578      0.00903004      0.00915199 
        3.69146      0.00896359       0.0090523 
        3.70712      0.00887149      0.00895427 
        3.72284      0.00875978      0.00885732 
        3.73853      0.00865831      0.00876197 
        3.75422      0.00861075      0.00866797 
        3.76993       0.0085027      0.00857527 
        3.78564      0.00846597      0.00848394 
        3.80137      0.00836422       0.0083938 
        3.81707      0.00825751      0.00830514 
        3.83279      0.00818132      0.00821768 
        3.84853       0.0081248      0.00813133 
        3.86424      0.00802657      0.00804638 
        3.87992      0.00795617      0.00796277 
        3.89561      0.00789616      0.00788033 
        3.91134      0.00784111      0.00779888 
        3.92704      0.00772121      0.00771867 
        3.94273      0.00768878      0.00763966 
        3.95845      0.00759557      0.00756161 
        3.97418      0.00752638      0.00748462 
        3.98988      0.00747421       0.0074088 
        4.00554      0.00737003      0.00733423 
        4.02125      0.00729431      0.00726047 
        4.03698      0.00722708       0.0071876 
        4.05268      0.00713196      0.00711589 
        4.06839      0.00702824       0.0070451 
         4.0841      0.00696376      0.00697529 
        4.09983      0.00686462      0.00690632 
        4.11555      0.00679803      0.00683831 
        4.13124      0.00671448      0.00677139 
        4.14693      0.00664434       0.0067053 
        4.16266       0.0065486      0.00663994 
        4.17839      0.00649918      0.00657548 
        4.19408      0.00643098      0.00651202 
        4.20977      0.00636728      0.00644936 
        4.22551      0.00630694      0.00638737 
        4.24123      0.00623288      0.00632626 
        4.25691      0.00617876      0.00626611 
        4.27259      0.00612318      0.00620671 
        4.28831      0.00609153      0.00614796 
        4.30404       0.0060224      0.00608991 
        4.31974      0.00597158      0.00603273 
        4.33543      0.00592111      0.00597631 
        4.35116      0.00587938      0.00592048 
        4.36688      0.00582542      0.00586537 
        4.38255      0.00579501      0.00581116 
        4.39825      0.00577236      0.00575752 
        4.41398      0.00574512      0.00570445 
         4.4297      0.00571586      0.00565209 
        4.44541      0.00567904       0.0056004 
        4.46111      0.00563822      0.00554939 
        4.47683      0.00563191      0.00549897 
        4.49251      0.00559186      0.00544928 
        4.50819      0.00558793      0.00540021 
         4.5239      0.00557887      0.00535168 
        4.53962      0.00556078      0.00530367 
        4.55535      0.00554395      0.00525623 
        4.57106      0.00555452      0.00520943 
        4.58678      0.00552456      0.00516318 
         4.6025      0.00554507      0.00511748 
        4.61821      0.00554357      0.00507235 
        4.63391      0.00552568      0.00502781 
         4.6496      0.00553688      0.00498381 
        4.66532      0.00553621      0.00494028 
        4.68103      0.00555113      0.00489728 
        4.69673       0.0055443      0.00485483 
        4.71241      0.00557118      0.00481292 
        4.72811      0.00557176      0.00477143 
        4.74384      0.00560504      0.00473038 
        4.75955      0.00561346      0.00468987 
        4.77525      0.00564853      0.00464985 
        4.79096      0.00567611      0.00461025 
        4.80669      0.00568118      0.00457108 
         4.8224      0.00572625      0.00453242 
        4.83809      0.00573788      0.00449424 
        4.85379      0.00579544      0.00445647 
         4.8695      0.00583153       0.0044191 
        4.88521      0.00586447      0.00438217 
        4.90093      0.00591431      0.00434566 
        4.91663      0.00597827       0.0043096 
        4.93234      0.00599806       0.0042739 
        4.94807      0.00607077      0.00423858 
        4.96377      0.00612154      0.00420372 
        4.97943      0.00616425      0.00416933 
        4.99514       0.0062289      0.00413523 
        5.01086      0.00629333      0.00410148 
        5.02654      0.00636238      0.00406819 
        5.04227      0.00643743      0.00403517 
          5.058      0.00650293       0.0040025 
        5.07371      0.00658539      0.00397025 
        5.08942      0.00668333      0.00393836 
        5.10513      0.00672153       0.0039068 
        5.12084      0.00681423      0.00387558 
        5.13656      0.00688789       0.0038447 
        5.15225      0.00697702       0.0038142 
        5.16796      0.00708164      0.00378399 
        5.18369      0.00720412      0.00375407 
         5.1994      0.00729615      0.00372453 
        5.21509       0.0074383      0.00369533 
        5.23079      0.00748911      0.00366641 
        5.24649      0.00765281      0.00363782 
        5.26217      0.00772778      0.00360955 
        5.27788      0.00790322      0.00358154 
        5.29359      0.00800673      0.00355382 
        5.30933      0.00815045      0.00352635 
        5.32504      0.00826573      0.00349921 
        5.34073      0.00843926      0.00347239 
        5.35646      0.00854556       0.0034458 
        5.37218      0.00867977      0.00341947 
        5.38789      0.00885885      0.00339346 
        5.40357      0.00897028      0.00336775 
        5.41929      0.00914538      0.00334225 
        5.43502      0.00933575      0.00331701 
         5.4507      0.00953858      0.00329208 
        5.46639      0.00975407      0.00326741 
        5.48212      0.00980698      0.00324293 
        5.49786       0.0100893      0.00321867 
        5.51353       0.0102777      0.00319478 
        5.52921       0.0104912       0.0031711 
        5.54495       0.0107042       0.0031476 
        5.56066       0.0108893      0.00312435 
        5.57637       0.0111278      0.00310134 
        5.59207       0.0113168      0.00307858 
        5.60778       0.0115514      0.00305605 
        5.62346       0.0118564      0.00303376 
        5.63916         0.01205      0.00301168 
        5.65487       0.0123317       0.0029898 
         5.6706       0.0125375      0.00296811 
        5.68633        0.012884      0.00294663 
        5.70203       0.0131328       0.0029254 
        5.71773       0.0134254      0.00290439 
        5.73344       0.0136615      0.00288357 
        5.74916       0.0140401      0.00286293 
        5.76486       0.0143535      0.00284252 
        5.78054       0.0146368      0.00282234 
        5.79626       0.0149286       0.0028023 
          5.812       0.0153488      0.00278243 
         5.8277       0.0156562      0.00276282 
        5.84339       0.0160237      0.00274338 
        5.85911       0.0164978       0.0027241 
        5.87484       0.0168568      0.00270501 
        5.89053       0.0172763      0.00268613 
        5.90623       0.0177974      0.00266743 
        5.92195       0.0181538      0.00264887 
        5.93767       0.0185594      0.00263049 
        5.95336       0.0189732      0.00261232 
        5.96905       0.0195775      0.00259433 
        5.98476       0.0198474      0.00257647 
        6.00048       0.0203902      0.00255878 
        6.01617       0.0209298      0.00254128 
        6.03185       0.0213792      0.00252396 
        6.04756        0.021988      0.00250677 
        6.06331       0.0224582      0.00248969 
        6.07903       0.0231663      0.00247281 
        6.09473       0.0235335       0.0024561 
        6.11044       0.0243988      0.00243952 
        6.12616       0.0250622       0.0024231 
        6.14186       0.0254987      0.00240685 
        6.15755       0.0262189      0.00239075 
        6.17326       0.0267983      0.00237478 
        6.18898       0.0277764      0.00235895 
        6.20467       0.0285608      0.00234329 
        6.22036       0.0292008      0.00232777 
         6.2361       0.0299514      0.00231235 
         6.2518       0.0308311      0.00229709 
        6.26748       0.0314083      0.00228201 
        6.28319       0.0324767      0.00226702 
        6.29893       0.0332857      0.00225214 
        6.31463       0.0343476      0.00223743 
        6.33033       0.0351869      0.00222285 
        6.34604       0.0361775      0.00220839 
        6.36177       0.0372997      0.00219404 
        6.37747       0.0383544      0.00217985 
