# k  (h/Mpc)    Pcb(k)  (Mpc/h)^3    Pcb_linear(k) (Mpc/h)^3   ShotnoiseSubtracted = true
      0.0200456         15740.4         16022.9 
      0.0350414           10228         10560.8 
      0.0492313         7144.73         7191.48 
      0.0637834          6007.9         5833.27 
      0.0800726         4677.23         4557.41 
       0.096163         3143.51         3178.28 
       0.111083          2446.8         2452.44 
       0.126058         2238.23         2165.19 
       0.142273         1939.31          1834.3 
       0.158546         1615.39         1416.16 
        0.17375         1267.81         1163.84 
       0.188953         1225.07         1049.41 
       0.204907          1146.8         932.495 
       0.220756          972.51         780.537 
        0.23588         853.544          666.36 
         0.2514         737.009         600.876 
       0.267535         720.276         545.128 
       0.283568         649.831         478.566 
       0.299022          606.74          421.17 
       0.314451         570.168         381.866 
       0.330372         523.127          350.16 
       0.346141         475.323         317.179 
       0.361624         457.962         286.192 
       0.377134         421.987         261.501 
       0.392932         400.732         241.303 
       0.408854         384.832         222.061 
       0.424564         360.972         203.804 
       0.440253         351.732         187.931 
       0.455999         329.547         174.495 
       0.471626         310.886         162.399 
        0.48727         297.614         150.951 
       0.502856         287.938         140.585 
       0.518488         284.484         131.408 
       0.534347         266.167         123.008 
       0.550082         251.545          115.27 
       0.565732         247.673         108.155 
       0.581496         233.064         101.652 
       0.597222         228.035         95.7425 
       0.612804         220.883         90.3266 
       0.628434         211.464         85.2829 
       0.644267         204.728         80.5619 
       0.660051         201.224         76.2315 
       0.675724         196.452          72.251 
       0.691403         190.532         68.5481 
       0.707174         183.353         65.0808 
       0.722871         180.176         61.8642 
        0.73838         176.687         58.8969 
       0.754018         172.188         56.0997 
       0.769845         165.914          53.452 
        0.78569         164.576         50.9713 
       0.801365         158.082         48.6712 
       0.817031         153.302         46.5138 
       0.832809           151.9         44.4732 
       0.848511         146.792         42.5638 
       0.864097         145.039         40.7794 
       0.879701         141.707         39.0953 
       0.895507         137.684         37.4863 
       0.911279         133.715         35.9709 
        0.92691          133.33         34.5516 
       0.942635         129.217         33.2009 
       0.958396         128.756         31.9193 
       0.974128          125.27         30.7074 
       0.989692         122.418         29.5701 
        1.00528         120.246         28.4886 
        1.02113         118.887          27.444 
        1.03692         115.428         26.4554 
        1.05264          113.07         25.5199 
        1.06832         110.902         24.6308 
        1.08405         109.204         23.7816 
        1.09979         108.224         22.9717 
        1.11537         105.243         22.2074 
        1.13105         103.843         21.4731 
        1.14679         103.079         20.7691 
        1.16256         101.502         20.0951 
        1.17828         99.4416         19.4531 
        1.19395          97.434         18.8412 
         1.2097         96.2007         18.2523 
        1.22537         95.0199         17.6914 
          1.241          93.203         17.1556 
        1.25666         91.6115         16.6406 
        1.27241         89.8504         16.1442 
        1.28819         88.8852         15.6672 
        1.30392         86.8397         15.2107 
        1.31957         86.3595         14.7743 
        1.33529         84.1277         14.3534 
        1.35108         83.3297         13.9471 
        1.36674         82.5019         13.5594 
         1.3824         80.8303         13.1867 
        1.39811         79.7221         12.8268 
        1.41389         78.7006         12.4788 
        1.42964          76.893         12.1442 
        1.44531         75.5802         11.8235 
        1.46101         74.5295         11.5136 
        1.47667         74.2615         11.2157 
        1.49229         72.7721         10.9291 
        1.50793         72.0205         10.6521 
        1.52367         70.8032         10.3829 
        1.53953          69.674         10.1212 
        1.55526         69.1543         9.87048 
        1.57092         68.5247         9.62926 
        1.58662         66.6722         9.39549 
        1.60235         66.5556         9.16899 
        1.61809         65.3025          8.9498 
        1.63369         64.6559         8.73968 
        1.64941         64.1871         8.53477 
        1.66519          62.382         8.33565 
        1.68085         62.2689         8.14427 
        1.69652          60.714          7.9588 
        1.71228         60.5042         7.77803 
        1.72806         59.8488         7.60269 
        1.74368         58.8675         7.43449 
        1.75933         57.8474         7.27101 
        1.77505         57.5157         7.11165 
        1.79081         56.4496         6.95676 
         1.8065          55.633         6.80712 
        1.82218         54.9539         6.66199 
        1.83797         54.2287         6.52007 
        1.85367         53.9031         6.38304 
        1.86928         53.2486         6.25075 
        1.88497         52.4039         6.12146 
        1.90073         51.6552         5.99534 
        1.91647         51.3011         5.87285 
        1.93218         50.5545         5.75403 
        1.94787         49.9881         5.63865 
        1.96363         49.2841         5.52596 
        1.97935         48.8403         5.41656 
        1.99499          48.187         5.31072 
        2.01064         47.6421         5.20754 
         2.0264         46.7581         5.10644 
        2.04216          46.412         5.00805 
        2.05781         45.7696         4.91286 
        2.07353          44.956         4.81979 
        2.08928         44.6255         4.72891 
        2.10499         43.9753         4.64061 
        2.12065         43.6061         4.55481 
        2.13633         43.1563         4.47109 
        2.15211         42.8272         4.38892 
        2.16785         42.3053         4.30903 
        2.18349         41.9134         4.23162 
        2.19916         41.2089         4.15594 
        2.21489          40.897         4.08184 
        2.23063          40.537         4.00949 
         2.2463           39.87          3.9392 
        2.26194         39.2661         3.87077 
        2.27765         39.2379          3.8036 
        2.29341         38.5345         3.73784 
        2.30914         37.9719         3.67376 
        2.32486         37.3342          3.6112 
        2.34061         37.1813         3.54999 
        2.35635         36.4785         3.49024 
        2.37203         36.2242         3.43207 
        2.38768         35.7709         3.37533 
        2.40339         35.4278         3.31966 
        2.41914         35.0327         3.26511 
        2.43483         34.7976         3.21197 
         2.4505         34.4766          3.1601 
        2.46622         33.8745         3.10918 
        2.48195         33.6088         3.05937 
        2.49759         33.1217         3.01091 
        2.51328         32.7222         2.96337 
        2.52906         32.3704         2.91655 
        2.54479         32.0714         2.87091 
        2.56049         31.5696         2.82633 
        2.57618         31.3913         2.78272 
        2.59189         30.9082         2.73996 
        2.60758         30.7609         2.69816 
        2.62325         30.3027         2.65728 
        2.63898         30.0106          2.6171 
        2.65468         29.5229         2.57783 
        2.67044           29.17         2.53919 
        2.68618         28.9504         2.50142 
        2.70184         28.6619         2.46457 
        2.71755         28.3542         2.42836 
        2.73329         28.1061         2.39282 
        2.74897         27.7068          2.3581 
        2.76462         27.4151         2.32415 
        2.78034         27.2547         2.29071 
        2.79607         26.9033          2.2579 
        2.81179         26.6164         2.22576 
        2.82749         26.2035         2.19428 
        2.84321         26.0022         2.16336 
        2.85893         25.7904         2.13305 
        2.87462          25.486         2.10337 
        2.89033         25.1568         2.07422 
        2.90605         25.0009         2.04559 
        2.92176         24.6715         2.01751 
        2.93747         24.4576         1.98997 
        2.95318         24.1458         1.96294 
        2.96891         23.9087         1.93639 
        2.98456         23.6964         1.91045 
        3.00023         23.3581         1.88494 
        3.01596          23.154         1.85982 
        3.03164         23.0029         1.83522 
        3.04738         22.7349         1.81099 
         3.0631         22.4247          1.7872 
        3.07883         22.2278         1.76384 
        3.09456         22.0535         1.74089 
        3.11026         21.8247         1.71839 
        3.12596         21.5962         1.69628 
        3.14163         21.3942         1.67461 
        3.15734         21.1549         1.65326 
        3.17308          20.892         1.63224 
        3.18879         20.7803         1.61163 
        3.20447         20.5504          1.5914 
         3.2202         20.2773         1.57146 
         3.2359         20.1489          1.5519 
        3.25157         19.8934         1.53271 
        3.26729          19.764         1.51378 
        3.28304         19.5303         1.49513 
        3.29877         19.3257         1.47682 
        3.31446         19.0943         1.45886 
        3.33014         18.9372         1.44121 
        3.34585         18.7795         1.42382 
        3.36158         18.5476         1.40668 
        3.37727         18.3841         1.38989 
        3.39294         18.1879         1.37338 
        3.40867         18.0305         1.35707 
        3.42439         17.8552         1.34104 
        3.44008         17.7355          1.3253 
        3.45578         17.4524         1.30979 
        3.47153         17.3178          1.2945 
        3.48724          17.142         1.27948 
        3.50292         17.0287         1.26473 
        3.51859          16.813         1.25021 
        3.53431         16.6864         1.23588 
        3.55007         16.4845         1.22174 
        3.56577         16.3184         1.20787 
        3.58146         16.1845         1.19422 
        3.59719         16.0094         1.18074 
        3.61292         15.8939         1.16748 
        3.62859         15.7077         1.15447 
        3.64429         15.5764         1.14164 
        3.66003         15.4027         1.12896 
        3.67578         15.3144         1.11647 
        3.69146         15.1816         1.10422 
        3.70712         14.9847         1.09217 
        3.72284         14.8593         1.08025 
        3.73853         14.7274         1.06854 
        3.75422          14.624         1.05699 
        3.76993         14.4355          1.0456 
        3.78564         14.2948         1.03438 
        3.80137         14.1829         1.02331 
        3.81707         14.0542         1.01242 
        3.83279         13.9222         1.00168 
        3.84853         13.7797        0.991077 
        3.86424         13.6554        0.980647 
        3.87992         13.5412        0.970381 
        3.89561         13.3809        0.960261 
        3.91134         13.3149        0.950263 
        3.92704         13.1405        0.940418 
        3.94273         13.0731        0.930721 
        3.95845         12.9074        0.921142 
        3.97418          12.826        0.911695 
        3.98988         12.6929        0.902392 
        4.00554         12.5781        0.893243 
        4.02125         12.5172        0.884194 
        4.03698         12.3516        0.875255 
        4.05268         12.2448        0.866459 
        4.06839         12.1083        0.857777 
         4.0841         12.0427        0.849215 
        4.09983         11.9189        0.840758 
        4.11555         11.8083        0.832418 
        4.13124          11.715        0.824213 
        4.14693         11.6212        0.816111 
        4.16266         11.5066        0.808098 
        4.17839         11.4292        0.800197 
        4.19408         11.3113        0.792419 
        4.20977          11.219         0.78474 
        4.22551         11.0779        0.777143 
        4.24123         11.0152        0.769654 
        4.25691         10.9087        0.762284 
        4.27259         10.8489        0.755006 
        4.28831         10.7266        0.747809 
        4.30404         10.6594        0.740697 
        4.31974         10.5516        0.733693 
        4.33543          10.456        0.726783 
        4.35116         10.3477        0.719945 
        4.36688         10.2994        0.713196 
        4.38255         10.1948        0.706558 
        4.39825         10.1168         0.69999 
        4.41398         10.0213        0.693492 
         4.4297         9.92102        0.687082 
        4.44541         9.84241        0.680754 
        4.46111         9.76782         0.67451 
        4.47683         9.66733        0.668339 
        4.49251         9.61189        0.662257 
        4.50819         9.51414        0.656252 
         4.5239         9.44072        0.650312 
        4.53962         9.34828        0.644438 
        4.55535         9.27966        0.638633 
        4.57106         9.20666        0.632907 
        4.58678         9.11971        0.627249 
         4.6025         9.03327        0.621659 
        4.61821         8.96369        0.616138 
        4.63391         8.90403         0.61069 
         4.6496         8.83846        0.605309 
        4.66532         8.74112        0.599985 
        4.68103         8.67137        0.594727 
        4.69673         8.61795        0.589536 
        4.71241          8.5369        0.584412 
        4.72811         8.45986        0.579339 
        4.74384         8.39806         0.57432 
        4.75955         8.32204        0.569368 
        4.77525         8.26536        0.564476 
        4.79096         8.19569        0.559636 
        4.80669           8.133        0.554849 
         4.8224         8.06403        0.550123 
        4.83809         8.02013        0.545457 
        4.85379         7.93395        0.540842 
         4.8695         7.88246        0.536276 
        4.88521         7.81589        0.531765 
        4.90093         7.76421        0.527304 
        4.91663         7.69383        0.522898 
        4.93234         7.64539        0.518537 
        4.94807         7.58509        0.514222 
        4.96377         7.51485        0.509965 
        4.97943         7.47461        0.505764 
        4.99514         7.41079        0.501599 
        5.01086         7.35529        0.497478 
        5.02654         7.28271        0.493413 
        5.04227         7.23591        0.489381 
          5.058         7.17916        0.485392 
        5.07371         7.13311        0.481455 
        5.08942         7.06171        0.477561 
        5.10513         7.01963        0.473709 
        5.12084         6.96849        0.469897 
        5.13656         6.92253        0.466128 
        5.15225         6.85673        0.462406 
        5.16796         6.80498        0.458719 
        5.18369         6.75819        0.455068 
         5.1994         6.71532        0.451463 
        5.21509         6.66108          0.4479 
        5.23079         6.61236        0.444371 
        5.24649         6.55056        0.440882 
        5.26217         6.50036        0.437433 
        5.27788         6.46583        0.434016 
        5.29359         6.40319        0.430635 
        5.30933         6.35912        0.427284 
        5.32504         6.30371        0.423974 
        5.34073         6.25445        0.420703 
        5.35646         6.21412        0.417459 
        5.37218         6.17674        0.414249 
        5.38789         6.11396        0.411077 
        5.40357         6.09861        0.407942 
        5.41929         6.03885        0.404832 
        5.43502         6.00815        0.401755 
         5.4507         5.95165        0.398716 
        5.46639         5.90343        0.395708 
        5.48212         5.85278        0.392724 
        5.49786         5.82051        0.389767 
        5.51353         5.78774        0.386854 
        5.52921         5.74462        0.383969 
        5.54495         5.69945        0.381104 
        5.56066         5.66443        0.378271 
        5.57637         5.62745        0.375467 
        5.59207         5.57979        0.372694 
        5.60778         5.54451        0.369947 
        5.62346         5.50396        0.367232 
        5.63916         5.45123        0.364541 
        5.65487         5.41723        0.361876 
         5.6706         5.39116        0.359234 
        5.68633           5.357        0.356617 
        5.70203         5.32133        0.354031 
        5.71773         5.26397        0.351471 
        5.73344         5.23973        0.348935 
        5.74916         5.20748        0.346422 
        5.76486         5.16744        0.343936 
        5.78054         5.14113        0.341479 
        5.79626         5.09826        0.339038 
          5.812         5.06279        0.336619 
         5.8277         5.03082         0.33423 
        5.84339         5.00842        0.331864 
        5.85911         4.96644        0.329516 
        5.87484         4.92873        0.327192 
        5.89053         4.88811        0.324894 
        5.90623         4.85863        0.322617 
        5.92195         4.82343        0.320358 
        5.93767         4.80092        0.318121 
        5.95336         4.75773        0.315909 
        5.96905         4.72778        0.313719 
        5.98476         4.69867        0.311547 
        6.00048         4.67149        0.309394 
        6.01617         4.63959        0.307264 
        6.03185         4.61302        0.305157 
        6.04756         4.57892        0.303064 
        6.06331         4.55516        0.300986 
        6.07903         4.52381        0.298932 
        6.09473          4.4912        0.296899 
        6.11044         4.46222        0.294883 
        6.12616         4.42702        0.292886 
        6.14186         4.40642        0.290909 
        6.15755          4.3691         0.28895 
        6.17326          4.3458        0.287008 
        6.18898         4.31454        0.285082 
        6.20467         4.29114        0.283178 
        6.22036          4.2624        0.281291 
         6.2361         4.23634        0.279415 
         6.2518         4.20698         0.27756 
        6.26748         4.17969        0.275726 
        6.28319         4.15309        0.273903 
        6.29893         4.13286        0.272095 
        6.31463         4.09233        0.270306 
        6.33033         4.07397        0.268533 
        6.34604         4.04609        0.266775 
        6.36177         4.03423        0.265031 
        6.37747         4.00432        0.263306 
