# k  (h/Mpc)    Pcb(k)  (Mpc/h)^3    Pcb_linear(k) (Mpc/h)^3   ShotnoiseSubtracted = true
      0.0200456         1690.15         1709.63 
      0.0350414         1146.72         1126.82 
      0.0492313         770.732         767.324 
      0.0637834         616.064         622.404 
      0.0800726         478.899         486.271 
       0.096163         346.296          339.12 
       0.111083         269.007         261.673 
       0.126058         230.165         231.024 
       0.142273         194.385         195.718 
       0.158546         153.093         151.103 
        0.17375          127.71         124.181 
       0.188953         114.325         111.971 
       0.204907         98.4506         99.4963 
       0.220756         85.0609         83.2826 
        0.23588         72.9945            71.1 
         0.2514         65.6197         64.1129 
       0.267535         60.2229         58.1647 
       0.283568         52.7036         51.0625 
       0.299022         47.1904         44.9385 
       0.314451          43.822         40.7447 
       0.330372         39.3322         37.3617 
       0.346141         35.7254         33.8427 
       0.361624         32.3926         30.5364 
       0.377134         29.4834         27.9019 
       0.392932          28.175         25.7468 
       0.408854         25.4864         23.6937 
       0.424564         24.1206         21.7457 
       0.440253         21.8983         20.0521 
       0.455999         19.9403         18.6184 
       0.471626         18.7168         17.3278 
        0.48727         17.9748         16.1063 
       0.502856          16.787         15.0003 
       0.518488         15.4513         14.0211 
       0.534347         14.4328         13.1248 
       0.550082         13.7992         12.2992 
       0.565732         13.1657           11.54 
       0.581496         12.3268         10.8462 
       0.597222         11.5895         10.2156 
       0.612804         10.8986         9.63776 
       0.628434         10.5705          9.0996 
       0.644267         9.98455         8.59588 
       0.660051         9.41603         8.13383 
       0.675724         8.89874         7.70911 
       0.691403          8.6037         7.31402 
       0.707174         8.16099         6.94406 
       0.722871         7.91653         6.60086 
        0.73838         7.41132         6.28424 
       0.754018          7.0245         5.98579 
       0.769845         6.72994         5.70328 
        0.78569         6.53976         5.43859 
       0.801365         6.23051         5.19317 
       0.817031         5.99062         4.96298 
       0.832809         5.70926         4.74524 
       0.848511         5.52584         4.54152 
       0.864097         5.31176         4.35112 
       0.879701         5.17179         4.17143 
       0.895507         4.95054         3.99975 
       0.911279         4.74094         3.83807 
        0.92691         4.60066         3.68663 
       0.942635         4.41303          3.5425 
       0.958396         4.26963         3.40575 
       0.974128         4.14536         3.27645 
       0.989692         3.93932          3.1551 
        1.00528         3.86636         3.03971 
        1.02113         3.73262         2.92825 
        1.03692         3.63509         2.82277 
        1.05264         3.49142         2.72295 
        1.06832          3.3968         2.62809 
        1.08405         3.29004         2.53747 
        1.09979         3.19869         2.45106 
        1.11537         3.10009          2.3695 
        1.13105         3.00083         2.29116 
        1.14679         2.92078         2.21604 
        1.16256         2.82659         2.14413 
        1.17828         2.77923         2.07562 
        1.19395         2.67292         2.01033 
         1.2097         2.59012         1.94751 
        1.22537         2.50983         1.88766 
          1.241         2.45053         1.83049 
        1.25666         2.41843         1.77554 
        1.27241         2.35641         1.72257 
        1.28819         2.25612         1.67167 
        1.30392         2.20306         1.62296 
        1.31957         2.16431         1.57641 
        1.33529         2.08315         1.53149 
        1.35108          2.0433         1.48815 
        1.36674         1.98459         1.44678 
         1.3824         1.95919         1.40701 
        1.39811         1.90457          1.3686 
        1.41389         1.84961         1.33147 
        1.42964         1.80966         1.29578 
        1.44531         1.77139         1.26156 
        1.46101         1.73719         1.22849 
        1.47667         1.69611         1.19671 
        1.49229         1.63849         1.16613 
        1.50793         1.59596         1.13657 
        1.52367         1.56711         1.10785 
        1.53953         1.52619         1.07992 
        1.55526         1.52345         1.05317 
        1.57092         1.47925         1.02743 
        1.58662         1.46075         1.00249 
        1.60235         1.41214        0.978323 
        1.61809         1.38512        0.954935 
        1.63369         1.35232        0.932516 
        1.64941          1.3291        0.910652 
        1.66519         1.30874        0.889406 
        1.68085          1.2747        0.868986 
        1.69652         1.25021        0.849197 
        1.71228         1.22389        0.829908 
        1.72806         1.20431          0.8112 
        1.74368         1.17839        0.793253 
        1.75933         1.16016         0.77581 
        1.77505         1.13753        0.758806 
        1.79081         1.10786         0.74228 
         1.8065          1.0948        0.726313 
        1.82218         1.06549        0.710828 
        1.83797         1.04784        0.695685 
        1.85367         1.03072        0.681064 
        1.86928         1.01144        0.666949 
        1.88497        0.991234        0.653154 
        1.90073        0.980484        0.639697 
        1.91647        0.955718        0.626628 
        1.93218        0.940842         0.61395 
        1.94787        0.927299        0.601639 
        1.96363        0.911123        0.589615 
        1.97935        0.893856        0.577942 
        1.99499        0.878301        0.566649 
        2.01064        0.863835         0.55564 
         2.0264        0.846239        0.544852 
        2.04216        0.836188        0.534354 
        2.05781        0.819466        0.524198 
        2.07353        0.809958        0.514267 
        2.08928         0.79525        0.504571 
        2.10499        0.780176        0.495148 
        2.12065        0.768619        0.485993 
        2.13633        0.757866        0.477061 
        2.15211        0.740265        0.468293 
        2.16785        0.732914         0.45977 
        2.18349        0.719067         0.45151 
        2.19916        0.711231        0.443434 
        2.21489        0.701431        0.435528 
        2.23063        0.685274        0.427809 
         2.2463        0.674812        0.420309 
        2.26194        0.667918        0.413007 
        2.27765        0.654609         0.40584 
        2.29341        0.646816        0.398824 
        2.30914        0.634418        0.391986 
        2.32486        0.628791        0.385312 
        2.34061        0.617656        0.378781 
        2.35635         0.60806        0.372406 
        2.37203        0.600098        0.366199 
        2.38768        0.591349        0.360145 
        2.40339        0.583947        0.354205 
        2.41914        0.576633        0.348385 
        2.43483        0.568563        0.342714 
         2.4505        0.558582        0.337179 
        2.46622          0.5517        0.331746 
        2.48195        0.544674        0.326432 
        2.49759        0.535213        0.321262 
        2.51328        0.527043        0.316189 
        2.52906         0.52264        0.311193 
        2.54479        0.513454        0.306323 
        2.56049        0.508157        0.301566 
        2.57618        0.501497        0.296914 
        2.59189        0.494775        0.292351 
        2.60758        0.487726        0.287892 
        2.62325        0.481959         0.28353 
        2.63898        0.476459        0.279242 
        2.65468        0.466611        0.275052 
        2.67044        0.464091        0.270929 
        2.68618        0.458726        0.266899 
        2.70184        0.452433        0.262967 
        2.71755        0.446551        0.259104 
        2.73329        0.439705        0.255312 
        2.74897        0.434536        0.251607 
        2.76462        0.428963        0.247984 
        2.78034        0.424191        0.244417 
        2.79607        0.418909        0.240916 
        2.81179        0.413817        0.237486 
        2.82749        0.408358        0.234127 
        2.84321        0.402164        0.230829 
        2.85893        0.398197        0.227594 
        2.87462        0.393865        0.224427 
        2.89033        0.390485        0.221317 
        2.90605        0.386062        0.218262 
        2.92176        0.381522        0.215267 
        2.93747        0.376822        0.212328 
        2.95318        0.372066        0.209444 
        2.96891        0.370561        0.206611 
        2.98456        0.362712        0.203843 
        3.00023        0.360153        0.201121 
        3.01596        0.356093        0.198441 
        3.03164        0.352288        0.195816 
        3.04738        0.348476        0.193231 
         3.0631         0.34356        0.190693 
        3.07883        0.340391          0.1882 
        3.09456        0.337035        0.185751 
        3.11026        0.333683         0.18335 
        3.12596        0.330095        0.180991 
        3.14163        0.328182        0.178679 
        3.15734        0.323404        0.176402 
        3.17308        0.320012        0.174158 
        3.18879        0.317425        0.171959 
        3.20447        0.314307        0.169801 
         3.2202        0.308963        0.167674 
         3.2359        0.306696        0.165586 
        3.25157         0.30265        0.163538 
        3.26729         0.30099        0.161519 
        3.28304        0.298506        0.159529 
        3.29877         0.29553        0.157576 
        3.31446        0.293533        0.155659 
        3.33014        0.288918        0.153775 
        3.34585        0.287005         0.15192 
        3.36158        0.283987        0.150092 
        3.37727        0.282151          0.1483 
        3.39294        0.279097        0.146538 
        3.40867        0.276108        0.144798 
        3.42439        0.274348        0.143088 
        3.44008        0.271383        0.141408 
        3.45578         0.26927        0.139754 
        3.47153        0.267156        0.138122 
        3.48724        0.264197        0.136519 
        3.50292         0.26204        0.134945 
        3.51859        0.260605        0.133396 
        3.53431        0.257351        0.131867 
        3.55007        0.255272        0.130358 
        3.56577        0.253142        0.128878 
        3.58146        0.251203        0.127422 
        3.59719        0.249157        0.125984 
        3.61292        0.246756        0.124569 
        3.62859        0.245007        0.123181 
        3.64429        0.242547        0.121812 
        3.66003        0.240577        0.120458 
        3.67578        0.239305        0.119126 
        3.69146        0.237168        0.117819 
        3.70712        0.235616        0.116533 
        3.72284        0.233839        0.115262 
        3.73853        0.231555        0.114012 
        3.75422        0.229483         0.11278 
        3.76993         0.22808        0.111565 
        3.78564        0.225601        0.110368 
        3.80137        0.224069        0.109186 
        3.81707         0.22254        0.108024 
        3.83279         0.22085        0.106878 
        3.84853        0.218741        0.105747 
        3.86424        0.217714        0.104634 
        3.87992        0.216291        0.103539 
        3.89561        0.214409        0.102459 
        3.91134        0.212258        0.101392 
        3.92704        0.210916        0.100342 
        3.94273        0.209699        0.099307 
        3.95845        0.207793        0.098285 
        3.97418        0.206623       0.0972769 
        3.98988        0.204804       0.0962843 
        4.00554        0.202297       0.0953082 
        4.02125         0.20115       0.0943426 
        4.03698         0.19879       0.0933889 
        4.05268        0.196603       0.0924504 
        4.06839        0.195116        0.091524 
         4.0841        0.192456       0.0906105 
        4.09983        0.191541        0.089708 
        4.11555        0.188707       0.0888182 
        4.13124         0.18762       0.0879427 
        4.14693         0.18609       0.0870782 
        4.16266        0.183233       0.0862233 
        4.17839        0.181505       0.0853803 
        4.19408        0.180496       0.0845503 
        4.20977         0.17859        0.083731 
        4.22551        0.177221       0.0829204 
        4.24123         0.17597       0.0821213 
        4.25691        0.174209       0.0813349 
        4.27259        0.172476       0.0805584 
        4.28831        0.171485       0.0797905 
        4.30404        0.170152       0.0790317 
        4.31974        0.168998       0.0782844 
        4.33543        0.167484       0.0775471 
        4.35116        0.166884       0.0768174 
        4.36688        0.165589       0.0760973 
        4.38255        0.164318       0.0753891 
        4.39825        0.163162       0.0746883 
        4.41398        0.162161       0.0739949 
         4.4297        0.161292        0.073311 
        4.44541        0.160452       0.0726358 
        4.46111        0.159495       0.0719696 
        4.47683        0.158493       0.0713111 
        4.49251        0.157782       0.0706622 
        4.50819        0.157536       0.0700215 
         4.5239        0.156532       0.0693877 
        4.53962        0.155687       0.0687609 
        4.55535        0.154976       0.0681415 
        4.57106        0.154646       0.0675306 
        4.58678        0.153567       0.0669269 
         4.6025         0.15347       0.0663305 
        4.61821        0.152884       0.0657413 
        4.63391        0.153203         0.06516 
         4.6496        0.151889       0.0645859 
        4.66532        0.151649       0.0640179 
        4.68103        0.151127       0.0634568 
        4.69673         0.15103       0.0629029 
        4.71241        0.150755       0.0623562 
        4.72811        0.150848        0.061815 
        4.74384        0.150169       0.0612794 
        4.75955        0.150352        0.060751 
        4.77525        0.150214       0.0602291 
        4.79096        0.149928       0.0597126 
        4.80669        0.149786       0.0592019 
         4.8224        0.149864       0.0586977 
        4.83809        0.149768       0.0581998 
        4.85379         0.15028       0.0577074 
         4.8695        0.150822       0.0572202 
        4.88521        0.150472       0.0567388 
        4.90093        0.150533       0.0562628 
        4.91663        0.150691       0.0557927 
        4.93234        0.150804       0.0553274 
        4.94807        0.151153        0.054867 
        4.96377        0.151873       0.0544128 
        4.97943        0.151972       0.0539645 
        4.99514        0.152253       0.0535202 
        5.01086        0.153272       0.0530804 
        5.02654        0.154001       0.0526467 
        5.04227        0.153886       0.0522165 
          5.058        0.154752       0.0517909 
        5.07371        0.155269       0.0513708 
        5.08942        0.156232       0.0509553 
        5.10513         0.15694       0.0505443 
        5.12084        0.157048       0.0501376 
        5.13656        0.158484       0.0497354 
        5.15225        0.159109       0.0493383 
        5.16796        0.160124       0.0489449 
        5.18369        0.160855       0.0485553 
         5.1994        0.161927       0.0481707 
        5.21509        0.162507       0.0477905 
        5.23079        0.163353       0.0474139 
        5.24649        0.165251       0.0470417 
        5.26217        0.165461       0.0466737 
        5.27788        0.167006       0.0463091 
        5.29359        0.168247       0.0459483 
        5.30933        0.169517       0.0455908 
        5.32504        0.170888       0.0452376 
        5.34073        0.172649       0.0448886 
        5.35646        0.173945       0.0445425 
        5.37218        0.174704          0.0442 
        5.38789        0.175618       0.0438615 
        5.40357         0.17786        0.043527 
        5.41929        0.179457       0.0431952 
        5.43502        0.181112       0.0428668 
         5.4507        0.182925       0.0425426 
        5.46639        0.184088       0.0422217 
        5.48212        0.185253       0.0419033 
        5.49786        0.187674       0.0415877 
        5.51353        0.189746        0.041277 
        5.52921        0.190711       0.0409691 
        5.54495        0.193273       0.0406634 
        5.56066        0.195092       0.0403611 
        5.57637        0.196896       0.0400619 
        5.59207        0.199236        0.039766 
        5.60778        0.201026        0.039473 
        5.62346        0.203224       0.0391833 
        5.63916        0.205053       0.0388962 
        5.65487        0.206782       0.0386118 
         5.6706        0.209207       0.0383299 
        5.68633        0.212246       0.0380507 
        5.70203        0.214345       0.0377748 
        5.71773        0.215674       0.0375017 
        5.73344        0.218676       0.0372311 
        5.74916        0.221722       0.0369629 
        5.76486        0.223904       0.0366977 
        5.78054        0.226418       0.0364355 
        5.79626        0.227929        0.036175 
          5.812        0.231311       0.0359169 
         5.8277        0.233781        0.035662 
        5.84339        0.236068       0.0354096 
        5.85911        0.239262       0.0351591 
        5.87484        0.242032       0.0349111 
        5.89053        0.245303       0.0346659 
        5.90623        0.247211       0.0344229 
        5.92195        0.249991       0.0341818 
        5.93767        0.252639       0.0339432 
        5.95336        0.255001       0.0337072 
        5.96905        0.258027       0.0334735 
        5.98476        0.260277       0.0332417 
        6.00048        0.263146        0.033012 
        6.01617        0.267846       0.0327848 
        6.03185        0.269312       0.0325599 
        6.04756        0.271741       0.0323366 
        6.06331        0.274355        0.032115 
        6.07903         0.27861       0.0318958 
        6.09473        0.281834       0.0316789 
        6.11044        0.284558       0.0314637 
        6.12616         0.28696       0.0312506 
        6.14186        0.289903       0.0310397 
        6.15755        0.295216       0.0308307 
        6.17326        0.296663       0.0306235 
        6.18898        0.298873        0.030418 
        6.20467        0.302533       0.0302148 
        6.22036         0.30438       0.0300134 
         6.2361        0.308218       0.0298134 
         6.2518        0.312903       0.0296154 
        6.26748         0.31384       0.0294197 
        6.28319        0.318484       0.0292252 
        6.29893        0.320533       0.0290322 
        6.31463        0.324297       0.0288414 
        6.33033        0.327785       0.0286522 
        6.34604        0.330339       0.0284647 
        6.36177        0.332648       0.0282786 
        6.37747         0.33628       0.0280945 
