# k  (h/Mpc)    Pcb(k)  (Mpc/h)^3    Pcb_linear(k) (Mpc/h)^3   ShotnoiseSubtracted = true
      0.0200456         5997.64         6070.44 
      0.0350414         4105.12         4001.05 
      0.0492313         2727.31         2724.56 
      0.0637834         2166.32         2209.99 
      0.0800726         1681.28         1726.62 
       0.096163         1247.82         1204.12 
       0.111083          976.02         929.129 
       0.126058         820.576         820.303 
       0.142273         697.939         694.944 
       0.158546         557.661         536.524 
        0.17375         470.825         440.933 
       0.188953         426.824         397.578 
       0.204907         363.064         353.285 
       0.220756         319.697         295.714 
        0.23588         277.479         252.457 
         0.2514         247.274         227.648 
       0.267535         233.821         206.527 
       0.283568         202.927         181.309 
       0.299022         188.044         159.564 
       0.314451         179.944         144.674 
       0.330372          156.87         132.661 
       0.346141         143.865         120.166 
       0.361624         133.744         108.427 
       0.377134         121.847         99.0721 
       0.392932         117.618         91.4199 
       0.408854         109.867           84.13 
       0.424564         104.097         77.2133 
       0.440253         94.2726         71.1995 
       0.455999         86.7329         66.1089 
       0.471626         83.5206         61.5265 
        0.48727          80.385         57.1893 
       0.502856         73.6803         53.2619 
       0.518488         71.1016         49.7852 
       0.534347         66.6643         46.6027 
       0.550082          64.501          43.671 
       0.565732         62.3802         40.9756 
       0.581496         57.3192         38.5119 
       0.597222         55.3959          36.273 
       0.612804         53.0058         34.2211 
       0.628434         51.8543         32.3103 
       0.644267         48.8752         30.5217 
       0.660051         47.0036         28.8811 
       0.675724         45.2865          27.373 
       0.691403         44.3413         25.9701 
       0.707174         42.5602         24.6565 
       0.722871         41.3969         23.4379 
        0.73838         39.5386         22.3137 
       0.754018         37.2673         21.2539 
       0.769845         36.7972         20.2508 
        0.78569         35.4739          19.311 
       0.801365         34.3291         18.4395 
       0.817031          32.939         17.6222 
       0.832809         32.2462         16.8491 
       0.848511         31.2912         16.1257 
       0.864097         30.5221         15.4497 
       0.879701         29.8396         14.8116 
       0.895507         28.6519          14.202 
       0.911279           27.85         13.6279 
        0.92691         27.2925         13.0902 
       0.942635         26.6153         12.5785 
       0.958396         26.1318         12.0929 
       0.974128         25.3975         11.6338 
       0.989692         24.3792         11.2029 
        1.00528         24.0379         10.7932 
        1.02113         23.3486         10.3974 
        1.03692         23.0078         10.0229 
        1.05264          22.464         9.66846 
        1.06832          21.974         9.33163 
        1.08405          21.372         9.00988 
        1.09979         21.1257         8.70305 
        1.11537         20.3897         8.41347 
        1.13105         20.0276         8.13529 
        1.14679         19.5508         7.86856 
        1.16256          19.259         7.61321 
        1.17828         18.9466         7.36999 
        1.19395         18.4879         7.13816 
         1.2097         18.2595         6.91508 
        1.22537         17.8151         6.70256 
          1.241         17.4409         6.49958 
        1.25666         17.1465         6.30446 
        1.27241         16.9142          6.1164 
        1.28819         16.2947         5.93565 
        1.30392         16.3408         5.76271 
        1.31957         15.9878         5.59739 
        1.33529         15.6623         5.43792 
        1.35108         15.4434         5.28401 
        1.36674         15.1776         5.13712 
         1.3824         14.8667         4.99593 
        1.39811         14.5525         4.85954 
        1.41389         14.3743         4.72771 
        1.42964         14.2458         4.60096 
        1.44531          13.956         4.47945 
        1.46101         13.7824         4.36205 
        1.47667         13.5317         4.24919 
        1.49229         13.2028          4.1406 
        1.50793         13.1201         4.03567 
        1.52367         12.9104         3.93367 
        1.53953         12.7757          3.8345 
        1.55526         12.4857         3.73953 
        1.57092         12.4147         3.64814 
        1.58662         12.2316         3.55957 
        1.60235         12.0522         3.47376 
        1.61809         11.8503         3.39072 
        1.63369         11.6959         3.31111 
        1.64941         11.5083         3.23348 
        1.66519         11.4166         3.15804 
        1.68085         11.1322         3.08554 
        1.69652         11.1396         3.01527 
        1.71228         10.9552         2.94678 
        1.72806           10.76         2.88035 
        1.74368         10.6713         2.81663 
        1.75933         10.5277         2.75469 
        1.77505         10.3895         2.69432 
        1.79081         10.2615         2.63564 
         1.8065         10.1511         2.57894 
        1.82218         10.0701         2.52396 
        1.83797         9.96445         2.47019 
        1.85367         9.84526         2.41828 
        1.86928         9.71185         2.36816 
        1.88497         9.58076         2.31918 
        1.90073         9.44692         2.27139 
        1.91647         9.26539         2.22499 
        1.93218         9.25247         2.17997 
        1.94787         9.09494         2.13626 
        1.96363         9.02051         2.09356 
        1.97935          8.8805         2.05212 
        1.99499         8.78474         2.01202 
        2.01064         8.69051         1.97293 
         2.0264         8.57255         1.93462 
        2.04216         8.56885         1.89735 
        2.05781         8.44947         1.86129 
        2.07353         8.35506         1.82602 
        2.08928         8.25643         1.79159 
        2.10499         8.15739         1.75814 
        2.12065          8.0836         1.72563 
        2.13633         7.98498         1.69391 
        2.15211         7.90474         1.66278 
        2.16785         7.82508         1.63252 
        2.18349         7.72288         1.60319 
        2.19916         7.67415         1.57452 
        2.21489         7.56353         1.54644 
        2.23063         7.53114         1.51903 
         2.2463         7.41191         1.49241 
        2.26194         7.34992         1.46648 
        2.27765         7.25319         1.44103 
        2.29341         7.19277         1.41612 
        2.30914         7.13226         1.39184 
        2.32486         7.07827         1.36814 
        2.34061         7.00453         1.34495 
        2.35635         6.95161         1.32231 
        2.37203         6.85541         1.30027 
        2.38768         6.76086         1.27878 
        2.40339         6.74855         1.25769 
        2.41914         6.63855         1.23702 
        2.43483         6.61769         1.21689 
         2.4505          6.5391         1.19723 
        2.46622         6.48015         1.17794 
        2.48195         6.45045         1.15907 
        2.49759         6.35109         1.14071 
        2.51328         6.30961          1.1227 
        2.52906         6.23419         1.10496 
        2.54479         6.19537         1.08767 
        2.56049         6.10572         1.07078 
        2.57618         6.07793         1.05426 
        2.59189         6.06939         1.03806 
        2.60758         5.96608         1.02223 
        2.62325         5.91113         1.00674 
        2.63898         5.90369        0.991514 
        2.65468         5.81969        0.976634 
        2.67044         5.79632        0.961995 
        2.68618         5.70934        0.947687 
        2.70184         5.67871        0.933725 
        2.71755         5.63207        0.920008 
        2.73329         5.55832        0.906544 
        2.74897         5.51831         0.89339 
        2.76462         5.48929        0.880525 
        2.78034         5.42404        0.867859 
        2.79607         5.41412        0.855426 
        2.81179         5.34632         0.84325 
        2.82749         5.29882        0.831323 
        2.84321         5.26852        0.819611 
        2.85893         5.22771        0.808127 
        2.87462         5.18003        0.796881 
        2.89033         5.12663        0.785837 
        2.90605         5.09144        0.774991 
        2.92176         5.05175        0.764354 
        2.93747         5.00393        0.753921 
        2.95318          4.9633        0.743679 
        2.96891         4.93604        0.733621 
        2.98456         4.87951        0.723793 
        3.00023         4.85066        0.714128 
        3.01596         4.80364        0.704609 
        3.03164         4.77891         0.69529 
        3.04738         4.73764         0.68611 
         3.0631         4.69274        0.677098 
        3.07883         4.65732        0.668247 
        3.09456         4.61118        0.659553 
        3.11026         4.57704        0.651027 
        3.12596         4.53976        0.642651 
        3.14163         4.52333        0.634441 
        3.15734         4.48049        0.626355 
        3.17308         4.46774        0.618388 
        3.18879         4.41096        0.610581 
        3.20447         4.37308        0.602919 
         3.2202         4.35131        0.595364 
         3.2359         4.31731        0.587951 
        3.25157         4.28937         0.58068 
        3.26729         4.25806         0.57351 
        3.28304         4.22379        0.566446 
        3.29877         4.19562        0.559509 
        3.31446         4.17348        0.552703 
        3.33014         4.12846        0.546015 
        3.34585         4.10296        0.539426 
        3.36158         4.06667        0.532936 
        3.37727         4.03449        0.526572 
        3.39294         4.00996        0.520317 
        3.40867         3.98277         0.51414 
        3.42439         3.96347        0.508067 
        3.44008         3.93517        0.502102 
        3.45578         3.90175        0.496228 
        3.47153         3.87094        0.490434 
        3.48724         3.83564        0.484743 
        3.50292         3.80651        0.479154 
        3.51859         3.79014        0.473655 
        3.53431         3.75306        0.468225 
        3.55007         3.73286        0.462866 
        3.56577         3.69789        0.457612 
        3.58146          3.6826         0.45244 
        3.59719         3.65864        0.447336 
        3.61292          3.6279        0.442313 
        3.62859         3.60394        0.437384 
        3.64429         3.58621         0.43252 
        3.66003         3.55013        0.427716 
        3.67578         3.54706        0.422985 
        3.69146         3.51777        0.418343 
        3.70712         3.49158        0.413779 
        3.72284         3.46886        0.409265 
        3.73853         3.44439        0.404826 
        3.75422         3.40498        0.400451 
        3.76993         3.40957        0.396136 
        3.78564         3.37584        0.391886 
        3.80137         3.35265        0.387691 
        3.81707         3.32178        0.383565 
        3.83279         3.30368        0.379496 
        3.84853         3.27593        0.375479 
        3.86424          3.2518        0.371528 
        3.87992         3.23994        0.367638 
        3.89561         3.21793        0.363804 
        3.91134         3.19181        0.360016 
        3.92704         3.17228        0.356286 
        3.94273         3.15667        0.352613 
        3.95845         3.13385        0.348983 
        3.97418         3.10336        0.345404 
        3.98988          3.0901         0.34188 
        4.00554         3.06744        0.338414 
        4.02125         3.04017        0.334985 
        4.03698          3.0269        0.331599 
        4.05268         2.99364        0.328266 
        4.06839         2.97872        0.324977 
         4.0841         2.95748        0.321733 
        4.09983         2.93838        0.318529 
        4.11555            2.92         0.31537 
        4.13124         2.89614        0.312261 
        4.14693          2.8758        0.309191 
        4.16266         2.86181        0.306156 
        4.17839         2.84621        0.303162 
        4.19408          2.8316        0.300215 
        4.20977         2.81119        0.297306 
        4.22551         2.78342        0.294428 
        4.24123         2.76584        0.291591 
        4.25691         2.74871        0.288798 
        4.27259          2.7284        0.286041 
        4.28831         2.71098        0.283315 
        4.30404         2.69483         0.28062 
        4.31974         2.67699        0.277967 
        4.33543         2.65777        0.275349 
        4.35116         2.64648        0.272758 
        4.36688         2.63013        0.270201 
        4.38255         2.61585        0.267686 
        4.39825         2.59594        0.265198 
        4.41398         2.57898        0.262736 
         4.4297         2.56633        0.260308 
        4.44541         2.54911         0.25791 
        4.46111         2.52916        0.255545 
        4.47683         2.52058        0.253207 
        4.49251         2.49613        0.250903 
        4.50819         2.48594        0.248627 
         4.5239         2.46422        0.246377 
        4.53962         2.45343        0.244152 
        4.55535         2.43546        0.241952 
        4.57106          2.4191        0.239783 
        4.58678         2.40944         0.23764 
         4.6025         2.39651        0.235522 
        4.61821         2.37692         0.23343 
        4.63391         2.36383        0.231366 
         4.6496          2.3503        0.229327 
        4.66532         2.33113         0.22731 
        4.68103         2.32132        0.225318 
        4.69673         2.30983        0.223351 
        4.71241         2.29443         0.22141 
        4.72811         2.28307        0.219488 
        4.74384          2.2763        0.217587 
        4.75955         2.25706        0.215711 
        4.77525          2.2452        0.213857 
        4.79096         2.23131        0.212023 
        4.80669         2.22065         0.21021 
         4.8224         2.20156         0.20842 
        4.83809         2.19575        0.206652 
        4.85379         2.18102        0.204903 
         4.8695         2.17278        0.203173 
        4.88521         2.15677        0.201464 
        4.90093          2.1433        0.199774 
        4.91663         2.13337        0.198105 
        4.93234         2.11519        0.196453 
        4.94807         2.11174        0.194818 
        4.96377          2.1014        0.193205 
        4.97943          2.0884        0.191614 
        4.99514         2.07707        0.190036 
        5.01086          2.0669        0.188474 
        5.02654         2.05305        0.186934 
        5.04227         2.04091        0.185407 
          5.058         2.02925        0.183896 
        5.07371         2.02251        0.182404 
        5.08942         2.00539        0.180929 
        5.10513          1.9977        0.179469 
        5.12084         1.98712        0.178025 
        5.13656          1.9754        0.176597 
        5.15225         1.96632        0.175187 
        5.16796         1.95842         0.17379 
        5.18369         1.94301        0.172407 
         5.1994         1.93708        0.171041 
        5.21509         1.92487        0.169691 
        5.23079         1.91487        0.168354 
        5.24649         1.90921        0.167033 
        5.26217         1.89916        0.165726 
        5.27788         1.88331        0.164431 
        5.29359         1.88203         0.16315 
        5.30933         1.87121        0.161881 
        5.32504         1.86013        0.160627 
        5.34073         1.85014        0.159387 
        5.35646           1.839        0.158158 
        5.37218         1.83317        0.156942 
        5.38789         1.82294        0.155741 
        5.40357         1.81464        0.154553 
        5.41929          1.8066        0.153375 
        5.43502         1.79672        0.152209 
         5.4507         1.78639        0.151057 
        5.46639         1.77149        0.149918 
        5.48212         1.76692        0.148787 
        5.49786         1.76558        0.147667 
        5.51353         1.75257        0.146563 
        5.52921         1.74575         0.14547 
        5.54495         1.73499        0.144385 
        5.56066         1.72651        0.143311 
        5.57637         1.72088        0.142249 
        5.59207         1.71076        0.141199 
        5.60778         1.70377        0.140158 
        5.62346         1.69451        0.139129 
        5.63916         1.68786         0.13811 
        5.65487         1.67899          0.1371 
         5.6706         1.67001        0.136099 
        5.68633         1.66535        0.135108 
        5.70203         1.65391        0.134128 
        5.71773         1.64665        0.133158 
        5.73344         1.64189        0.132198 
        5.74916         1.63262        0.131245 
        5.76486         1.62689        0.130304 
        5.78054         1.61966        0.129373 
        5.79626         1.61176        0.128448 
          5.812         1.60041        0.127531 
         5.8277         1.59564        0.126626 
        5.84339         1.58764         0.12573 
        5.85911         1.57886        0.124841 
        5.87484         1.57457         0.12396 
        5.89053         1.56777        0.123089 
        5.90623         1.56324        0.122227 
        5.92195         1.55329        0.121371 
        5.93767         1.54675        0.120523 
        5.95336          1.5374        0.119685 
        5.96905         1.53431        0.118856 
        5.98476         1.52586        0.118032 
        6.00048         1.52019        0.117217 
        6.01617         1.51344         0.11641 
        6.03185         1.50523        0.115612 
        6.04756         1.50072        0.114819 
        6.06331         1.49442        0.114032 
        6.07903         1.48672        0.113253 
        6.09473         1.48108        0.112483 
        6.11044         1.47664        0.111719 
        6.12616         1.47193        0.110963 
        6.14186         1.46346        0.110214 
        6.15755         1.45916        0.109472 
        6.17326         1.45263        0.108736 
        6.18898         1.44459        0.108006 
        6.20467         1.44044        0.107285 
        6.22036         1.43188         0.10657 
         6.2361         1.42806        0.105859 
         6.2518         1.42386        0.105156 
        6.26748         1.41708        0.104461 
        6.28319          1.4133        0.103771 
        6.29893         1.40579        0.103086 
        6.31463         1.39898        0.102408 
        6.33033         1.39283        0.101736 
        6.34604         1.38829         0.10107 
        6.36177         1.38406         0.10041 
        6.37747         1.38023       0.0997561 
