# k  (h/Mpc)    Pcb(k)  (Mpc/h)^3    Pcb_linear(k) (Mpc/h)^3   ShotnoiseSubtracted = true
      0.0200456         28639.3         29277.9 
      0.0350414         18384.9         19297.2 
      0.0492313         12913.7         13140.6 
      0.0637834         11020.7         10658.8 
      0.0800726          8560.8         8327.52 
       0.096163         5735.54         5807.51 
       0.111083         4538.31         4481.21 
       0.126058         4132.12         3956.34 
       0.142273         3590.64         3351.73 
       0.158546         3129.85         2587.67 
        0.17375         2473.78         2126.63 
       0.188953         2412.18         1917.53 
       0.204907         2254.82          1703.9 
       0.220756         1945.36         1426.24 
        0.23588         1745.58         1217.61 
         0.2514         1512.41         1097.95 
       0.267535         1502.91         996.086 
       0.283568         1358.24         874.459 
       0.299022         1287.51         769.583 
       0.314451          1218.5         697.764 
       0.330372          1111.7         639.829 
       0.346141         1070.89         579.566 
       0.361624         1028.04         522.944 
       0.377134         958.997         477.827 
       0.392932         906.608          440.92 
       0.408854         897.016         405.761 
       0.424564         819.899         372.401 
       0.440253         804.187         343.397 
       0.455999         776.396         318.845 
       0.471626         750.394         296.744 
        0.48727         714.731         275.825 
       0.502856         691.208         256.883 
       0.518488         684.932         240.115 
       0.534347         641.748         224.766 
       0.550082         626.284         210.626 
       0.565732         620.324         197.626 
       0.581496         584.628         185.744 
       0.597222         569.914         174.945 
       0.612804         559.601         165.049 
       0.628434         543.165         155.833 
       0.644267         528.404         147.207 
       0.660051         515.004         139.294 
       0.675724         505.508         132.021 
       0.691403         488.266         125.255 
       0.707174         470.452         118.919 
       0.722871         462.219         113.041 
        0.73838         454.466         107.619 
       0.754018         443.561         102.508 
       0.769845         435.466         97.6702 
        0.78569         426.872         93.1373 
       0.801365         414.863         88.9344 
       0.817031         404.728         84.9924 
       0.832809         398.947         81.2635 
       0.848511         391.023         77.7747 
       0.864097         377.235         74.5141 
       0.879701         370.752         71.4369 
       0.895507         368.054         68.4968 
       0.911279         358.525         65.7279 
        0.92691         352.184         63.1345 
       0.942635         341.628         60.6663 
       0.958396         334.626         58.3244 
       0.974128         329.123           56.11 
       0.989692         326.566          54.032 
        1.00528          317.37         52.0558 
        1.02113         312.602         50.1471 
        1.03692         306.734         48.3407 
        1.05264         301.569         46.6312 
        1.06832         293.959         45.0067 
        1.08405         288.362         43.4549 
        1.09979         284.199          41.975 
        1.11537         278.821         40.5784 
        1.13105         274.083         39.2367 
        1.14679         264.419         37.9502 
        1.16256         261.035         36.7187 
        1.17828         259.779         35.5456 
        1.19395         253.653         34.4275 
         1.2097         247.637         33.3516 
        1.22537         243.026         32.3266 
          1.241         239.358         31.3476 
        1.25666         237.322         30.4065 
        1.27241          231.92         29.4995 
        1.28819         227.714         28.6278 
        1.30392         222.984         27.7937 
        1.31957         220.932         26.9964 
        1.33529          217.95         26.2272 
        1.35108         212.998         25.4849 
        1.36674         209.651         24.7765 
         1.3824         206.789         24.0955 
        1.39811         202.867         23.4377 
        1.41389         200.437         22.8018 
        1.42964         197.874         22.1905 
        1.44531         195.077         21.6045 
        1.46101         191.213         21.0383 
        1.47667         188.092         20.4939 
        1.49229         186.348         19.9702 
        1.50793           181.6         19.4641 
        1.52367         180.578         18.9722 
        1.53953         177.032         18.4939 
        1.55526         174.566         18.0358 
        1.57092         171.814         17.5951 
        1.58662          169.35         17.1679 
        1.60235         167.151          16.754 
        1.61809         164.648         16.3535 
        1.63369         162.736         15.9696 
        1.64941         158.951         15.5952 
        1.66519         157.901         15.2313 
        1.68085         154.914         14.8816 
        1.69652         153.417         14.5427 
        1.71228         149.988         14.2124 
        1.72806         146.766          13.892 
        1.74368         145.339         13.5847 
        1.75933         144.033         13.2859 
        1.77505         141.718         12.9948 
        1.79081         139.988         12.7117 
         1.8065          137.06         12.4383 
        1.82218         135.662         12.1731 
        1.83797         133.966         11.9138 
        1.85367         132.353         11.6634 
        1.86928         129.634         11.4217 
        1.88497         128.929         11.1854 
        1.90073         126.524          10.955 
        1.91647         125.498         10.7312 
        1.93218         123.456         10.5141 
        1.94787         120.729         10.3032 
        1.96363         119.184         10.0973 
        1.97935         117.884         9.89741 
        1.99499         116.389         9.70402 
        2.01064         114.429         9.51548 
         2.0264         113.547         9.33074 
        2.04216         111.715         9.15096 
        2.05781         110.313         8.97702 
        2.07353         109.536         8.80696 
        2.08928         107.223          8.6409 
        2.10499         105.898         8.47955 
        2.12065         104.585         8.32277 
        2.13633         102.445         8.16979 
        2.15211         101.365         8.01965 
        2.16785         100.161         7.87367 
        2.18349         99.1516         7.73222 
        2.19916         97.4949         7.59393 
        2.21489         96.5093         7.45854 
        2.23063         94.9428         7.32634 
         2.2463         94.1366         7.19791 
        2.26194         92.4381         7.07286 
        2.27765         91.3803         6.95012 
        2.29341         90.0188         6.82996 
        2.30914         89.0032         6.71287 
        2.32486         87.7786         6.59857 
        2.34061          86.561         6.48672 
        2.35635         85.5636         6.37755 
        2.37203         84.5409         6.27125 
        2.38768         83.4205         6.16757 
        2.40339         82.3355         6.06585 
        2.41914         81.2953         5.96618 
        2.43483         80.1779         5.86908 
         2.4505         79.0925         5.77428 
        2.46622         78.5461         5.68124 
        2.48195         76.8404         5.59024 
        2.49759         76.3837         5.50169 
        2.51328          75.393         5.41482 
        2.52906         74.6496         5.32927 
        2.54479         73.5669         5.24587 
        2.56049         72.4587          5.1644 
        2.57618         71.5992         5.08472 
        2.59189         70.8893         5.00659 
        2.60758         69.8912         4.93022 
        2.62325         68.8369         4.85552 
        2.63898         68.2455         4.78209 
        2.65468         67.1079         4.71033 
        2.67044         66.6796         4.63972 
        2.68618         65.7913         4.57072 
        2.70184         65.0115         4.50338 
        2.71755         64.2733         4.43722 
        2.73329         63.5823         4.37228 
        2.74897         62.9095         4.30884 
        2.76462         62.3273          4.2468 
        2.78034         61.1312          4.1857 
        2.79607         60.2726         4.12574 
        2.81179         59.6511         4.06702 
        2.82749         59.1727         4.00949 
        2.84321         58.4583           3.953 
        2.85893           57.69         3.89762 
        2.87462         57.1944         3.84338 
        2.89033         56.4662         3.79011 
        2.90605         55.7464          3.7378 
        2.92176         55.0114          3.6865 
        2.93747         54.4051         3.63618 
        2.95318         53.8281         3.58678 
        2.96891          53.356         3.53827 
        2.98456         52.7173         3.49087 
        3.00023         52.0889         3.44426 
        3.01596         51.2717         3.39835 
        3.03164         50.9734          3.3534 
        3.04738         50.1169         3.30913 
         3.0631         49.7488         3.26566 
        3.07883         49.2619         3.22297 
        3.09456          48.433         3.18104 
        3.11026         48.0469         3.13992 
        3.12596         47.4893         3.09952 
        3.14163         47.0191         3.05993 
        3.15734         46.3829         3.02092 
        3.17308         45.9161          2.9825 
        3.18879         45.3636         2.94485 
        3.20447         45.0914         2.90789 
         3.2202         44.4723         2.87145 
         3.2359         43.9446          2.8357 
        3.25157         43.6015         2.80064 
        3.26729         43.1595         2.76605 
        3.28304          42.689         2.73198 
        3.29877         42.0298         2.69853 
        3.31446         41.7285          2.6657 
        3.33014         41.2072         2.63344 
        3.34585         40.6838         2.60167 
        3.36158         40.3817         2.57036 
        3.37727         39.9578         2.53967 
        3.39294         39.4714          2.5095 
        3.40867         39.0655         2.47971 
        3.42439         38.7732         2.45042 
        3.44008         38.2563         2.42165 
        3.45578         37.9252         2.39332 
        3.47153         37.5505         2.36538 
        3.48724         37.2484         2.33793 
        3.50292         36.7423         2.31097 
        3.51859         36.4143         2.28445 
        3.53431         36.0809         2.25826 
        3.55007          35.682         2.23242 
        3.56577         35.3158         2.20707 
        3.58146         34.8767         2.18213 
        3.59719         34.6046         2.15751 
        3.61292         34.2274         2.13328 
        3.62859          33.837         2.10951 
        3.64429         33.6309         2.08606 
        3.66003         33.2155         2.06288 
        3.67578         32.8185         2.04007 
        3.69146         32.4974         2.01768 
        3.70712         32.1889         1.99566 
        3.72284         31.8791         1.97389 
        3.73853         31.5049         1.95249 
        3.75422         31.2751         1.93138 
        3.76993         30.9195         1.91057 
        3.78564         30.6714         1.89007 
        3.80137         30.3031         1.86984 
        3.81707         30.0128         1.84994 
        3.83279         29.7645         1.83032 
        3.84853         29.4001         1.81094 
        3.86424         29.1121         1.79189 
        3.87992         28.8306         1.77313 
        3.89561         28.5903         1.75464 
        3.91134         28.4397         1.73637 
        3.92704         28.0596         1.71838 
        3.94273         27.7836         1.70066 
        3.95845         27.5509         1.68316 
        3.97418         27.3124         1.66589 
        3.98988         27.0316         1.64889 
        4.00554          26.793         1.63218 
        4.02125         26.5644         1.61564 
        4.03698         26.3216         1.59931 
        4.05268         26.1227         1.58324 
        4.06839         25.8189         1.56737 
         4.0841         25.5992         1.55173 
        4.09983         25.3923         1.53627 
        4.11555         25.1507         1.52103 
        4.13124         24.9322         1.50604 
        4.14693         24.7474         1.49124 
        4.16266         24.4527          1.4766 
        4.17839         24.2127         1.46216 
        4.19408         24.0509         1.44795 
        4.20977         23.7894         1.43391 
        4.22551         23.5578         1.42003 
        4.24123         23.3319         1.40635 
        4.25691         23.1206         1.39288 
        4.27259         22.9737         1.37958 
        4.28831         22.7308         1.36643 
        4.30404         22.5977         1.35344 
        4.31974         22.3259         1.34064 
        4.33543         22.1359         1.32801 
        4.35116         21.8552         1.31552 
        4.36688         21.7531         1.30319 
        4.38255         21.6019         1.29106 
        4.39825         21.4199         1.27906 
        4.41398         21.1975         1.26718 
         4.4297         21.0098         1.25547 
        4.44541         20.8487         1.24391 
        4.46111         20.6303          1.2325 
        4.47683         20.4728         1.22122 
        4.49251         20.2745         1.21011 
        4.50819         20.0886         1.19914 
         4.5239         19.9574         1.18828 
        4.53962         19.7912         1.17755 
        4.55535         19.5974         1.16694 
        4.57106          19.404         1.15648 
        4.58678          19.262         1.14614 
         4.6025          19.066         1.13593 
        4.61821          18.928         1.12584 
        4.63391         18.7756         1.11588 
         4.6496         18.6279         1.10605 
        4.66532         18.5097         1.09632 
        4.68103         18.3365         1.08671 
        4.69673         18.1629         1.07723 
        4.71241         17.9705         1.06787 
        4.72811         17.8845          1.0586 
        4.74384         17.6817         1.04943 
        4.75955         17.5297         1.04038 
        4.77525         17.4048         1.03144 
        4.79096         17.2574         1.02259 
        4.80669         17.1317         1.01385 
         4.8224         16.9867         1.00521 
        4.83809         16.8718        0.996687 
        4.85379         16.6968        0.988254 
         4.8695         16.6068         0.97991 
        4.88521         16.4283        0.971667 
        4.90093         16.2817        0.963515 
        4.91663         16.1727        0.955464 
        4.93234         16.0814        0.947496 
        4.94807         15.9127        0.939613 
        4.96377         15.7956        0.931833 
        4.97943         15.6587        0.924157 
        4.99514         15.5175        0.916547 
        5.01086         15.4098        0.909016 
        5.02654         15.3055        0.901589 
        5.04227         15.1618        0.894222 
          5.058         15.0153        0.886933 
        5.07371          14.932        0.879739 
        5.08942         14.8475        0.872623 
        5.10513         14.6666        0.865585 
        5.12084          14.577         0.85862 
        5.13656         14.4519        0.851733 
        5.15225         14.3354        0.844932 
        5.16796         14.2164        0.838193 
        5.18369          14.112        0.831522 
         5.1994         14.0038        0.824935 
        5.21509         13.9009        0.818425 
        5.23079         13.8256        0.811976 
        5.24649         13.6965        0.805602 
        5.26217          13.596          0.7993 
        5.27788         13.4898        0.793056 
        5.29359          13.388        0.786877 
        5.30933         13.2682        0.780754 
        5.32504         13.1708        0.774706 
        5.34073         13.0557        0.768729 
        5.35646         12.9602        0.762802 
        5.37218         12.8516        0.756936 
        5.38789         12.7264         0.75114 
        5.40357         12.6521        0.745412 
        5.41929         12.5641         0.73973 
        5.43502         12.4534        0.734106 
         5.4507         12.3888        0.728553 
        5.46639         12.3137        0.723057 
        5.48212         12.1948        0.717604 
        5.49786          12.122        0.712201 
        5.51353         12.0023        0.706879 
        5.52921         11.9557        0.701606 
        5.54495         11.8454        0.696371 
        5.56066         11.7741        0.691195 
        5.57637         11.6544        0.686071 
        5.59207         11.5758        0.681004 
        5.60778         11.4807        0.675985 
        5.62346         11.4019        0.671024 
        5.63916         11.3219        0.666107 
        5.65487         11.2458        0.661237 
         5.6706         11.1548        0.656409 
        5.68633         11.0597        0.651628 
        5.70203         11.0157        0.646903 
        5.71773         10.9117        0.642226 
        5.73344         10.8322        0.637592 
        5.74916          10.769        0.632999 
        5.76486          10.684        0.628457 
        5.78054         10.5967        0.623967 
        5.79626         10.5303        0.619507 
          5.812         10.4593        0.615087 
         5.8277         10.3691        0.610722 
        5.84339         10.3065        0.606399 
        5.85911         10.2166        0.602109 
        5.87484         10.1388        0.597861 
        5.89053         10.0523        0.593662 
        5.90623          9.9809        0.589502 
        5.92195         9.93835        0.585373 
        5.93767          9.8692        0.581286 
        5.95336         9.80049        0.577245 
        5.96905         9.71208        0.573243 
        5.98476         9.65129        0.569273 
        6.00048         9.56445         0.56534 
        6.01617         9.52547        0.561448 
        6.03185         9.45267        0.557598 
        6.04756         9.38292        0.553774 
        6.06331         9.30806        0.549977 
        6.07903         9.25049        0.546224 
        6.09473         9.18942        0.542509 
        6.11044         9.11462        0.538825 
        6.12616         9.04222        0.535175 
        6.14186         9.00697        0.531563 
        6.15755          8.9429        0.527984 
        6.17326         8.87567        0.524435 
        6.18898         8.79872        0.520916 
        6.20467         8.73048        0.517436 
        6.22036         8.68652        0.513988 
         6.2361         8.63214        0.510562 
         6.2518         8.57726        0.507172 
        6.26748         8.51509         0.50382 
        6.28319         8.45047        0.500489 
        6.29893         8.38986        0.497185 
        6.31463         8.35436        0.493916 
        6.33033          8.2822        0.490677 
        6.34604         8.25334        0.487465 
        6.36177         8.17533        0.484278 
        6.37747         8.12078        0.481126 
