# k  (h/Mpc)    Pcb(k)  (Mpc/h)^3    Pcb_linear(k) (Mpc/h)^3   ShotnoiseSubtracted = true
      0.0200456         24344.1         24852.3 
      0.0350414         15684.6         16380.3 
      0.0492313         11000.4         11154.3 
      0.0637834         9346.24         9047.68 
      0.0800726         7265.37         7068.75 
       0.096163         4869.14         4929.67 
       0.111083         3830.34         3803.84 
       0.126058         3495.86         3358.31 
       0.142273         3035.34         2845.09 
       0.158546         2611.16         2196.53 
        0.17375         2054.89         1805.17 
       0.188953         2000.77         1627.68 
       0.204907         1871.46         1446.34 
       0.220756         1607.95         1210.65 
        0.23588         1432.83         1033.56 
         0.2514         1236.77         931.987 
       0.267535         1225.93          845.52 
       0.283568          1107.1         742.278 
       0.299022         1045.41         653.255 
       0.314451          989.86         592.292 
       0.330372         905.174         543.114 
       0.346141         855.981          491.96 
       0.361624         821.976         443.897 
       0.377134         762.638           405.6 
       0.392932         724.999         374.272 
       0.408854         711.301         344.427 
       0.424564         653.091          316.11 
       0.440253         642.413          291.49 
       0.455999         612.039         270.649 
       0.471626         590.603         251.889 
        0.48727         561.689         234.132 
       0.502856         544.991         218.054 
       0.518488         537.729          203.82 
       0.534347         502.382         190.791 
       0.550082         486.016         178.789 
       0.565732          483.78         167.753 
       0.581496         453.067         157.667 
       0.597222         443.685         148.501 
       0.612804         433.826         140.101 
       0.628434         419.873         132.278 
       0.644267         407.783         124.955 
       0.660051         395.183         118.239 
       0.675724         389.559         112.065 
       0.691403         375.228         106.321 
       0.707174         362.192         100.943 
       0.722871         356.402         95.9544 
        0.73838         350.596         91.3519 
       0.754018         341.136         87.0133 
       0.769845         334.069         82.9066 
        0.78569         328.197         79.0589 
       0.801365         318.996         75.4913 
       0.817031         308.456         72.1452 
       0.832809         305.861           68.98 
       0.848511         298.123         66.0185 
       0.864097         290.031         63.2507 
       0.879701         285.072         60.6387 
       0.895507         281.323          58.143 
       0.911279         272.791         55.7926 
        0.92691         269.377         53.5912 
       0.942635         261.864         51.4961 
       0.958396         256.582         49.5083 
       0.974128         251.758         47.6286 
       0.989692         249.145         45.8647 
        1.00528         242.992         44.1872 
        1.02113         239.588          42.567 
        1.03692         234.107         41.0337 
        1.05264         231.388         39.5826 
        1.06832         225.231         38.2036 
        1.08405         221.629         36.8864 
        1.09979         216.477         35.6302 
        1.11537         213.931         34.4447 
        1.13105         208.935         33.3058 
        1.14679         203.796         32.2138 
        1.16256           201.5         31.1684 
        1.17828         199.961         30.1726 
        1.19395         194.612         29.2235 
         1.2097          192.52         28.3102 
        1.22537         188.805         27.4402 
          1.241         187.011         26.6092 
        1.25666         184.186         25.8104 
        1.27241          180.47         25.0405 
        1.28819         177.905         24.3005 
        1.30392         173.579         23.5925 
        1.31957         173.671         22.9157 
        1.33529         169.829         22.2628 
        1.35108         165.731         21.6327 
        1.36674         163.899         21.0313 
         1.3824         163.065         20.4533 
        1.39811          159.87         19.8949 
        1.41389         157.216         19.3552 
        1.42964         155.508         18.8363 
        1.44531         153.233         18.3388 
        1.46101         150.081         17.8582 
        1.47667         147.727         17.3961 
        1.49229         147.154         16.9516 
        1.50793         143.051          16.522 
        1.52367         142.016         16.1044 
        1.53953         139.953         15.6984 
        1.55526         136.987         15.3096 
        1.57092         135.503         14.9354 
        1.58662         134.085         14.5729 
        1.60235         131.451         14.2215 
        1.61809         130.701         13.8816 
        1.63369         128.052         13.5557 
        1.64941         125.183         13.2378 
        1.66519         124.009          12.929 
        1.68085         122.387         12.6321 
        1.69652         121.355         12.3445 
        1.71228         118.694         12.0641 
        1.72806         116.908         11.7921 
        1.74368         116.138         11.5312 
        1.75933         113.841         11.2777 
        1.77505         112.818         11.0305 
        1.79081         111.422         10.7903 
         1.8065         109.614         10.5582 
        1.82218         108.397         10.3331 
        1.83797         106.782         10.1129 
        1.85367         105.304          9.9004 
        1.86928         103.572         9.69521 
        1.88497         102.576         9.49468 
        1.90073         100.851         9.29905 
        1.91647         99.4476         9.10908 
        1.93218         98.4072         8.92478 
        1.94787         96.4197         8.74582 
        1.96363         95.3694         8.57103 
        1.97935         94.1415         8.40134 
        1.99499         92.8579         8.23718 
        2.01064         91.4094         8.07715 
         2.0264         90.4843         7.92033 
        2.04216         89.1674         7.76773 
        2.05781         88.2551         7.62008 
        2.07353         87.5062         7.47572 
        2.08928         85.3209         7.33477 
        2.10499         84.4238          7.1978 
        2.12065         83.3933         7.06472 
        2.13633         82.3695         6.93487 
        2.15211         81.1596         6.80742 
        2.16785         79.9118         6.68351 
        2.18349         78.9964         6.56344 
        2.19916         78.1602         6.44605 
        2.21489          77.212         6.33113 
        2.23063          75.951         6.21891 
         2.2463         75.2959         6.10989 
        2.26194         73.9447         6.00375 
        2.27765         72.9037         5.89956 
        2.29341         72.4956         5.79756 
        2.30914         71.2079         5.69817 
        2.32486         70.5372         5.60115 
        2.34061         69.7283          5.5062 
        2.35635         68.5118         5.41353 
        2.37203         67.5804          5.3233 
        2.38768         66.7738          5.2353 
        2.40339         65.9982         5.14896 
        2.41914         65.1896         5.06435 
        2.43483         64.4307         4.98192 
         2.4505         63.3906         4.90146 
        2.46622         62.6814         4.82248 
        2.48195         61.8157         4.74523 
        2.49759          60.992         4.67007 
        2.51328           60.66         4.59633 
        2.52906         59.6686         4.52371 
        2.54479         58.8414         4.45292 
        2.56049         58.0944         4.38376 
        2.57618         57.6491         4.31613 
        2.59189         56.7244         4.24981 
        2.60758         55.9914         4.18498 
        2.62325         55.4627         4.12157 
        2.63898         54.5593         4.05925 
        2.65468         54.0613         3.99833 
        2.67044         53.5237          3.9384 
        2.68618         52.9217         3.87982 
        2.70184         52.5384         3.82266 
        2.71755         51.5782          3.7665 
        2.73329         51.0078         3.71138 
        2.74897         50.5286         3.65753 
        2.76462         49.7732         3.60486 
        2.78034         49.3066           3.553 
        2.79607         48.7154         3.50211 
        2.81179         48.1619         3.45226 
        2.82749         47.6844         3.40343 
        2.84321         47.1458         3.35548 
        2.85893         46.5428         3.30846 
        2.87462         46.0236         3.26242 
        2.89033         45.5061         3.21721 
        2.90605         44.9028         3.17281 
        2.92176         44.3399         3.12926 
        2.93747         44.0292         3.08655 
        2.95318         43.4921         3.04461 
        2.96891         42.9758         3.00344 
        2.98456         42.4501          2.9632 
        3.00023         41.8201         2.92363 
        3.01596         41.4235         2.88466 
        3.03164         40.9346         2.84651 
        3.04738         40.6521         2.80893 
         3.0631         40.0036         2.77203 
        3.07883         39.8022         2.73579 
        3.09456         39.1884          2.7002 
        3.11026         38.7659          2.6653 
        3.12596         38.1692         2.63101 
        3.14163         38.0423          2.5974 
        3.15734         37.5631         2.56429 
        3.17308         37.0872         2.53167 
        3.18879         36.7692         2.49971 
        3.20447         36.2605         2.46834 
         3.2202          35.973         2.43741 
         3.2359         35.6011         2.40706 
        3.25157         35.0889          2.3773 
        3.26729           34.73         2.34794 
        3.28304         34.4579         2.31902 
        3.29877         34.1019         2.29062 
        3.31446         33.4434         2.26276 
        3.33014         33.3547         2.23538 
        3.34585         32.9327         2.20841 
        3.36158         32.7033         2.18183 
        3.37727         32.3661         2.15578 
        3.39294         32.0687         2.13017 
        3.40867         31.6161         2.10488 
        3.42439         31.2932         2.08002 
        3.44008         30.9961          2.0556 
        3.45578         30.6291         2.03155 
        3.47153         30.3413         2.00783 
        3.48724          29.996         1.98453 
        3.50292         29.7603         1.96165 
        3.51859         29.4648         1.93914 
        3.53431          29.113         1.91691 
        3.55007         28.7306         1.89497 
        3.56577         28.5479         1.87346 
        3.58146         28.2828         1.85229 
        3.59719         27.9768         1.83139 
        3.61292         27.6918         1.81082 
        3.62859         27.4314         1.79065 
        3.64429         27.1312         1.77073 
        3.66003          26.897         1.75106 
        3.67578         26.6643          1.7317 
        3.69146         26.3884         1.71269 
        3.70712         26.0999         1.69401 
        3.72284         25.8167         1.67553 
        3.73853         25.5662         1.65735 
        3.75422         25.3431         1.63944 
        3.76993          25.119         1.62178 
        3.78564         24.8389         1.60438 
        3.80137         24.5735          1.5872 
        3.81707         24.3663         1.57031 
        3.83279         24.1096         1.55365 
        3.84853         23.8634         1.53721 
        3.86424         23.7394         1.52103 
        3.87992         23.4219         1.50511 
        3.89561         23.2991         1.48941 
        3.91134         23.0059          1.4739 
        3.92704         22.7932         1.45863 
        3.94273         22.5038         1.44359 
        3.95845         22.4073         1.42873 
        3.97418         22.1452         1.41408 
        3.98988         21.9204         1.39965 
        4.00554         21.7589         1.38546 
        4.02125         21.4803         1.37143 
        4.03698         21.3959         1.35756 
        4.05268         21.2182         1.34392 
        4.06839         20.9842         1.33045 
         4.0841         20.7784         1.31717 
        4.09983         20.5645         1.30406 
        4.11555         20.3332         1.29112 
        4.13124         20.1571         1.27839 
        4.14693         20.0407         1.26583 
        4.16266         19.7907          1.2534 
        4.17839         19.6166         1.24114 
        4.19408         19.4335         1.22908 
        4.20977         19.2503         1.21717 
        4.22551         19.0668         1.20539 
        4.24123         18.8713         1.19377 
        4.25691         18.7595         1.18234 
        4.27259          18.591         1.17105 
        4.28831         18.4363         1.15989 
        4.30404         18.2967         1.14886 
        4.31974         18.0878         1.13799 
        4.33543         17.9535         1.12728 
        4.35116         17.7437         1.11667 
        4.36688         17.6415          1.1062 
        4.38255         17.4673         1.09591 
        4.39825         17.3401         1.08572 
        4.41398         17.1557         1.07564 
         4.4297         17.0124          1.0657 
        4.44541         16.8565         1.05588 
        4.46111         16.6974          1.0462 
        4.47683         16.6002         1.03663 
        4.49251         16.4018         1.02719 
        4.50819         16.2824         1.01788 
         4.5239         16.1692         1.00867 
        4.53962         16.0193        0.999554 
        4.55535         15.9235         0.99055 
        4.57106         15.7519        0.981669 
        4.58678         15.6071        0.972894 
         4.6025         15.4927        0.964223 
        4.61821         15.3398        0.955659 
        4.63391          15.186        0.947209 
         4.6496         15.1107        0.938864 
        4.66532         14.9448        0.930606 
        4.68103         14.8226         0.92245 
        4.69673          14.689        0.914398 
        4.71241         14.5452         0.90645 
        4.72811          14.442        0.898583 
        4.74384         14.3254        0.890798 
        4.75955         14.2509        0.883117 
        4.77525         14.0864         0.87553 
        4.79096         14.0039        0.868021 
        4.80669           13.83        0.860597 
         4.8224         13.7398        0.853268 
        4.83809         13.6302         0.84603 
        4.85379         13.5223        0.838872 
         4.8695         13.4228         0.83179 
        4.88521         13.2989        0.824792 
        4.90093         13.1745        0.817873 
        4.91663         13.1095        0.811039 
        4.93234         12.9797        0.804275 
        4.94807         12.8937        0.797583 
        4.96377         12.7654         0.79098 
        4.97943         12.6577        0.784464 
        4.99514         12.5706        0.778004 
        5.01086         12.4705        0.771612 
        5.02654         12.3609        0.765307 
        5.04227         12.2828        0.759054 
          5.058         12.1818        0.752866 
        5.07371         12.0625         0.74676 
        5.08942         11.9601         0.74072 
        5.10513         11.8686        0.734745 
        5.12084         11.7881        0.728833 
        5.13656         11.6703        0.722987 
        5.15225         11.6168        0.717214 
        5.16796         11.4974        0.711494 
        5.18369         11.4221        0.705832 
         5.1994         11.3315         0.70024 
        5.21509         11.2704        0.694714 
        5.23079         11.1698         0.68924 
        5.24649         11.0766        0.683829 
        5.26217         10.9758         0.67848 
        5.27788         10.9065         0.67318 
        5.29359         10.8345        0.667935 
        5.30933         10.7261        0.662738 
        5.32504         10.6366        0.657604 
        5.34073         10.5731         0.65253 
        5.35646         10.4787        0.647499 
        5.37218         10.4003         0.64252 
        5.38789         10.3349          0.6376 
        5.40357         10.2395        0.632737 
        5.41929         10.1736        0.627914 
        5.43502         10.0749        0.623141 
         5.4507         10.0198        0.618427 
        5.46639         9.94062        0.613762 
        5.48212         9.87839        0.609133 
        5.49786         9.77022        0.604546 
        5.51353         9.70968        0.600029 
        5.52921         9.64402        0.595553 
        5.54495         9.57234         0.59111 
        5.56066         9.51705        0.586716 
        5.57637         9.43733        0.582367 
        5.59207         9.37583        0.578065 
        5.60778         9.28836        0.573805 
        5.62346         9.22381        0.569594 
        5.63916         9.14774         0.56542 
        5.65487         9.07401        0.561286 
         5.6706          9.0191        0.557188 
        5.68633         8.96164        0.553129 
        5.70203         8.88923        0.549119 
        5.71773         8.82673        0.545149 
        5.73344         8.75984        0.541215 
        5.74916         8.71608        0.537317 
        5.76486         8.62789        0.533461 
        5.78054         8.57029         0.52965 
        5.79626         8.51968        0.525864 
          5.812         8.43045        0.522112 
         5.8277         8.38636        0.518407 
        5.84339         8.32141        0.514737 
        5.85911          8.2658        0.511096 
        5.87484         8.19631         0.50749 
        5.89053         8.15428        0.503926 
        5.90623         8.10201        0.500394 
        5.92195         8.05102         0.49689 
        5.93767         7.97061        0.493421 
        5.95336           7.929         0.48999 
        5.96905         7.86994        0.486593 
        5.98476         7.81215        0.483224 
        6.00048         7.75468        0.479885 
        6.01617         7.70797        0.476581 
        6.03185         7.64453        0.473313 
        6.04756         7.59751        0.470067 
        6.06331         7.56439        0.466844 
        6.07903         7.48572        0.463658 
        6.09473         7.44759        0.460505 
        6.11044          7.3824        0.457378 
        6.12616         7.34332         0.45428 
        6.14186         7.30052        0.451213 
        6.15755         7.23845        0.448175 
        6.17326         7.18472        0.445163 
        6.18898         7.15904        0.442176 
        6.20467          7.1016        0.439222 
        6.22036         7.04066        0.436295 
         6.2361          6.9961        0.433386 
         6.2518         6.94397        0.430509 
        6.26748         6.89292        0.427664 
        6.28319         6.85045        0.424836 
        6.29893         6.80128        0.422032 
        6.31463         6.76167        0.419257 
        6.33033         6.71149        0.416508 
        6.34604         6.66404        0.413781 
        6.36177         6.63432        0.411076 
        6.37747          6.5871          0.4084 
