# k  (h/Mpc)    Pcb(k)  (Mpc/h)^3    Pcb_linear(k) (Mpc/h)^3   ShotnoiseSubtracted = true
      0.0200456         7475.84         7568.64 
      0.0350414         5127.74         4988.52 
      0.0492313         3396.23         3396.99 
      0.0637834         2694.33         2755.42 
      0.0800726            2090         2152.75 
       0.096163         1561.34          1501.3 
       0.111083         1223.25         1158.44 
       0.126058         1024.55         1022.76 
       0.142273          873.75         866.457 
       0.158546         700.148          668.94 
        0.17375         593.155         549.756 
       0.188953         540.049         495.701 
       0.204907         458.958         440.476 
       0.220756         405.426         368.697 
        0.23588          353.08         314.764 
         0.2514         314.009         283.832 
       0.267535         299.056         257.499 
       0.283568         259.179         226.057 
       0.299022         241.932         198.945 
       0.314451         234.003         180.379 
       0.330372         202.459         165.403 
       0.346141         186.096         149.824 
       0.361624         174.106         135.186 
       0.377134         159.073         123.523 
       0.392932         153.647         113.983 
       0.408854         144.476         104.893 
       0.424564         137.111         96.2697 
       0.440253         123.864         88.7717 
       0.455999         114.879         82.4248 
       0.471626         111.528         76.7113 
        0.48727         106.918         71.3037 
       0.502856         97.5037          66.407 
       0.518488         95.3535         62.0723 
       0.534347         89.0658         58.1044 
       0.550082         86.5432         54.4491 
       0.565732         84.1767         51.0884 
       0.581496         77.0757         48.0167 
       0.597222         75.0182         45.2252 
       0.612804         71.8903         42.6669 
       0.628434         70.1922         40.2845 
       0.644267           66.18         38.0545 
       0.660051         63.9918          36.009 
       0.675724         62.1101         34.1287 
       0.691403         60.7355         32.3796 
       0.707174         58.3033         30.7418 
       0.722871         56.9487         29.2224 
        0.73838         54.8029         27.8207 
       0.754018         51.5311         26.4994 
       0.769845         51.0398         25.2488 
        0.78569          49.319          24.077 
       0.801365         47.6584         22.9905 
       0.817031         45.9029         21.9714 
       0.832809         44.9371         21.0075 
       0.848511          43.817         20.1056 
       0.864097         42.8266         19.2627 
       0.879701         41.8135         18.4672 
       0.895507         40.1833         17.7071 
       0.911279         39.3093         16.9913 
        0.92691         38.4132         16.3209 
       0.942635         37.4233         15.6829 
       0.958396         37.1348         15.0775 
       0.974128         36.1166          14.505 
       0.989692         34.9067         13.9678 
        1.00528         34.2598          13.457 
        1.02113         33.3599         12.9635 
        1.03692         33.0797         12.4966 
        1.05264         32.2534         12.0547 
        1.06832         31.4745         11.6347 
        1.08405         30.7701         11.2335 
        1.09979         30.5043          10.851 
        1.11537         29.5524         10.4899 
        1.13105         28.8523         10.1431 
        1.14679         28.3916         9.81053 
        1.16256         27.9712         9.49217 
        1.17828         27.5889         9.18891 
        1.19395          26.772         8.89987 
         1.2097          26.702         8.62173 
        1.22537         25.9593         8.35677 
          1.241         25.5766         8.10369 
        1.25666         24.9819         7.86041 
        1.27241         24.7982         7.62593 
        1.28819         24.0716         7.40059 
        1.30392         23.8589         7.18496 
        1.31957         23.5745         6.97884 
        1.33529         23.1109         6.78002 
        1.35108         22.6977         6.58812 
        1.36674         22.3524         6.40498 
         1.3824         21.9849         6.22893 
        1.39811         21.5271         6.05889 
        1.41389          21.224         5.89452 
        1.42964         21.1381         5.73649 
        1.44531          20.637         5.58499 
        1.46101         20.4199         5.43862 
        1.47667         20.1316          5.2979 
        1.49229         19.6673         5.16251 
        1.50793         19.5634         5.03168 
        1.52367         19.1394         4.90451 
        1.53953         19.0625         4.78087 
        1.55526          18.678         4.66245 
        1.57092         18.4868         4.54851 
        1.58662         18.2355         4.43808 
        1.60235         17.9587         4.33109 
        1.61809         17.7141         4.22756 
        1.63369         17.5285          4.1283 
        1.64941         17.2472         4.03151 
        1.66519         17.0716         3.93745 
        1.68085         16.7058         3.84705 
        1.69652         16.5913         3.75944 
        1.71228         16.4868         3.67405 
        1.72806         16.1457         3.59123 
        1.74368         15.9772         3.51178 
        1.75933         15.8171         3.43456 
        1.77505         15.6356         3.35928 
        1.79081         15.4278         3.28612 
         1.8065         15.2572         3.21543 
        1.82218         15.0785         3.14688 
        1.83797         14.9848         3.07984 
        1.85367         14.8002         3.01511 
        1.86928         14.6784         2.95262 
        1.88497         14.4379         2.89155 
        1.90073         14.2759         2.83198 
        1.91647         14.0437         2.77412 
        1.93218         14.0497         2.71799 
        1.94787         13.8179         2.66349 
        1.96363         13.6724         2.61026 
        1.97935         13.4526         2.55858 
        1.99499         13.3523         2.50859 
        2.01064          13.147         2.45985 
         2.0264         13.0575         2.41209 
        2.04216         13.0005         2.36562 
        2.05781         12.7831         2.32065 
        2.07353         12.6827         2.27669 
        2.08928         12.5087         2.23376 
        2.10499         12.3343         2.19205 
        2.12065         12.2625         2.15152 
        2.13633         12.1596         2.11198 
        2.15211         11.9732         2.07316 
        2.16785         11.9439         2.03543 
        2.18349         11.7694         1.99886 
        2.19916         11.6389         1.96311 
        2.21489         11.4803         1.92811 
        2.23063          11.434         1.89393 
         2.2463         11.2819         1.86073 
        2.26194         11.1764         1.82841 
        2.27765         11.0103         1.79668 
        2.29341         10.9415         1.76562 
        2.30914         10.8237         1.73535 
        2.32486         10.7705          1.7058 
        2.34061          10.633         1.67688 
        2.35635         10.5164         1.64866 
        2.37203         10.4332         1.62118 
        2.38768         10.2916         1.59438 
        2.40339         10.2978         1.56809 
        2.41914         10.1407         1.54232 
        2.43483         10.0005         1.51722 
         2.4505         9.91264         1.49271 
        2.46622         9.86685         1.46866 
        2.48195         9.76206         1.44513 
        2.49759         9.64531         1.42224 
        2.51328         9.60207         1.39979 
        2.52906         9.47796         1.37767 
        2.54479         9.39138         1.35611 
        2.56049          9.2861         1.33505 
        2.57618          9.2734         1.31445 
        2.59189         9.15228         1.29426 
        2.60758         9.03317         1.27451 
        2.62325         8.98316          1.2552 
        2.63898         8.93587         1.23622 
        2.65468          8.8123         1.21767 
        2.67044         8.77116         1.19942 
        2.68618         8.67155         1.18158 
        2.70184         8.60357         1.16417 
        2.71755         8.51607         1.14707 
        2.73329         8.44323         1.13028 
        2.74897         8.37515         1.11388 
        2.76462         8.29676         1.09784 
        2.78034         8.21743         1.08205 
        2.79607         8.15917         1.06655 
        2.81179         8.10033         1.05137 
        2.82749         8.01989         1.03649 
        2.84321         7.96841         1.02189 
        2.85893         7.87747         1.00757 
        2.87462         7.83087        0.993553 
        2.89033         7.73278        0.979783 
        2.90605         7.69608        0.966261 
        2.92176         7.63732        0.952999 
        2.93747         7.56768        0.939991 
        2.95318         7.50408        0.927221 
        2.96891         7.43879        0.914681 
        2.98456         7.36076        0.902426 
        3.00023         7.30872        0.890377 
        3.01596         7.25246        0.878508 
        3.03164         7.20172        0.866889 
        3.04738         7.13426        0.855444 
         3.0631         7.04873        0.844207 
        3.07883         7.00914        0.833171 
        3.09456         6.93644        0.822333 
        3.11026         6.88252        0.811702 
        3.12596         6.84065        0.801259 
        3.14163         6.80103        0.791023 
        3.15734         6.73098         0.78094 
        3.17308         6.68174        0.771008 
        3.18879         6.63495        0.761274 
        3.20447         6.56913        0.751721 
         3.2202         6.51179        0.742301 
         3.2359         6.46033        0.733058 
        3.25157         6.42433        0.723993 
        3.26729         6.37036        0.715053 
        3.28304         6.29526        0.706246 
        3.29877         6.27149        0.697597 
        3.31446         6.22447        0.689111 
        3.33014         6.16504        0.680772 
        3.34585         6.10581        0.672558 
        3.36158         6.07806        0.664466 
        3.37727         6.03786        0.656531 
        3.39294         5.99057        0.648732 
        3.40867          5.9534        0.641031 
        3.42439         5.88899        0.633458 
        3.44008         5.84459        0.626022 
        3.45578         5.80594        0.618698 
        3.47153         5.76365        0.611475 
        3.48724         5.69714        0.604378 
        3.50292         5.65777         0.59741 
        3.51859         5.63246        0.590554 
        3.53431         5.56957        0.583784 
        3.55007         5.52152        0.577103 
        3.56577         5.48766        0.570551 
        3.58146         5.46865        0.564104 
        3.59719          5.4023         0.55774 
        3.61292         5.38563        0.551476 
        3.62859         5.34082        0.545331 
        3.64429         5.29722        0.539267 
        3.66003         5.25752        0.533277 
        3.67578         5.21653        0.527378 
        3.69146         5.19552        0.521591 
        3.70712         5.13751          0.5159 
        3.72284         5.10601        0.510272 
        3.73853         5.07744        0.504738 
        3.75422         5.03651        0.499283 
        3.76993         4.99653        0.493903 
        3.78564         4.95813        0.488604 
        3.80137         4.92032        0.483374 
        3.81707         4.87443         0.47823 
        3.83279         4.85096        0.473157 
        3.84853         4.80566        0.468148 
        3.86424         4.76967        0.463221 
        3.87992         4.74732        0.458372 
        3.89561         4.69762        0.453592 
        3.91134         4.67142        0.448869 
        3.92704         4.63857        0.444219 
        3.94273         4.60992        0.439638 
        3.95845         4.57967        0.435113 
        3.97418         4.54707        0.430651 
        3.98988         4.51032        0.426257 
        4.00554         4.48318        0.421935 
        4.02125         4.45216         0.41766 
        4.03698         4.40728        0.413438 
        4.05268         4.37856        0.409283 
        4.06839         4.33207        0.405182 
         4.0841         4.32375        0.401138 
        4.09983         4.27314        0.397143 
        4.11555         4.25418        0.393203 
        4.13124         4.21361        0.389328 
        4.14693         4.18425        0.385501 
        4.16266         4.15368        0.381716 
        4.17839         4.13115        0.377984 
        4.19408         4.10611        0.374309 
        4.20977         4.07404        0.370682 
        4.22551         4.04323        0.367094 
        4.24123         4.00654        0.363556 
        4.25691         3.98388        0.360075 
        4.27259          3.9478        0.356637 
        4.28831         3.92916        0.353237 
        4.30404         3.89029        0.349878 
        4.31974          3.8731         0.34657 
        4.33543         3.83085        0.343305 
        4.35116         3.80969        0.340075 
        4.36688         3.79425        0.336887 
        4.38255         3.76541        0.333752 
        4.39825         3.73975         0.33065 
        4.41398         3.71692         0.32758 
         4.4297         3.68968        0.324552 
        4.44541         3.66357        0.321563 
        4.46111         3.63759        0.318614 
        4.47683          3.6127        0.315699 
        4.49251         3.59522        0.312826 
        4.50819          3.5752        0.309989 
         4.5239         3.54163        0.307183 
        4.53962         3.51863        0.304409 
        4.55535         3.49316        0.301667 
        4.57106         3.47669        0.298962 
        4.58678         3.45392        0.296289 
         4.6025         3.42759        0.293649 
        4.61821         3.40443        0.291041 
        4.63391         3.37588        0.288467 
         4.6496         3.34922        0.285926 
        4.66532         3.33092        0.283411 
        4.68103         3.31945        0.280927 
        4.69673         3.28749        0.278475 
        4.71241         3.26922        0.276054 
        4.72811         3.25347        0.273659 
        4.74384         3.23549        0.271288 
        4.75955         3.20262        0.268948 
        4.77525         3.18649        0.266638 
        4.79096         3.16859        0.264351 
        4.80669         3.15544         0.26209 
         4.8224         3.12624        0.259858 
        4.83809         3.10641        0.257654 
        4.85379         3.08807        0.255474 
         4.8695         3.05885        0.253317 
        4.88521         3.04681        0.251186 
        4.90093         3.02484        0.249079 
        4.91663         3.01357        0.246998 
        4.93234         2.99191        0.244938 
        4.94807         2.97356          0.2429 
        4.96377         2.95711        0.240889 
        4.97943         2.93075        0.238904 
        4.99514         2.92206        0.236937 
        5.01086          2.8972         0.23499 
        5.02654         2.88184         0.23307 
        5.04227         2.87018        0.231166 
          5.058         2.84207        0.229281 
        5.07371         2.83103        0.227422 
        5.08942         2.81222        0.225582 
        5.10513         2.80277        0.223763 
        5.12084         2.78244        0.221962 
        5.13656         2.76227        0.220182 
        5.15225         2.74221        0.218424 
        5.16796          2.7264        0.216682 
        5.18369         2.71635        0.214957 
         5.1994         2.69409        0.213254 
        5.21509         2.67916        0.211571 
        5.23079         2.66436        0.209904 
        5.24649         2.64875        0.208257 
        5.26217         2.63346        0.206627 
        5.27788         2.61486        0.205013 
        5.29359         2.60216        0.203416 
        5.30933         2.58736        0.201833 
        5.32504         2.57178         0.20027 
        5.34073         2.55947        0.198724 
        5.35646         2.54142        0.197192 
        5.37218         2.52688        0.195676 
        5.38789           2.517        0.194178 
        5.40357         2.49756        0.192697 
        5.41929         2.48082        0.191228 
        5.43502          2.4663        0.189774 
         5.4507         2.45467        0.188339 
        5.46639         2.44212        0.186918 
        5.48212         2.42802        0.185508 
        5.49786         2.40887        0.184111 
        5.51353         2.39243        0.182736 
        5.52921         2.38517        0.181373 
        5.54495         2.37119        0.180019 
        5.56066         2.36034        0.178681 
        5.57637         2.34132        0.177357 
        5.59207         2.33033        0.176047 
        5.60778         2.32133        0.174749 
        5.62346          2.3109        0.173467 
        5.63916         2.29432        0.172196 
        5.65487         2.28236        0.170937 
         5.6706         2.26734        0.169689 
        5.68633          2.2555        0.168453 
        5.70203         2.24409        0.167231 
        5.71773         2.22825        0.166022 
        5.73344         2.21719        0.164824 
        5.74916         2.20665        0.163637 
        5.76486         2.19604        0.162463 
        5.78054         2.18046        0.161302 
        5.79626         2.17303        0.160149 
          5.812         2.16314        0.159006 
         5.8277         2.14931        0.157878 
        5.84339         2.13818         0.15676 
        5.85911         2.12587        0.155651 
        5.87484         2.11541        0.154553 
        5.89053         2.10397        0.153468 
        5.90623         2.09332        0.152392 
        5.92195         2.08093        0.151325 
        5.93767          2.0709        0.150269 
        5.95336         2.05887        0.149224 
        5.96905          2.0543        0.148189 
        5.98476         2.03762        0.147163 
        6.00048         2.02671        0.146146 
        6.01617         2.01912         0.14514 
        6.03185         2.00706        0.144145 
        6.04756         1.99608        0.143156 
        6.06331         1.98453        0.142175 
        6.07903         1.97335        0.141205 
        6.09473         1.96592        0.140244 
        6.11044         1.95716        0.139292 
        6.12616         1.94538        0.138348 
        6.14186         1.93772        0.137415 
        6.15755         1.92776        0.136489 
        6.17326         1.91722        0.135572 
        6.18898          1.9047        0.134662 
        6.20467         1.89897        0.133763 
        6.22036         1.88837        0.132871 
         6.2361         1.88083        0.131985 
         6.2518         1.87275        0.131109 
        6.26748         1.86122        0.130243 
        6.28319          1.8527        0.129382 
        6.29893         1.84535        0.128527 
        6.31463         1.83361        0.127682 
        6.33033         1.82849        0.126845 
        6.34604         1.81711        0.126015 
        6.36177         1.80942        0.125191 
        6.37747         1.80169        0.124376 
