# k  (h/Mpc)    Pcb(k)  (Mpc/h)^3    Pcb_linear(k) (Mpc/h)^3   ShotnoiseSubtracted = true
      0.0200456         20288.8         20637.3 
      0.0350414         15998.7         15556.5 
      0.0492313         11467.3         11752.7 
      0.0637834         9286.28         9817.32 
      0.0800726         7198.46         7666.27 
       0.096163          5849.9         5674.86 
       0.111083         4894.92         4685.45 
       0.126058         4033.77         4128.07 
       0.142273          3476.3         3396.49 
       0.158546         2880.13         2723.47 
        0.17375         2608.09         2373.77 
       0.188953         2463.72         2134.62 
       0.204907         2109.65          1838.5 
       0.220756         1908.62         1566.71 
        0.23588         1715.59            1399 
         0.2514         1555.09          1270.7 
       0.267535         1498.87         1127.47 
       0.283568         1336.24          995.19 
       0.299022         1278.76         901.614 
       0.314451         1329.24         826.452 
       0.330372         1175.35         749.724 
       0.346141         1080.72         679.055 
       0.361624         1038.43         622.714 
       0.377134         995.011         575.164 
       0.392932         952.507         529.523 
       0.408854         911.674          486.86 
       0.424564         893.079         450.596 
       0.440253         828.608         418.983 
       0.455999         793.134         389.675 
       0.471626         806.869         362.821 
        0.48727         762.984         338.739 
       0.502856         729.392         317.266 
       0.518488         711.454         297.465 
       0.534347         680.178           278.9 
       0.550082          650.11         262.097 
       0.565732         641.746         246.872 
       0.581496         628.505         232.744 
       0.597222         614.492         219.692 
       0.612804         601.222         207.744 
       0.628434         576.305         196.693 
       0.644267         559.947         186.327 
       0.660051         553.498         176.732 
       0.675724         542.674         167.869 
       0.691403         527.806         159.608 
       0.707174         511.031         151.857 
       0.722871         503.771         144.654 
        0.73838         495.634         137.995 
       0.754018         482.342         131.707 
       0.769845         476.332         125.742 
        0.78569         466.551         120.142 
       0.801365         450.833         114.939 
       0.817031         447.173         110.049 
       0.832809         440.732         105.413 
       0.848511         432.339         101.066 
       0.864097         423.332         96.9952 
       0.879701         420.599         93.1451 
       0.895507         404.635         89.4593 
       0.911279         399.414         85.9813 
        0.92691         394.732         82.7176 
       0.942635         391.253         79.6058 
       0.958396         377.659         76.6481 
       0.974128         373.412         73.8465 
       0.989692         361.158          71.213 
        1.00528         359.685         68.7045 
        1.02113         352.795         66.2779 
        1.03692         347.291         63.9779 
        1.05264         341.702         61.7979 
        1.06832         335.952         59.7232 
        1.08405         333.057         57.7386 
        1.09979         326.649         55.8432 
        1.11537         317.521          54.052 
        1.13105         314.428         52.3289 
        1.14679         309.434         50.6744 
        1.16256          306.98         49.0885 
        1.17828         301.991         47.5759 
        1.19395         294.343         46.1322 
         1.2097         293.473         44.7413 
        1.22537          287.71         43.4145 
          1.241         282.196         42.1457 
        1.25666         279.053         40.9246 
        1.27241         274.722         39.7463 
        1.28819         268.999         38.6124 
        1.30392         268.349         37.5262 
        1.31957         260.733         36.4867 
        1.33529         257.826         35.4828 
        1.35108         255.763         34.5129 
        1.36674         249.419         33.5861 
         1.3824          247.54         32.6944 
        1.39811         244.642         31.8321 
        1.41389         237.931         30.9977 
        1.42964         235.771         30.1946 
        1.44531         232.712          29.424 
        1.46101         229.056         28.6787 
        1.47667         226.101         27.9614 
        1.49229         222.922         27.2707 
        1.50793         219.878         26.6025 
        1.52367         216.809         25.9525 
        1.53953          211.93         25.3199 
        1.55526          211.11         24.7134 
        1.57092         208.794         24.1294 
        1.58662         204.104         23.5628 
        1.60235         201.968         23.0134 
        1.61809         199.494         22.4813 
        1.63369         195.685         21.9707 
        1.64941           193.3         21.4723 
        1.66519         190.741         20.9877 
        1.68085         187.394         20.5214 
        1.69652         185.568         20.0692 
        1.71228         182.639         19.6281 
        1.72806         180.298         19.1999 
        1.74368         178.522         18.7888 
        1.75933         177.027         18.3889 
        1.77505           174.1         17.9988 
        1.79081         170.564         17.6193 
         1.8065         168.975         17.2524 
        1.82218         165.639         16.8963 
        1.83797         164.454         16.5478 
        1.85367         162.216         16.2111 
        1.86928         159.366         15.8857 
        1.88497         158.181         15.5675 
        1.90073         156.348         15.2569 
        1.91647         153.164          14.955 
        1.93218          151.64         14.6619 
        1.94787         149.294         14.3772 
        1.96363         148.756         14.0988 
        1.97935         146.566         13.8284 
        1.99499         144.643         13.5667 
        2.01064         141.368         13.3113 
         2.0264         140.673         13.0609 
        2.04216         138.709          12.817 
        2.05781         136.192          12.581 
        2.07353         135.144           12.35 
        2.08928         133.455         12.1243 
        2.10499         131.996         11.9049 
        2.12065         130.437         11.6916 
        2.13633         128.631         11.4833 
        2.15211         126.541         11.2787 
        2.16785         125.148         11.0797 
        2.18349         123.627         10.8868 
        2.19916         122.091          10.698 
        2.21489         120.904         10.5131 
        2.23063         118.968         10.3324 
         2.2463         117.428         10.1568 
        2.26194         116.399          9.9857 
        2.27765         114.474         9.81767 
        2.29341          113.58         9.65307 
        2.30914         112.455         9.49258 
        2.32486         110.031         9.33583 
        2.34061         109.158         9.18236 
        2.35635         108.303         9.03248 
        2.37203         106.298         8.88646 
        2.38768          105.56         8.74396 
        2.40339          103.92         8.60408 
        2.41914         102.743         8.46693 
        2.43483         101.838         8.33325 
         2.4505         100.491         8.20269 
        2.46622         99.0763         8.07447 
        2.48195         98.1666         7.94898 
        2.49759         96.6346         7.82683 
        2.51328         95.9288         7.70692 
        2.52906         94.5533         7.58877 
        2.54479           93.44         7.47353 
        2.56049         92.2441         7.36091 
        2.57618          91.022         7.25071 
        2.59189         90.7111          7.1426 
        2.60758         88.9697         7.03686 
        2.62325         88.5946         6.93338 
        2.63898         87.4373         6.83163 
        2.65468         86.3348         6.73213 
        2.67044         85.0984         6.63419 
        2.68618         84.2338         6.53842 
        2.70184         83.1708         6.44492 
        2.71755         82.4861         6.35301 
        2.73329         81.0362         6.26276 
        2.74897         80.5485         6.17455 
        2.76462          79.618         6.08823 
        2.78034         78.3276         6.00321 
        2.79607         77.5313         5.91972 
        2.81179         76.9912         5.83791 
        2.82749          75.917         5.75774 
        2.84321         74.9634         5.67898 
        2.85893          74.022         5.60172 
        2.87462         73.3109         5.52603 
        2.89033         72.5759         5.45167 
        2.90605         71.9886          5.3786 
        2.92176         71.0237         5.30692 
        2.93747         70.3744         5.23657 
        2.95318         69.2963         5.16749 
        2.96891         68.8095         5.09962 
        2.98456         68.0248         5.03326 
        3.00023          67.173         4.96799 
        3.01596         66.7159         4.90368 
        3.03164         65.8306         4.84068 
        3.04738          65.393         4.77861 
         3.0631         64.4494         4.71764 
        3.07883         63.9083         4.65773 
        3.09456         63.0439         4.59888 
        3.11026         62.3744         4.54112 
        3.12596         61.7648         4.48437 
        3.14163         61.1411         4.42872 
        3.15734          60.407         4.37388 
        3.17308         59.9197         4.31983 
        3.18879         59.1211         4.26685 
        3.20447         58.7054         4.21483 
         3.2202         57.9337         4.16351 
         3.2359         57.3221         4.11314 
        3.25157         56.8996         4.06372 
        3.26729         56.2059         4.01497 
        3.28304         55.5105         3.96692 
        3.29877         55.0246         3.91971 
        3.31446         54.5315         3.87338 
        3.33014         54.0114         3.82783 
        3.34585         53.3824         3.78295 
        3.36158         52.9975         3.73871 
        3.37727         52.2937         3.69533 
        3.39294         51.9321         3.65267 
        3.40867         51.3729         3.61053 
        3.42439         50.7853         3.56907 
        3.44008         50.1929         3.52835 
        3.45578         49.9501         3.48823 
        3.47153         49.3366         3.44865 
        3.48724         48.8243         3.40975 
        3.50292         48.3089         3.37154 
        3.51859         47.9244         3.33393 
        3.53431         47.1673         3.29678 
        3.55007         46.7801          3.2601 
        3.56577         46.3648         3.22412 
        3.58146         45.7752         3.18871 
        3.59719         45.3598         3.15374 
        3.61292         44.9229         3.11931 
        3.62859         44.6271         3.08552 
        3.64429         44.2798         3.05216 
        3.66003         43.7657          3.0192 
        3.67578         43.3797         2.98673 
        3.69146         42.9351         2.95487 
        3.70712         42.5858         2.92352 
        3.72284         42.2247         2.89251 
        3.73853         41.7451         2.86201 
        3.75422         41.3019         2.83194 
        3.76993         40.9643         2.80227 
        3.78564         40.6412         2.77303 
        3.80137         40.2584         2.74417 
        3.81707         39.7824         2.71577 
        3.83279         39.4058         2.68776 
        3.84853         39.0071         2.66009 
        3.86424         38.6391         2.63287 
        3.87992          38.387         2.60607 
        3.89561          38.039         2.57963 
        3.91134         37.7257         2.55352 
        3.92704         37.2729         2.52779 
        3.94273         36.9909         2.50244 
        3.95845         36.6643         2.47739 
        3.97418          36.262         2.45268 
        3.98988         35.9569         2.42834 
        4.00554         35.6508         2.40439 
        4.02125         35.3543          2.3807 
        4.03698         34.9997         2.35729 
        4.05268         34.8478         2.33425 
        4.06839         34.3741          2.3115 
         4.0841         34.1306         2.28906 
        4.09983         33.7884         2.26689 
        4.11555         33.5163         2.24501 
        4.13124         33.1116         2.22349 
        4.14693         32.8664         2.20223 
        4.16266         32.5106         2.18119 
        4.17839          32.288         2.16045 
        4.19408         32.0756         2.14002 
        4.20977         31.7313         2.11984 
        4.22551         31.5023         2.09988 
        4.24123         31.1993         2.08019 
        4.25691         30.8884         2.06081 
        4.27259          30.686         2.04167 
        4.28831         30.3696         2.02274 
        4.30404         30.1385         2.00402 
        4.31974         29.8648         1.98559 
        4.33543          29.591         1.96739 
        4.35116         29.3363         1.94938 
        4.36688         29.0965          1.9316 
        4.38255         28.9282         1.91411 
        4.39825         28.5245          1.8968 
        4.41398         28.3548         1.87966 
         4.4297         28.1516         1.86276 
        4.44541         27.9892         1.84607 
        4.46111         27.6858         1.82959 
        4.47683         27.4295          1.8133 
        4.49251         27.2532         1.79724 
        4.50819         26.9887         1.78139 
         4.5239         26.6961          1.7657 
        4.53962         26.5485         1.75018 
        4.55535         26.2479         1.73483 
        4.57106         26.0642          1.7197 
        4.58678         25.9285         1.70474 
         4.6025         25.7058         1.68995 
        4.61821         25.4737         1.67534 
        4.63391         25.1948         1.66093 
         4.6496         25.0509         1.64669 
        4.66532         24.8827         1.63259 
        4.68103         24.5859         1.61866 
        4.69673         24.4146         1.60491 
        4.71241         24.2414         1.59134 
        4.72811         24.0405         1.57789 
        4.74384         23.8491         1.56459 
        4.75955          23.681         1.55146 
        4.77525         23.5095         1.53848 
        4.79096         23.2689         1.52564 
        4.80669         23.1296         1.51294 
         4.8224         22.9154          1.5004 
        4.83809         22.6674         1.48801 
        4.85379         22.5283         1.47575 
         4.8695         22.3638         1.46363 
        4.88521         22.1024         1.45164 
        4.90093         22.0216         1.43979 
        4.91663         21.8357         1.42808 
        4.93234         21.6364         1.41648 
        4.94807         21.4721         1.40501 
        4.96377         21.3385         1.39368 
        4.97943          21.108         1.38251 
        4.99514          20.993         1.37143 
        5.01086         20.8463         1.36046 
        5.02654           20.65         1.34963 
        5.04227         20.4974          1.3389 
          5.058         20.2987         1.32827 
        5.07371         20.1417         1.31778 
        5.08942         20.0219         1.30741 
        5.10513         19.9074         1.29714 
        5.12084         19.7362         1.28698 
        5.13656         19.5385         1.27693 
        5.15225         19.3996           1.267 
        5.16796         19.2484         1.25716 
        5.18369         19.0884         1.24742 
         5.1994         18.9412          1.2378 
        5.21509         18.8048         1.22829 
        5.23079         18.6869         1.21886 
        5.24649         18.5412         1.20955 
        5.26217         18.3968         1.20033 
        5.27788         18.2675          1.1912 
        5.29359         18.1259         1.18217 
        5.30933         17.9476         1.17321 
        5.32504         17.8382         1.16436 
        5.34073         17.7053         1.15561 
        5.35646         17.5623         1.14694 
        5.37218         17.4289         1.13835 
        5.38789         17.2818         1.12986 
        5.40357          17.201         1.12147 
        5.41929         17.0661         1.11314 
        5.43502         16.9194          1.1049 
         5.4507         16.8054         1.09677 
        5.46639         16.6574         1.08871 
        5.48212         16.5772         1.08071 
        5.49786         16.4341         1.07279 
        5.51353         16.3811         1.06498 
        5.52921          16.191         1.05724 
        5.54495         16.1163         1.04956 
        5.56066         15.9401         1.04196 
        5.57637         15.8421         1.03444 
        5.59207         15.7474           1.027 
        5.60778         15.6318         1.01963 
        5.62346          15.507         1.01234 
        5.63916         15.3902         1.00512 
        5.65487         15.2824        0.997958 
         5.6706         15.1607        0.990862 
        5.68633         15.0959        0.983832 
        5.70203         14.9698        0.976884 
        5.71773         14.8702        0.970005 
        5.73344         14.7619        0.963188 
        5.74916         14.6425         0.95643 
        5.76486         14.5191        0.949746 
        5.78054         14.4279        0.943136 
        5.79626         14.3175         0.93657 
          5.812         14.2297        0.930061 
         5.8277         14.1443        0.923632 
        5.84339         14.0275        0.917263 
        5.85911           13.92        0.910943 
        5.87484         13.8421        0.904683 
        5.89053         13.7331        0.898494 
        5.90623         13.6481         0.89236 
        5.92195          13.529        0.886272 
        5.93767         13.4349        0.880245 
        5.95336         13.3572        0.874283 
        5.96905         13.2493        0.868379 
        5.98476         13.2104        0.862521 
        6.00048         13.0825        0.856715 
        6.01617         12.9829         0.85097 
        6.03185         12.8827        0.845285 
        6.04756         12.8061        0.839637 
        6.06331         12.7326         0.83403 
        6.07903         12.6234        0.828485 
        6.09473         12.5574        0.822996 
        6.11044         12.4358        0.817551 
        6.12616         12.3681        0.812156 
        6.14186         12.2862        0.806816 
        6.15755         12.1977        0.801523 
        6.17326         12.1154        0.796274 
        6.18898         12.0244        0.791069 
        6.20467         11.9303        0.785921 
        6.22036         11.8546        0.780818 
         6.2361         11.7763        0.775746 
         6.2518         11.7262        0.770728 
        6.26748         11.6293        0.765766 
        6.28319         11.5758        0.760833 
        6.29893         11.4932        0.755939 
        6.31463         11.4053        0.751096 
        6.33033          11.316        0.746298 
        6.34604         11.2479        0.741538 
        6.36177          11.183        0.736814 
        6.37747         11.1023        0.732141 
