# k  (h/Mpc)    Pcb(k)  (Mpc/h)^3    Pcb_linear(k) (Mpc/h)^3   ShotnoiseSubtracted = true
      0.0200456         10383.8         10533.5 
      0.0350414         8129.79         7940.21 
      0.0492313         5934.04         5998.72 
      0.0637834         4828.71         5010.87 
      0.0800726         3755.34         3912.95 
       0.096163         2980.38         2896.51 
       0.111083         2493.93         2391.51 
       0.126058          2074.1         2107.02 
       0.142273          1750.7         1733.61 
       0.158546         1452.17         1390.09 
        0.17375         1295.03          1211.6 
       0.188953         1192.58         1089.54 
       0.204907         1006.79         938.392 
       0.220756         904.539         799.665 
        0.23588         811.861         714.064 
         0.2514         728.524         648.582 
       0.267535         701.613         575.475 
       0.283568         613.435         507.956 
       0.299022          586.08         460.194 
       0.314451         589.739          421.83 
       0.330372         507.104         382.668 
       0.346141         470.444         346.597 
       0.361624         449.425         317.841 
       0.377134         419.408          293.57 
       0.392932         407.673         270.275 
       0.408854         387.144         248.499 
       0.424564         373.634         229.989 
       0.440253         337.899         213.854 
       0.455999         323.505         198.895 
       0.471626          322.94         185.188 
        0.48727         307.345         172.896 
       0.502856         281.615         161.936 
       0.518488         282.536          151.83 
       0.534347         262.418         142.354 
       0.550082         255.922         133.778 
       0.565732         253.856         126.007 
       0.581496         239.341         118.795 
       0.597222         233.387         112.134 
       0.612804         227.019         106.035 
       0.628434         218.627         100.395 
       0.644267          209.01         95.1036 
       0.660051         204.695         90.2061 
       0.675724         202.978         85.6821 
       0.691403         197.062         81.4656 
       0.707174         190.462         77.5098 
       0.722871         187.532          73.833 
        0.73838         185.796         70.4345 
       0.754018         175.023         67.2246 
       0.769845          174.73         64.1801 
        0.78569         170.289         61.3219 
       0.801365         165.653         58.6662 
       0.817031         161.132         56.1703 
       0.832809         158.599         53.8042 
       0.848511         154.814         51.5854 
       0.864097         151.687         49.5074 
       0.879701         150.121         47.5423 
       0.895507         145.921         45.6611 
       0.911279         142.288         43.8858 
        0.92691         139.649           42.22 
       0.942635         137.335         40.6317 
       0.958396         135.178         39.1221 
       0.974128         132.183         37.6921 
       0.989692          129.13         36.3479 
        1.00528         127.606         35.0676 
        1.02113         124.299          33.829 
        1.03692         123.558          32.655 
        1.05264         121.855         31.5424 
        1.06832         118.474         30.4834 
        1.08405         117.223         29.4704 
        1.09979          116.32          28.503 
        1.11537         113.266         27.5888 
        1.13105         112.144         26.7093 
        1.14679         110.002         25.8648 
        1.16256         107.965         25.0553 
        1.17828         106.732         24.2833 
        1.19395         103.869         23.5464 
         1.2097         103.687         22.8365 
        1.22537         101.164         22.1593 
          1.241          100.82         21.5117 
        1.25666         97.4901         20.8884 
        1.27241         96.4705         20.2869 
        1.28819         95.8343         19.7082 
        1.30392          93.893         19.1538 
        1.31957         92.7844         18.6232 
        1.33529         91.5467         18.1108 
        1.35108         90.9166         17.6158 
        1.36674         89.2597         17.1428 
         1.3824         88.6471         16.6876 
        1.39811         86.2993         16.2475 
        1.41389         85.4042         15.8216 
        1.42964         84.1094         15.4117 
        1.44531         83.2874         15.0183 
        1.46101         82.3375         14.6379 
        1.47667         81.3247         14.2718 
        1.49229         80.4474         13.9193 
        1.50793         79.1387         13.5782 
        1.52367         78.5659         13.2465 
        1.53953         77.1892         12.9236 
        1.55526         75.9826          12.614 
        1.57092         75.8192         12.3159 
        1.58662         74.6155         12.0267 
        1.60235         73.4637         11.7463 
        1.61809         72.5061         11.4747 
        1.63369          71.464         11.2141 
        1.64941         71.3381         10.9597 
        1.66519         69.6002         10.7124 
        1.68085         69.1241         10.4744 
        1.69652         67.6389         10.2436 
        1.71228         67.2768         10.0184 
        1.72806         66.6534         9.79985 
        1.74368         65.6574         9.59002 
        1.75933         65.0443         9.38591 
        1.77505         64.4066         9.18679 
        1.79081         63.3008          8.9931 
         1.8065         63.0449         8.80583 
        1.82218         61.2233         8.62406 
        1.83797         61.0375         8.44618 
        1.85367         60.3671         8.27431 
        1.86928         59.8098         8.10825 
        1.88497         58.8496         7.94585 
        1.90073         58.0727         7.78729 
        1.91647         57.6252         7.63321 
        1.93218         57.1975         7.48363 
        1.94787         56.3159         7.33827 
        1.96363         55.4251          7.1962 
        1.97935         54.9385         7.05819 
        1.99499         54.3844         6.92458 
        2.01064         53.7884         6.79423 
         2.0264          53.314         6.66642 
        2.04216         52.4419         6.54197 
        2.05781         51.8113         6.42147 
        2.07353         51.0878         6.30359 
        2.08928         50.7542          6.1884 
        2.10499         50.2558          6.0764 
        2.12065         49.7226         5.96751 
        2.13633          49.255          5.8612 
        2.15211         48.4924         5.75679 
        2.16785         47.7779         5.65521 
        2.18349         47.2274         5.55673 
        2.19916          46.758         5.46038 
        2.21489         46.4661           5.366 
        2.23063         45.7022         5.27378 
         2.2463         45.3567         5.18414 
        2.26194         44.9029         5.09682 
        2.27765         44.2719         5.01105 
        2.29341         43.6578         4.92704 
        2.30914         43.3127         4.84512 
        2.32486         42.6407         4.76512 
        2.34061         42.3886         4.68678 
        2.35635         41.7723         4.61028 
        2.37203         41.4415         4.53575 
        2.38768         41.0644         4.46302 
        2.40339         40.6808         4.39162 
        2.41914          40.197         4.32162 
        2.43483         39.5246         4.25339 
         2.4505         39.3197         4.18674 
        2.46622         38.8881          4.1213 
        2.48195         38.4908         4.05725 
        2.49759         37.9694          3.9949 
        2.51328         37.6103          3.9337 
        2.52906         37.2533          3.8734 
        2.54479         36.8511         3.81458 
        2.56049          36.507          3.7571 
        2.57618         36.1132         3.70085 
        2.59189         35.5994         3.64566 
        2.60758         35.2542         3.59169 
        2.62325         35.0802         3.53888 
        2.63898         34.6555         3.48694 
        2.65468          34.213         3.43616 
        2.67044         33.8957         3.38617 
        2.68618         33.6831         3.33728 
        2.70184         33.1491         3.28956 
        2.71755         32.9147         3.24265 
        2.73329         32.4236         3.19658 
        2.74897         32.1062         3.15156 
        2.76462         31.7797          3.1075 
        2.78034         31.5657         3.06411 
        2.79607         31.1353         3.02149 
        2.81179          30.932         2.97974 
        2.82749         30.5421         2.93882 
        2.84321         30.2643         2.89862 
        2.85893         29.9989         2.85918 
        2.87462         29.6796         2.82055 
        2.89033         29.3725         2.78259 
        2.90605          29.179          2.7453 
        2.92176         28.9071         2.70871 
        2.93747         28.5163         2.67281 
        2.95318         28.2944         2.63755 
        2.96891         28.0474          2.6029 
        2.98456         27.6764         2.56904 
        3.00023         27.3666         2.53572 
        3.01596         27.1199         2.50289 
        3.03164         26.8577         2.47074 
        3.04738         26.6354         2.43905 
         3.0631         26.4056         2.40794 
        3.07883         26.0365         2.37736 
        3.09456         25.8075         2.34732 
        3.11026         25.4821         2.31784 
        3.12596         25.2051         2.28887 
        3.14163         25.0222         2.26047 
        3.15734         24.8044         2.23248 
        3.17308         24.5361         2.20489 
        3.18879         24.3003         2.17785 
        3.20447          24.032          2.1513 
         3.2202         23.8093          2.1251 
         3.2359         23.6121          2.0994 
        3.25157         23.3966         2.07417 
        3.26729         23.1888         2.04929 
        3.28304         22.9018         2.02476 
        3.29877         22.6998         2.00067 
        3.31446         22.4776         1.97702 
        3.33014         22.2372         1.95377 
        3.34585         22.1237         1.93086 
        3.36158           21.84         1.90828 
        3.37727         21.6611         1.88614 
        3.39294         21.4604         1.86436 
        3.40867         21.2577         1.84285 
        3.42439         21.0696          1.8217 
        3.44008         20.8299         1.80091 
        3.45578         20.6814         1.78043 
        3.47153         20.4242         1.76023 
        3.48724         20.3281         1.74037 
        3.50292          20.075         1.72087 
        3.51859         19.9064         1.70168 
        3.53431         19.7625         1.68271 
        3.55007         19.5244         1.66399 
        3.56577         19.3769         1.64563 
        3.58146         19.1604         1.62755 
        3.59719         19.0234          1.6097 
        3.61292         18.8262         1.59213 
        3.62859         18.6053         1.57488 
        3.64429          18.427         1.55786 
        3.66003         18.3564         1.54103 
        3.67578         18.1966         1.52446 
        3.69146         17.9459          1.5082 
        3.70712         17.7952          1.4922 
        3.72284         17.6683         1.47637 
        3.73853         17.5117          1.4608 
        3.75422         17.3239         1.44545 
        3.76993         17.1976         1.43031 
        3.78564         17.0531         1.41539 
        3.80137         16.8893         1.40065 
        3.81707         16.7171         1.38616 
        3.83279         16.5421         1.37186 
        3.84853         16.4096         1.35774 
        3.86424         16.2364         1.34385 
        3.87992         16.1306         1.33017 
        3.89561         15.9768         1.31667 
        3.91134         15.8559         1.30334 
        3.92704         15.7286         1.29021 
        3.94273         15.5989         1.27727 
        3.95845         15.3773         1.26449 
        3.97418         15.2812         1.25188 
        3.98988         15.1429         1.23945 
        4.00554         15.0655         1.22723 
        4.02125         14.8497         1.21514 
        4.03698         14.7524         1.20319 
        4.05268         14.6579         1.19143 
        4.06839         14.4955         1.17982 
         4.0841         14.3936         1.16836 
        4.09983          14.194         1.15704 
        4.11555         14.1441         1.14588 
        4.13124          14.025         1.13489 
        4.14693         13.8613         1.12404 
        4.16266          13.789         1.11331 
        4.17839         13.6343         1.10272 
        4.19408          13.513         1.09229 
        4.20977          13.431         1.08199 
        4.22551         13.2862          1.0718 
        4.24123         13.1778         1.06176 
        4.25691         13.0745         1.05186 
        4.27259         12.9362         1.04209 
        4.28831         12.8785         1.03243 
        4.30404         12.7911         1.02288 
        4.31974         12.6501         1.01347 
        4.33543         12.5143         1.00418 
        4.35116         12.4378        0.994987 
        4.36688         12.3089        0.985912 
        4.38255         12.2313        0.976984 
        4.39825         12.1227        0.968147 
        4.41398         12.0076        0.959402 
         4.4297         11.9113        0.950774 
        4.44541         11.8091        0.942253 
        4.46111          11.731        0.933843 
        4.47683         11.6082         0.92553 
        4.49251         11.5119        0.917334 
        4.50819         11.4243         0.90924 
         4.5239         11.3513        0.901232 
        4.53962         11.2597        0.893309 
        4.55535          11.146        0.885479 
        4.57106         11.1019        0.877753 
        4.58678          10.978        0.870117 
         4.6025         10.8885         0.86257 
        4.61821         10.7974        0.855114 
        4.63391         10.7206        0.847756 
         4.6496         10.6437        0.840487 
        4.66532         10.5664        0.833292 
        4.68103         10.4535        0.826184 
        4.69673         10.3716        0.819166 
        4.71241         10.2955        0.812236 
        4.72811         10.2201        0.805374 
        4.74384         10.1215        0.798583 
        4.75955         10.0487        0.791881 
        4.77525         9.96521        0.785259 
        4.79096         9.90469        0.778705 
        4.80669         9.80706        0.772222 
         4.8224         9.72857         0.76582 
        4.83809         9.66787        0.759497 
        4.85379          9.5787        0.753242 
         4.8695         9.50321        0.747052 
        4.88521         9.41715        0.740934 
        4.90093         9.36182        0.734884 
        4.91663         9.27445        0.728906 
        4.93234         9.21711        0.722988 
        4.94807         9.12777        0.717133 
        4.96377         9.07672        0.711352 
        4.97943         8.99515        0.705648 
        4.99514         8.91253        0.699991 
        5.01086         8.88736        0.694392 
        5.02654         8.80037        0.688868 
        5.04227         8.71171        0.683388 
          5.058         8.64059        0.677965 
        5.07371         8.59994        0.672612 
        5.08942         8.52091        0.667315 
        5.10513         8.44957        0.662075 
        5.12084         8.41442        0.656888 
        5.13656         8.34344        0.651758 
        5.15225         8.25898        0.646691 
        5.16796         8.20704         0.64167 
        5.18369         8.13856        0.636697 
         5.1994         8.09061        0.631787 
        5.21509         8.03572        0.626932 
        5.23079         7.95403        0.622122 
        5.24649         7.90332        0.617367 
        5.26217         7.84814        0.612664 
        5.27788         7.79378        0.608004 
        5.29359         7.73525        0.603391 
        5.30933         7.67388         0.59882 
        5.32504         7.62473        0.594303 
        5.34073          7.5753        0.589838 
        5.35646         7.49739        0.585409 
        5.37218         7.45357        0.581026 
        5.38789         7.38427        0.576694 
        5.40357         7.34649        0.572411 
        5.41929         7.29395        0.568162 
        5.43502         7.24696        0.563955 
         5.4507         7.19289        0.559801 
        5.46639         7.14159        0.555689 
        5.48212         7.08318        0.551608 
        5.49786         7.04343        0.547563 
        5.51353         6.99418        0.543578 
        5.52921         6.92828        0.539629 
        5.54495           6.868        0.535708 
        5.56066         6.83959         0.53183 
        5.57637         6.79819        0.527991 
        5.59207         6.75308        0.524192 
        5.60778         6.68707         0.52043 
        5.62346         6.64868         0.51671 
        5.63916         6.60151        0.513023 
        5.65487          6.5564        0.509369 
         5.6706         6.52209        0.505747 
        5.68633         6.46893        0.502159 
        5.70203         6.42429        0.498613 
        5.71773         6.38533        0.495102 
        5.73344         6.33089        0.491622 
        5.74916         6.28717        0.488173 
        5.76486         6.24639        0.484761 
        5.78054         6.19416        0.481387 
        5.79626         6.15506        0.478036 
          5.812         6.11185        0.474714 
         5.8277          6.0776        0.471432 
        5.84339         6.03751        0.468182 
        5.85911         5.98512        0.464956 
        5.87484         5.95324         0.46176 
        5.89053         5.89968        0.458601 
        5.90623         5.87552        0.455471 
        5.92195         5.83387        0.452363 
        5.93767         5.79534        0.449287 
        5.95336         5.74729        0.446244 
        5.96905         5.71617        0.443231 
        5.98476         5.67301        0.440241 
        6.00048         5.64139        0.437277 
        6.01617         5.59968        0.434345 
        6.03185          5.5701        0.431443 
        6.04756         5.52444        0.428561 
        6.06331         5.49498        0.425698 
        6.07903         5.44437        0.422868 
        6.09473         5.41643        0.420066 
        6.11044         5.38696        0.417287 
        6.12616          5.3493        0.414534 
        6.14186         5.31274        0.411808 
        6.15755         5.27856        0.409107 
        6.17326           5.247        0.406427 
        6.18898         5.19797        0.403771 
        6.20467          5.1783        0.401143 
        6.22036         5.14651        0.398538 
         6.2361         5.11316         0.39595 
         6.2518         5.06966        0.393389 
        6.26748         5.04625        0.390855 
        6.28319         5.01016        0.388338 
        6.29893         4.99006         0.38584 
        6.31463         4.95249        0.383368 
        6.33033          4.9152        0.380919 
        6.34604         4.89617        0.378489 
        6.36177         4.85313        0.376079 
        6.37747         4.82629        0.373693 
