# k  (h/Mpc)    Pcb(k)  (Mpc/h)^3    Pcb_linear(k) (Mpc/h)^3   ShotnoiseSubtracted = true
      0.0200456         4967.33          5032.3 
      0.0350414         3865.25         3793.37 
      0.0492313         2856.63         2865.84 
      0.0637834          2337.2          2393.9 
      0.0800726         1821.57         1869.38 
       0.096163         1417.55         1383.78 
       0.111083         1182.55         1142.52 
       0.126058         995.934         1006.61 
       0.142273         829.149         828.216 
       0.158546         683.536         664.103 
        0.17375          605.21          578.83 
       0.188953          547.72         520.516 
       0.204907         458.457         448.309 
       0.220756         409.209         382.033 
        0.23588         365.912         341.138 
         0.2514         329.672         309.854 
       0.267535         309.363         274.928 
       0.283568         270.334         242.672 
       0.299022          254.19         219.854 
       0.314451         245.872         201.526 
       0.330372         214.371         182.816 
       0.346141          197.75         165.584 
       0.361624         185.742         151.846 
       0.377134         170.167         140.251 
       0.392932         165.585         129.121 
       0.408854         154.819         118.718 
       0.424564         147.837         109.875 
       0.440253         134.302         102.167 
       0.455999         125.066         95.0202 
       0.471626         120.457         88.4721 
        0.48727         116.784         82.5996 
       0.502856         107.341         77.3636 
       0.518488         104.117         72.5353 
       0.534347         98.1192         68.0082 
       0.550082         95.2163         63.9111 
       0.565732         92.5504         60.1985 
       0.581496         85.6913         56.7533 
       0.597222         82.9435         53.5708 
       0.612804         80.2653         50.6574 
       0.628434         78.2684         47.9626 
       0.644267         74.1546         45.4349 
       0.660051          71.422         43.0952 
       0.675724         69.4187         40.9339 
       0.691403         68.1259         38.9195 
       0.707174         65.8252         37.0296 
       0.722871         63.9989         35.2731 
        0.73838         61.4662         33.6495 
       0.754018         58.2834          32.116 
       0.769845         57.6045         30.6615 
        0.78569         55.5755          29.296 
       0.801365         54.1801         28.0273 
       0.817031         52.1446         26.8349 
       0.832809         51.2736         25.7045 
       0.848511         49.7989         24.6445 
       0.864097         48.8089         23.6518 
       0.879701          47.807         22.7129 
       0.895507         46.0954         21.8142 
       0.911279         45.0824         20.9661 
        0.92691         43.9586         20.1702 
       0.942635         43.1167         19.4115 
       0.958396         42.6041         18.6902 
       0.974128         41.4607         18.0071 
       0.989692         40.1359         17.3649 
        1.00528         39.6141         16.7532 
        1.02113         38.6688         16.1615 
        1.03692         38.1558         15.6007 
        1.05264         37.2733         15.0691 
        1.06832         36.5705         14.5632 
        1.08405         35.6308         14.0792 
        1.09979         35.4322         13.6171 
        1.11537          34.306         13.1803 
        1.13105         33.6301         12.7601 
        1.14679         32.9996         12.3567 
        1.16256         32.5737           11.97 
        1.17828          32.091         11.6011 
        1.19395         31.4336         11.2491 
         1.2097         30.9754         10.9099 
        1.22537         30.3771         10.5864 
          1.241         29.8395          10.277 
        1.25666          29.462         9.97925 
        1.27241         29.0524         9.69191 
        1.28819         27.9882         9.41543 
        1.30392          28.265         9.15056 
        1.31957         27.6317         8.89708 
        1.33529         27.0659          8.6523 
        1.35108         26.7912         8.41577 
        1.36674         26.4423          8.1898 
         1.3824         25.9213         7.97235 
        1.39811         25.3708         7.76208 
        1.41389         25.1269         7.55861 
        1.42964          24.873         7.36279 
        1.44531         24.4168         7.17488 
        1.46101         24.1579         6.99314 
        1.47667         23.8358         6.81825 
        1.49229         23.3504         6.64981 
        1.50793         23.1499         6.48689 
        1.52367         22.8156         6.32838 
        1.53953         22.5587         6.17412 
        1.55526         22.1554         6.02624 
        1.57092         22.0558         5.88382 
        1.58662         21.7503         5.74567 
        1.60235          21.361          5.6117 
        1.61809         21.1978         5.48194 
        1.63369          20.924         5.35744 
        1.64941         20.6662         5.23592 
        1.66519         20.2953         5.11773 
        1.68085         19.9526         5.00404 
        1.69652         19.9797         4.89378 
        1.71228         19.6089         4.78621 
        1.72806         19.3145          4.6818 
        1.74368         19.1584         4.58155 
        1.75933         18.9451         4.48404 
        1.77505         18.7438         4.38891 
        1.79081         18.5292         4.29638 
         1.8065         18.3137         4.20691 
        1.82218         18.1552         4.12007 
        1.83797         18.0169         4.03509 
        1.85367         17.8747         3.95298 
        1.86928         17.6413         3.87365 
        1.88497         17.4342         3.79606 
        1.90073         17.2002         3.72031 
        1.91647         16.8926          3.6467 
        1.93218         16.9474         3.57524 
        1.94787         16.6007          3.5058 
        1.96363         16.5569         3.43792 
        1.97935         16.2781         3.37199 
        1.99499         16.1005         3.30816 
        2.01064         15.9819         3.24589 
         2.0264         15.7552         3.18483 
        2.04216         15.7195         3.12537 
        2.05781         15.5356          3.0678 
        2.07353         15.3645         3.01148 
        2.08928         15.1762         2.95645 
        2.10499         14.9893         2.90295 
        2.12065         14.8817         2.85093 
        2.13633         14.7552         2.80014 
        2.15211         14.5811         2.75026 
        2.16785          14.486         2.70173 
        2.18349         14.2734         2.65468 
        2.19916         14.1501         2.60865 
        2.21489         14.0103         2.56356 
        2.23063         13.9501          2.5195 
         2.2463         13.7204         2.47668 
        2.26194         13.6212         2.43496 
        2.27765         13.4297         2.39399 
        2.29341         13.3243         2.35385 
        2.30914         13.2148         2.31472 
        2.32486         13.1328         2.27649 
        2.34061         13.0089         2.23907 
        2.35635          12.878         2.20252 
        2.37203         12.7242         2.16691 
        2.38768         12.5688         2.13217 
        2.40339         12.5379         2.09806 
        2.41914         12.3595         2.06462 
        2.43483         12.2546         2.03202 
         2.4505         12.1513         2.00018 
        2.46622         12.0681         1.96892 
        2.48195         11.9833         1.93832 
        2.49759         11.7906         1.90853 
        2.51328         11.7875         1.87929 
        2.52906         11.6205         1.85048 
        2.54479         11.5019         1.82238 
        2.56049         11.3796         1.79492 
        2.57618         11.3413         1.76805 
        2.59189         11.2973         1.74168 
        2.60758         11.1027          1.7159 
        2.62325         11.0334         1.69067 
        2.63898         10.9792         1.66586 
        2.65468         10.8233         1.64159 
        2.67044         10.7796         1.61771 
        2.68618         10.6732         1.59436 
        2.70184         10.5673         1.57156 
        2.71755         10.4963         1.54915 
        2.73329         10.3585         1.52714 
        2.74897         10.3044         1.50563 
        2.76462         10.2396         1.48458 
        2.78034         10.1143         1.46385 
        2.79607         10.0748         1.44349 
        2.81179         9.95007         1.42354 
        2.82749         9.87978         1.40399 
        2.84321         9.81537         1.38479 
        2.85893         9.73731         1.36595 
        2.87462         9.67129         1.34749 
        2.89033         9.55792         1.32936 
        2.90605         9.50431         1.31154 
        2.92176         9.41095         1.29406 
        2.93747         9.33632         1.27691 
        2.95318         9.25057         1.26006 
        2.96891         9.19441         1.24351 
        2.98456         9.11008         1.22733 
        3.00023         9.04487         1.21142 
        3.01596         8.92444         1.19574 
        3.03164         8.92746         1.18037 
        3.04738         8.80991         1.16524 
         3.0631         8.70961         1.15037 
        3.07883         8.67504         1.13576 
        3.09456         8.61164         1.12141 
        3.11026         8.55745         1.10733 
        3.12596           8.454         1.09349 
        3.14163         8.43267         1.07992 
        3.15734         8.32887         1.06655 
        3.17308          8.2925         1.05337 
        3.18879         8.20869         1.04045 
        3.20447         8.13372         1.02776 
         3.2202         8.08635         1.01525 
         3.2359         8.00259         1.00297 
        3.25157         7.98366        0.990917 
        3.26729         7.89434        0.979028 
        3.28304         7.82857        0.967311 
        3.29877         7.78474          0.9558 
        3.31446         7.73631        0.944502 
        3.33014         7.66397        0.933396 
        3.34585         7.63272        0.922451 
        3.36158         7.55679        0.911666 
        3.37727         7.50597        0.901086 
        3.39294         7.42729        0.890683 
        3.40867         7.40178        0.880408 
        3.42439         7.31534          0.8703 
        3.44008         7.26173        0.860369 
        3.45578         7.21611        0.850587 
        3.47153         7.14331        0.840934 
        3.48724         7.10637        0.831449 
        3.50292         7.03185        0.822131 
        3.51859         7.01568        0.812961 
        3.53431         6.94937        0.803901 
        3.55007          6.8924        0.794958 
        3.56577         6.81847        0.786185 
        3.58146         6.80648        0.777549 
        3.59719         6.74288        0.769022 
        3.61292         6.69233        0.760626 
        3.62859         6.64838        0.752387 
        3.64429         6.59819        0.744253 
        3.66003          6.5514        0.736215 
        3.67578         6.49757        0.728299 
        3.69146         6.46054        0.720528 
        3.70712         6.41608        0.712885 
        3.72284          6.3475        0.705324 
        3.73853         6.32242        0.697886 
        3.75422         6.26189        0.690552 
        3.76993         6.22749        0.683317 
        3.78564         6.18524        0.676189 
        3.80137         6.15505        0.669151 
        3.81707         6.07211        0.662227 
        3.83279         6.05036        0.655395 
        3.84853         5.99242        0.648649 
        3.86424         5.94436        0.642011 
        3.87992         5.91316        0.635475 
        3.89561         5.89001         0.62903 
        3.91134          5.8264        0.622661 
        3.92704         5.78811        0.616387 
        3.94273         5.74725        0.610206 
        3.95845         5.71885        0.604098 
        3.97418         5.66695        0.598073 
        3.98988         5.62611        0.592137 
        4.00554         5.59286        0.586299 
        4.02125         5.53986        0.580522 
        4.03698         5.51456        0.574814 
        4.05268         5.45417        0.569195 
        4.06839         5.41571        0.563647 
         4.0841         5.38143        0.558175 
        4.09983         5.34551        0.552768 
        4.11555         5.29644        0.547434 
        4.13124         5.25892        0.542186 
        4.14693         5.23909        0.537001 
        4.16266         5.20112        0.531872 
        4.17839         5.17175        0.526814 
        4.19408         5.12445        0.521832 
        4.20977         5.08872        0.516913 
        4.22551         5.05517        0.512045 
        4.24123          5.0087        0.507244 
        4.25691         4.98089        0.502519 
        4.27259          4.9406        0.497851 
        4.28831         4.89633        0.493234 
        4.30404         4.86346        0.488671 
        4.31974         4.83112        0.484175 
        4.33543         4.79257        0.479738 
        4.35116         4.76859        0.475346 
        4.36688         4.74007        0.471011 
        4.38255         4.70464        0.466746 
        4.39825         4.67232        0.462524 
        4.41398         4.64841        0.458346 
         4.4297          4.6207        0.454224 
        4.44541         4.58031        0.450153 
        4.46111         4.54966        0.446136 
        4.47683         4.51381        0.442164 
        4.49251         4.49295        0.438249 
        4.50819         4.46106        0.434382 
         4.5239         4.43438        0.430556 
        4.53962         4.39088        0.426771 
        4.55535         4.37334         0.42303 
        4.57106         4.34466        0.419339 
        4.58678         4.30216        0.415691 
         4.6025         4.29203        0.412086 
        4.61821         4.24131        0.408524 
        4.63391         4.21348        0.405008 
         4.6496         4.18739        0.401535 
        4.66532         4.16116        0.398098 
        4.68103         4.13817        0.394702 
        4.69673         4.11653        0.391349 
        4.71241         4.08564        0.388039 
        4.72811         4.06397        0.384761 
        4.74384         4.03469        0.381516 
        4.75955          4.0022        0.378314 
        4.77525         3.97385        0.375151 
        4.79096         3.95916        0.372019 
        4.80669         3.92839        0.368922 
         4.8224         3.89502        0.365864 
        4.83809          3.8787        0.362843 
        4.85379         3.84043        0.359855 
         4.8695         3.82124        0.356898 
        4.88521         3.80543        0.353975 
        4.90093         3.77999        0.351084 
        4.91663         3.75551        0.348229 
        4.93234         3.72565        0.345401 
        4.94807          3.7123        0.342604 
        4.96377         3.68063        0.339842 
        4.97943         3.65837        0.337117 
        4.99514         3.64228        0.334415 
        5.01086          3.6146         0.33174 
        5.02654         3.59038        0.329101 
        5.04227         3.56637        0.326483 
          5.058         3.55142        0.323892 
        5.07371         3.52405        0.321335 
        5.08942         3.49533        0.318804 
        5.10513         3.47816        0.316301 
        5.12084         3.45576        0.313823 
        5.13656         3.43854        0.311372 
        5.15225         3.42308        0.308951 
        5.16796         3.39839        0.306552 
        5.18369         3.36644        0.304177 
         5.1994         3.34953        0.301831 
        5.21509         3.32688        0.299511 
        5.23079         3.30762        0.297214 
        5.24649         3.28807        0.294942 
        5.26217         3.26504        0.292695 
        5.27788          3.2486        0.290469 
        5.29359         3.23271        0.288265 
        5.30933         3.21693        0.286081 
        5.32504         3.19309        0.283923 
        5.34073          3.1781         0.28179 
        5.35646         3.14961        0.279674 
        5.37218         3.13836         0.27758 
        5.38789         3.12081         0.27551 
        5.40357         3.09723        0.273464 
        5.41929         3.08105        0.271434 
        5.43502         3.06158        0.269425 
         5.4507         3.03597         0.26744 
        5.46639         3.02353        0.265475 
        5.48212         3.00333        0.263526 
        5.49786         2.98803        0.261593 
        5.51353         2.97326         0.25969 
        5.52921         2.94954        0.257803 
        5.54495         2.93727         0.25593 
        5.56066         2.91932        0.254077 
        5.57637         2.90349        0.252243 
        5.59207         2.88218        0.250428 
        5.60778         2.86886        0.248631 
        5.62346         2.85089        0.246854 
        5.63916         2.83365        0.245092 
        5.65487         2.81368        0.243347 
         5.6706         2.80399        0.241616 
        5.68633         2.78766        0.239902 
        5.70203         2.77307        0.238208 
        5.71773         2.75339         0.23653 
        5.73344         2.73933        0.234868 
        5.74916         2.72476         0.23322 
        5.76486         2.70929         0.23159 
        5.78054         2.69236        0.229979 
        5.79626         2.67967        0.228378 
          5.812         2.65852         0.22679 
         5.8277         2.64499        0.225223 
        5.84339         2.62959         0.22367 
        5.85911          2.6181        0.222129 
        5.87484         2.60276        0.220602 
        5.89053         2.58928        0.219093 
        5.90623         2.57193        0.217597 
        5.92195         2.56257        0.216113 
        5.93767         2.54881        0.214643 
        5.95336         2.53154        0.213189 
        5.96905          2.5177         0.21175 
        5.98476         2.50038        0.210321 
        6.00048          2.4927        0.208905 
        6.01617         2.47172        0.207504 
        6.03185         2.46033        0.206118 
        6.04756         2.45006        0.204741 
        6.06331         2.43696        0.203374 
        6.07903         2.42087        0.202022 
        6.09473         2.40805        0.200683 
        6.11044         2.39803        0.199355 
        6.12616         2.38554         0.19804 
        6.14186         2.37168        0.196738 
        6.15755         2.35992        0.195447 
        6.17326         2.34773        0.194167 
        6.18898         2.33288        0.192898 
        6.20467         2.32225        0.191643 
        6.22036         2.31073        0.190398 
         6.2361          2.2987        0.189162 
         6.2518         2.28764        0.187938 
        6.26748           2.273        0.186728 
        6.28319         2.26204        0.185525 
        6.29893         2.24931        0.184332 
        6.31463         2.24136        0.183151 
        6.33033         2.23233        0.181981 
        6.34604         2.21608         0.18082 
        6.36177         2.20639        0.179668 
        6.37747         2.19518        0.178529 
