# k  (h/Mpc)    Pcb(k)  (Mpc/h)^3    Pcb_linear(k) (Mpc/h)^3   ShotnoiseSubtracted = true
      0.0200456         1904.15         1931.98 
      0.0350414          1442.6         1456.33 
      0.0492313         1101.17         1100.24 
      0.0637834         928.374         919.058 
      0.0800726          725.88         717.684 
       0.096163          528.08         531.257 
       0.111083          432.33         438.632 
       0.126058         388.406         386.453 
       0.142273         323.674         317.965 
       0.158546         261.525          254.96 
        0.17375         221.943         222.222 
       0.188953         204.138         199.835 
       0.204907         183.462         172.113 
       0.220756         153.796         146.669 
        0.23588         136.698         130.968 
         0.2514         122.385         118.958 
       0.267535         110.975         105.549 
       0.283568         99.2437         93.1656 
       0.299022         90.9129         84.4054 
       0.314451         81.6343          77.369 
       0.330372         75.3785         70.1861 
       0.346141         68.3241         63.5703 
       0.361624         63.5637          58.296 
       0.377134         59.7806         53.8445 
       0.392932         52.9867         49.5718 
       0.408854          50.886         45.5778 
       0.424564         47.7761         42.1829 
       0.440253         44.0685         39.2234 
       0.455999         41.5608         36.4798 
       0.471626         38.9291         33.9659 
        0.48727          36.915         31.7113 
       0.502856         34.5584         29.7011 
       0.518488         33.0241         27.8475 
       0.534347         31.6173         26.1094 
       0.550082         28.9128         24.5365 
       0.565732         26.9058         23.1112 
       0.581496         26.3625         21.7885 
       0.597222         25.4106         20.5667 
       0.612804          23.677         19.4482 
       0.628434         22.8198         18.4136 
       0.644267         22.1263         17.4432 
       0.660051         20.9146         16.5449 
       0.675724         19.8445         15.7152 
       0.691403         19.1944         14.9418 
       0.707174          18.434         14.2163 
       0.722871          17.684         13.5419 
        0.73838         17.0396         12.9186 
       0.754018         16.4135         12.3298 
       0.769845         15.7558         11.7714 
        0.78569         15.2652         11.2472 
       0.801365         14.6481         10.7601 
       0.817031         14.2267         10.3023 
       0.832809          13.885         9.86836 
       0.848511         13.0422         9.46142 
       0.864097         12.7317         9.08029 
       0.879701         12.3539         8.71987 
       0.895507         11.8618         8.37482 
       0.911279         11.6463         8.04922 
        0.92691         11.2705         7.74368 
       0.942635         10.7894         7.45237 
       0.958396          10.496         7.17548 
       0.974128         10.2176         6.91321 
       0.989692         10.0998         6.66667 
        1.00528         9.73073         6.43184 
        1.02113         9.34718         6.20467 
        1.03692         9.15728         5.98935 
        1.05264         8.91251         5.78527 
        1.06832         8.71132         5.59104 
        1.08405         8.39322         5.40525 
        1.09979         8.20708         5.22782 
        1.11537         8.06727         5.06013 
        1.13105         7.84129         4.89882 
        1.14679         7.68604         4.74393 
        1.16256         7.44908         4.59547 
        1.17828         7.35216         4.45386 
        1.19395         7.10693         4.31871 
         1.2097         6.92274         4.18849 
        1.22537         6.75459         4.06429 
          1.241         6.64649         3.94551 
        1.25666         6.56438         3.83119 
        1.27241          6.3531         3.72088 
        1.28819         6.20298         3.61474 
        1.30392         6.11698         3.51305 
        1.31957         5.98458         3.41573 
        1.33529         5.86521         3.32176 
        1.35108         5.71084         3.23095 
        1.36674         5.66996          3.1442 
         1.3824         5.45382         3.06071 
        1.39811         5.38741         2.97999 
        1.41389         5.30014         2.90187 
        1.42964         5.20393          2.8267 
        1.44531         5.10897         2.75455 
        1.46101         5.00554         2.68478 
        1.47667         4.89549         2.61763 
        1.49229         4.84787         2.55297 
        1.50793         4.71215         2.49042 
        1.52367         4.67898         2.42957 
        1.53953         4.56184         2.37034 
        1.55526         4.47941         2.31357 
        1.57092          4.4354         2.25889 
        1.58662         4.32466         2.20586 
        1.60235         4.27009         2.15442 
        1.61809         4.19357          2.1046 
        1.63369         4.12415         2.05681 
        1.64941         4.06112         2.01015 
        1.66519         4.00512         1.96478 
        1.68085         3.92227         1.92113 
        1.69652         3.85424          1.8788 
        1.71228         3.80817          1.8375 
        1.72806          3.7399         1.79742 
        1.74368         3.67485         1.75893 
        1.75933         3.63376         1.72149 
        1.77505         3.58444         1.68497 
        1.79081         3.50839         1.64945 
         1.8065         3.47187          1.6151 
        1.82218         3.43109         1.58176 
        1.83797         3.39462         1.54914 
        1.85367         3.33125         1.51761 
        1.86928         3.29011         1.48716 
        1.88497         3.23238         1.45737 
        1.90073         3.18099         1.42829 
        1.91647         3.13675         1.40003 
        1.93218         3.11682         1.37259 
        1.94787         3.07796         1.34593 
        1.96363         3.02084         1.31987 
        1.97935         2.98082         1.29456 
        1.99499         2.92251         1.27006 
        2.01064          2.9027         1.24615 
         2.0264         2.86944         1.22271 
        2.04216         2.83392         1.19988 
        2.05781         2.79242         1.17778 
        2.07353         2.75966         1.15616 
        2.08928         2.73149         1.13503 
        2.10499         2.68996         1.11449 
        2.12065         2.67476         1.09452 
        2.13633         2.62863         1.07502 
        2.15211         2.59432         1.05587 
        2.16785         2.56984         1.03724 
        2.18349         2.54204         1.01917 
        2.19916          2.4887          1.0015 
        2.21489         2.47573        0.984191 
        2.23063         2.43745        0.967278 
         2.2463         2.41824        0.950838 
        2.26194         2.38388        0.934821 
        2.27765          2.3665         0.91909 
        2.29341         2.33684        0.903681 
        2.30914         2.30907        0.888657 
        2.32486          2.2931        0.873983 
        2.34061         2.26014        0.859615 
        2.35635         2.22364        0.845584 
        2.37203         2.21789        0.831914 
        2.38768         2.19346        0.818574 
        2.40339         2.17034        0.805479 
        2.41914         2.14347        0.792639 
        2.43483         2.12409        0.780125 
         2.4505         2.09182        0.767902 
        2.46622          2.0842        0.755898 
        2.48195         2.05441        0.744151 
        2.49759         2.03441        0.732715 
        2.51328          2.0129         0.72149 
        2.52906         2.00114         0.71043 
        2.54479          1.9741        0.699642 
        2.56049         1.95513        0.689099 
        2.57618         1.93871        0.678782 
        2.59189         1.92964        0.668661 
        2.60758         1.89728        0.658762 
        2.62325         1.88291        0.649075 
        2.63898         1.86145        0.639549 
        2.65468         1.84578        0.630235 
        2.67044          1.8343        0.621065 
        2.68618         1.80741          0.6121 
        2.70184         1.79345        0.603347 
        2.71755          1.7789        0.594743 
        2.73329         1.75932        0.586294 
        2.74897         1.74728        0.578036 
        2.76462         1.72849        0.569955 
        2.78034         1.72026        0.561996 
        2.79607         1.69722         0.55418 
        2.81179         1.68362        0.546521 
        2.82749         1.67003        0.539016 
        2.84321         1.65672        0.531643 
        2.85893         1.64168         0.52441 
        2.87462         1.62785        0.517324 
        2.89033          1.6046        0.510363 
        2.90605         1.59508        0.503523 
        2.92176         1.58563        0.496812 
        2.93747         1.57212        0.490227 
        2.95318         1.55872        0.483759 
        2.96891         1.54586        0.477405 
        2.98456         1.53482        0.471193 
        3.00023         1.51985        0.465083 
        3.01596         1.51184        0.459062 
        3.03164         1.50089        0.453165 
        3.04738         1.47908        0.447353 
         3.0631         1.46843        0.441646 
        3.07883         1.46114        0.436038 
        3.09456         1.45372        0.430528 
        3.11026         1.43639        0.425122 
        3.12596         1.42713        0.419808 
        3.14163         1.41579        0.414598 
        3.15734         1.40612        0.409464 
        3.17308         1.39295        0.404405 
        3.18879          1.3876        0.399445 
        3.20447         1.37241        0.394575 
         3.2202         1.36203        0.389771 
         3.2359         1.35269        0.385056 
        3.25157         1.34344        0.380429 
        3.26729         1.33127        0.375865 
        3.28304          1.3255        0.371366 
        3.29877         1.31111        0.366947 
        3.31446         1.30187         0.36261 
        3.33014         1.29891        0.358346 
        3.34585         1.28774        0.354144 
        3.36158         1.27292        0.350003 
        3.37727         1.27064        0.345941 
        3.39294         1.25656        0.341948 
        3.40867         1.24811        0.338003 
        3.42439         1.24038        0.334122 
        3.44008         1.23403         0.33031 
        3.45578         1.22656        0.326554 
        3.47153         1.21478        0.322848 
        3.48724          1.2066        0.319207 
        3.50292         1.20212        0.315629 
        3.51859         1.19571        0.312109 
        3.53431         1.18472        0.308631 
        3.55007         1.17841        0.305197 
        3.56577         1.17029        0.301829 
        3.58146         1.16305        0.298514 
        3.59719         1.15343         0.29524 
        3.61292         1.15075        0.292017 
        3.62859          1.1388        0.288853 
        3.64429         1.13218        0.285731 
        3.66003         1.12341        0.282645 
        3.67578         1.11702        0.279606 
        3.69146         1.11319        0.276622 
        3.70712         1.10006        0.273688 
        3.72284         1.09983        0.270785 
        3.73853         1.08912         0.26793 
        3.75422         1.08359        0.265114 
        3.76993         1.07971        0.262337 
        3.78564         1.07134          0.2596 
        3.80137         1.06105        0.256898 
        3.81707         1.05985         0.25424 
        3.83279         1.04945        0.251617 
        3.84853         1.04431        0.249027 
        3.86424         1.03839        0.246478 
        3.87992         1.03555        0.243969 
        3.89561         1.02695        0.241495 
        3.91134         1.02065         0.23905 
        3.92704         1.01387        0.236641 
        3.94273         1.01002        0.234268 
        3.95845         1.00301        0.231923 
        3.97418        0.995165         0.22961 
        3.98988        0.989083        0.227331 
        4.00554         0.98489         0.22509 
        4.02125        0.977156        0.222872 
        4.03698        0.968362         0.22068 
        4.05268        0.961553        0.218523 
        4.06839        0.951259        0.216393 
         4.0841        0.948247        0.214293 
        4.09983        0.941846        0.212217 
        4.11555        0.936198        0.210169 
        4.13124        0.928138        0.208154 
        4.14693        0.920231        0.206163 
        4.16266        0.914993        0.204194 
        4.17839         0.91135        0.202252 
        4.19408        0.904988         0.20034 
        4.20977        0.897355        0.198451 
        4.22551        0.893372        0.196582 
        4.24123        0.887212        0.194739 
        4.25691        0.881499        0.192925 
        4.27259        0.876056        0.191133 
        4.28831        0.871339         0.18936 
        4.30404         0.86761        0.187609 
        4.31974        0.858026        0.185883 
        4.33543        0.854889        0.184179 
        4.35116        0.851073        0.182493 
        4.36688        0.844786        0.180829 
        4.38255        0.841159        0.179191 
        4.39825        0.838639         0.17757 
        4.41398        0.831367        0.175966 
         4.4297        0.826726        0.174384 
        4.44541        0.822914        0.172821 
        4.46111        0.820536        0.171279 
        4.47683          0.8167        0.169754 
        4.49251        0.811295        0.168251 
        4.50819        0.807743        0.166766 
         4.5239        0.802832        0.165297 
        4.53962        0.801172        0.163844 
        4.55535        0.795708        0.162408 
        4.57106         0.79422        0.160991 
        4.58678        0.788915         0.15959 
         4.6025        0.785911        0.158206 
        4.61821        0.782948        0.156839 
        4.63391        0.777791        0.155489 
         4.6496        0.774229        0.154156 
        4.66532         0.77306        0.152836 
        4.68103        0.768333        0.151533 
        4.69673        0.766904        0.150245 
        4.71241        0.761457        0.148974 
        4.72811        0.761116        0.147716 
        4.74384        0.756029         0.14647 
        4.75955        0.753218        0.145241 
        4.77525        0.750318        0.144026 
        4.79096        0.748431        0.142824 
        4.80669           0.747        0.141635 
         4.8224        0.743804        0.140461 
        4.83809        0.740516        0.139301 
        4.85379        0.739707        0.138154 
         4.8695        0.738004        0.137019 
        4.88521        0.732214        0.135897 
        4.90093        0.732197        0.134787 
        4.91663        0.730985        0.133691 
        4.93234        0.726816        0.132605 
        4.94807         0.72578        0.131531 
        4.96377        0.723047        0.130471 
        4.97943        0.720797        0.129425 
        4.99514        0.719053        0.128387 
        5.01086        0.717797         0.12736 
        5.02654        0.716242        0.126347 
        5.04227        0.713126        0.125342 
          5.058         0.71107        0.124347 
        5.07371        0.709289        0.123366 
        5.08942        0.708975        0.122394 
        5.10513        0.706466        0.121433 
        5.12084        0.705738        0.120482 
        5.13656        0.703431        0.119541 
        5.15225        0.703462        0.118611 
        5.16796        0.699685         0.11769 
        5.18369        0.698877        0.116778 
         5.1994        0.698692        0.115878 
        5.21509        0.696751        0.114987 
        5.23079        0.696318        0.114105 
        5.24649         0.69584        0.113233 
        5.26217        0.691904         0.11237 
        5.27788        0.692649        0.111516 
        5.29359        0.691339         0.11067 
        5.30933        0.690034        0.109831 
        5.32504        0.689051        0.109003 
        5.34073        0.688192        0.108184 
        5.35646        0.686752        0.107371 
        5.37218        0.686182        0.106567 
        5.38789        0.685519        0.105773 
        5.40357         0.68394        0.104987 
        5.41929        0.684372        0.104208 
        5.43502        0.683167        0.103437 
         5.4507        0.683372        0.102675 
        5.46639        0.681372         0.10192 
        5.48212        0.679234        0.101172 
        5.49786        0.679113         0.10043 
        5.51353         0.67779       0.0996991 
        5.52921        0.678509       0.0989748 
        5.54495        0.678132       0.0982556 
        5.56066        0.675667       0.0975443 
        5.57637        0.676745       0.0968401 
        5.59207        0.675915       0.0961435 
        5.60778        0.674718       0.0954535 
        5.62346        0.675281       0.0947712 
        5.63916         0.67367       0.0940949 
        5.65487        0.673228       0.0934248 
         5.6706        0.675481       0.0927604 
        5.68633        0.672715       0.0921023 
        5.70203        0.672334       0.0914519 
        5.71773        0.672517       0.0908079 
        5.73344        0.669638       0.0901697 
        5.74916        0.672332       0.0895371 
        5.76486        0.670247       0.0889113 
        5.78054        0.669922       0.0882925 
        5.79626        0.669577       0.0876779 
          5.812        0.670683       0.0870685 
         5.8277        0.668984       0.0864666 
        5.84339        0.668747       0.0858704 
        5.85911        0.667724       0.0852787 
        5.87484        0.668353       0.0846927 
        5.89053        0.667933       0.0841133 
        5.90623        0.667607       0.0835391 
        5.92195        0.666865       0.0829692 
        5.93767        0.665836       0.0824049 
        5.95336        0.666456       0.0818468 
        5.96905        0.666527       0.0812941 
        5.98476        0.664465       0.0807457 
        6.00048        0.667117       0.0802021 
        6.01617        0.664916       0.0796643 
        6.03185        0.664461       0.0791321 
        6.04756         0.66522       0.0786034 
        6.06331        0.665656       0.0780785 
        6.07903        0.664403       0.0775594 
        6.09473        0.664574       0.0770455 
        6.11044         0.66488       0.0765358 
        6.12616        0.663645       0.0760308 
        6.14186         0.66306       0.0755308 
        6.15755        0.662899       0.0750353 
        6.17326          0.6637       0.0745439 
        6.18898        0.662542       0.0740567 
        6.20467        0.663723       0.0735747 
        6.22036        0.661142        0.073097 
         6.2361        0.662184       0.0726222 
         6.2518        0.661506       0.0721524 
        6.26748        0.662076       0.0716878 
        6.28319         0.66205        0.071226 
        6.29893         0.66039       0.0707679 
        6.31463        0.661595       0.0703146 
        6.33033        0.660532       0.0698653 
        6.34604        0.660396       0.0694197 
        6.36177        0.660216       0.0689775 
        6.37747        0.660393         0.06854 
