# k  (h/Mpc)    Pcb(k)  (Mpc/h)^3    Pcb_linear(k) (Mpc/h)^3   ShotnoiseSubtracted = true
      0.0200456           19030         19350.2 
      0.0350414         14994.7         14586.3 
      0.0492313         10770.3         11019.7 
      0.0637834         8725.31         9205.05 
      0.0800726         6766.16         7188.14 
       0.096163         5484.37         5320.94 
       0.111083         4590.15         4393.23 
       0.126058          3784.6         3870.62 
       0.142273         3254.26         3184.66 
       0.158546         2697.18         2553.61 
        0.17375         2437.27         2225.72 
       0.188953         2295.63         2001.49 
       0.204907         1963.14         1723.84 
       0.220756         1774.22            1469 
        0.23588         1594.69         1311.75 
         0.2514         1442.74         1191.45 
       0.267535         1392.14         1057.16 
       0.283568         1237.56         933.123 
       0.299022         1184.74         845.383 
       0.314451         1229.17         774.908 
       0.330372            1081         702.966 
       0.346141         994.642         636.704 
       0.361624          955.67         583.878 
       0.377134         913.825         539.293 
       0.392932         876.506         496.499 
       0.408854         837.592         456.496 
       0.424564         819.473         422.493 
       0.440253         757.859         392.852 
       0.455999         725.418         365.372 
       0.471626         738.499         340.193 
        0.48727         697.967         317.613 
       0.502856           663.2         297.479 
       0.518488         649.969         278.913 
       0.534347         618.304         261.505 
       0.550082         591.474         245.751 
       0.565732         584.791         231.476 
       0.581496         572.401         218.228 
       0.597222         558.227         205.991 
       0.612804         546.515         194.788 
       0.628434         523.588         184.426 
       0.644267         507.731         174.707 
       0.660051         501.449          165.71 
       0.675724         491.837         157.399 
       0.691403         479.266         149.653 
       0.707174         462.898         142.387 
       0.722871          455.46         135.632 
        0.73838         449.134         129.389 
       0.754018         435.552         123.493 
       0.769845         430.894           117.9 
        0.78569         422.148         112.649 
       0.801365         407.933         107.771 
       0.817031         404.455         103.186 
       0.832809          398.67          98.839 
       0.848511         390.285         94.7631 
       0.864097         381.534         90.9459 
       0.879701         378.367          87.336 
       0.895507         364.905           83.88 
       0.911279         359.371         80.6189 
        0.92691         355.636         77.5587 
       0.942635          352.78         74.6411 
       0.958396         340.342         71.8678 
       0.974128         336.901         69.2409 
       0.989692         324.822         66.7717 
        1.00528         324.186         64.4196 
        1.02113         318.237         62.1444 
        1.03692         312.574         59.9878 
        1.05264         307.445         57.9438 
        1.06832          303.73         55.9985 
        1.08405         299.182         54.1376 
        1.09979         294.365         52.3605 
        1.11537         286.411         50.6809 
        1.13105         283.205         49.0653 
        1.14679         279.245          47.514 
        1.16256         276.805          46.027 
        1.17828          272.27         44.6087 
        1.19395         265.206         43.2551 
         1.2097         264.976         41.9509 
        1.22537         260.114         40.7069 
          1.241         254.575         39.5172 
        1.25666         252.054         38.3723 
        1.27241         247.789         37.2674 
        1.28819         243.423         36.2043 
        1.30392         241.871         35.1858 
        1.31957         235.239         34.2111 
        1.33529         232.421         33.2699 
        1.35108         230.764         32.3604 
        1.36674         225.119         31.4915 
         1.3824         223.485         30.6553 
        1.39811         221.066         29.8468 
        1.41389          214.73         29.0644 
        1.42964          212.93         28.3115 
        1.44531         210.309         27.5889 
        1.46101         207.051         26.8901 
        1.47667         204.204         26.2176 
        1.49229         201.381         25.5699 
        1.50793         198.485         24.9434 
        1.52367         195.948         24.3339 
        1.53953         191.339         23.7408 
        1.55526         190.808         23.1721 
        1.57092         188.811         22.6245 
        1.58662         184.223         22.0933 
        1.60235         182.478         21.5781 
        1.61809         179.656         21.0792 
        1.63369         176.517         20.6004 
        1.64941         174.758         20.1332 
        1.66519         172.309         19.6787 
        1.68085         169.399         19.2416 
        1.69652         167.424         18.8176 
        1.71228         164.881          18.404 
        1.72806         162.924         18.0025 
        1.74368         161.217          17.617 
        1.75933         159.728          17.242 
        1.77505         157.069         16.8763 
        1.79081         153.757         16.5205 
         1.8065         152.138         16.1764 
        1.82218         149.526         15.8425 
        1.83797          148.63         15.5158 
        1.85367         146.546            15.2 
        1.86928         144.113          14.895 
        1.88497         142.995         14.5966 
        1.90073          141.28         14.3054 
        1.91647         138.564         14.0223 
        1.93218         137.083         13.7475 
        1.94787         135.032         13.4805 
        1.96363         134.393         13.2195 
        1.97935         132.332          12.966 
        1.99499         130.846         12.7205 
        2.01064         128.106         12.4811 
         2.0264         126.962         12.2463 
        2.04216         125.249         12.0177 
        2.05781         123.456         11.7963 
        2.07353         121.909         11.5798 
        2.08928         120.485         11.3682 
        2.10499         119.138         11.1624 
        2.12065         117.952         10.9624 
        2.13633         116.628         10.7671 
        2.15211         114.669         10.5753 
        2.16785         113.086         10.3887 
        2.18349         111.674         10.2078 
        2.19916         110.632         10.0308 
        2.21489         109.453         9.85741 
        2.23063         107.432         9.68801 
         2.2463         106.506         9.52335 
        2.26194         105.308         9.36293 
        2.27765         103.881         9.20537 
        2.29341           102.8         9.05104 
        2.30914         101.777         8.90056 
        2.32486         99.6803         8.75359 
        2.34061         99.1481         8.60969 
        2.35635          97.906         8.46915 
        2.37203         96.3021         8.33224 
        2.38768         95.5191         8.19863 
        2.40339          94.532         8.06747 
        2.41914         92.9037         7.93887 
        2.43483         92.1726         7.81353 
         2.4505         91.1492         7.69111 
        2.46622         89.9396         7.57089 
        2.48195          88.969         7.45323 
        2.49759         87.7339         7.33869 
        2.51328         87.1131         7.22627 
        2.52906         85.4472         7.11548 
        2.54479         84.6269         7.00743 
        2.56049         83.4915         6.90184 
        2.57618         82.3162         6.79851 
        2.59189         82.1429         6.69714 
        2.60758         80.3689         6.59799 
        2.62325         80.1919         6.50097 
        2.63898         79.0469         6.40556 
        2.65468         78.0837         6.31227 
        2.67044         76.9077         6.22043 
        2.68618         76.4192         6.13064 
        2.70184         75.1773         6.04297 
        2.71755         74.5124         5.95679 
        2.73329         73.3537         5.87217 
        2.74897         73.0133         5.78946 
        2.76462         71.9452         5.70853 
        2.78034         70.8857         5.62881 
        2.79607         70.2293         5.55053 
        2.81179         69.6714         5.47382 
        2.82749         68.9501         5.39865 
        2.84321         68.1362          5.3248 
        2.85893         67.3852         5.25236 
        2.87462         66.5831         5.18139 
        2.89033         65.9743         5.11166 
        2.90605         65.4528         5.04316 
        2.92176         64.4014         4.97594 
        2.93747          63.873         4.90998 
        2.95318          63.022         4.84521 
        2.96891         62.4411         4.78157 
        2.98456         61.7749         4.71935 
        3.00023         61.0003         4.65815 
        3.01596         60.6176         4.59785 
        3.03164         59.8446         4.53878 
        3.04738         59.3332         4.48058 
         3.0631          58.455         4.42341 
        3.07883         57.9274         4.36724 
        3.09456         57.2912         4.31206 
        3.11026         56.6324         4.25791 
        3.12596         56.1467         4.20469 
        3.14163         55.5154         4.15251 
        3.15734         54.8943         4.10109 
        3.17308         54.3852         4.05042 
        3.18879          53.637         4.00074 
        3.20447          53.314         3.95196 
         3.2202         52.6309         3.90385 
         3.2359         52.0407         3.85662 
        3.25157         51.6776         3.81028 
        3.26729         50.9596         3.76457 
        3.28304         50.5216         3.71951 
        3.29877          49.982         3.67525 
        3.31446         49.5982         3.63181 
        3.33014         49.0766          3.5891 
        3.34585         48.4202         3.54702 
        3.36158         48.0195         3.50554 
        3.37727         47.5719         3.46486 
        3.39294         47.2076         3.42486 
        3.40867         46.7032         3.38535 
        3.42439         46.1307         3.34648 
        3.44008         45.6512          3.3083 
        3.45578         45.2901         3.27068 
        3.47153         44.7757         3.23357 
        3.48724         44.3093         3.19709 
        3.50292          43.821         3.16126 
        3.51859         43.5115           3.126 
        3.53431         42.7971         3.09117 
        3.55007         42.5937         3.05678 
        3.56577         42.2016         3.02305 
        3.58146         41.6301         2.98984 
        3.59719          41.244         2.95705 
        3.61292          40.831         2.92476 
        3.62859          40.589         2.89308 
        3.64429         40.2507         2.86181 
        3.66003         39.7839          2.8309 
        3.67578         39.4623         2.80046 
        3.69146         39.0893         2.77058 
        3.70712          38.694         2.74119 
        3.72284         38.3324         2.71212 
        3.73853         37.9672         2.68352 
        3.75422         37.6136         2.65532 
        3.76993         37.3129          2.6275 
        3.78564         36.9906         2.60009 
        3.80137          36.588         2.57302 
        3.81707         36.1627          2.5464 
        3.83279         35.8264         2.52013 
        3.84853         35.5096         2.49419 
        3.86424         35.2333         2.46866 
        3.87992         34.9629         2.44353 
        3.89561         34.6451         2.41875 
        3.91134         34.4176         2.39426 
        3.92704         33.9515         2.37014 
        3.94273         33.7121         2.34637 
        3.95845         33.4056         2.32288 
        3.97418         33.0397         2.29971 
        3.98988         32.7007         2.27689 
        4.00554         32.4481         2.25444 
        4.02125         32.1929         2.23223 
        4.03698         31.8867         2.21028 
        4.05268         31.6495         2.18867 
        4.06839         31.2152         2.16734 
         4.0841          31.093          2.1463 
        4.09983         30.7717         2.12551 
        4.11555         30.5035           2.105 
        4.13124         30.2199         2.08482 
        4.14693         29.9893         2.06488 
        4.16266         29.6088         2.04516 
        4.17839         29.4336         2.02571 
        4.19408         29.1738         2.00655 
        4.20977          28.915         1.98764 
        4.22551         28.7205         1.96892 
        4.24123         28.4186         1.95046 
        4.25691         28.1835         1.93229 
        4.27259         27.9642         1.91434 
        4.28831         27.6938         1.89659 
        4.30404         27.4017         1.87904 
        4.31974         27.1918         1.86175 
        4.33543         26.9979         1.84469 
        4.35116         26.7609          1.8278 
        4.36688         26.5258         1.81113 
        4.38255         26.3651         1.79473 
        4.39825         26.0192          1.7785 
        4.41398          25.886         1.76244 
         4.4297         25.6154         1.74659 
        4.44541         25.4923         1.73093 
        4.46111         25.2631         1.71548 
        4.47683         24.9867         1.70021 
        4.49251          24.831         1.68516 
        4.50819         24.6092         1.67029 
         4.5239         24.3336         1.65558 
        4.53962         24.2161         1.64102 
        4.55535         23.9554         1.62664 
        4.57106         23.7928         1.61244 
        4.58678          23.585         1.59842 
         4.6025         23.3658         1.58455 
        4.61821          23.187         1.57086 
        4.63391         22.9626         1.55734 
         4.6496         22.7992         1.54399 
        4.66532         22.6204         1.53077 
        4.68103         22.3648         1.51771 
        4.69673           22.23         1.50482 
        4.71241         22.0416         1.49209 
        4.72811          21.866         1.47948 
        4.74384         21.7156         1.46701 
        4.75955         21.5454          1.4547 
        4.77525         21.3896         1.44253 
        4.79096         21.1476         1.43049 
        4.80669         21.0394         1.41858 
         4.8224         20.8748         1.40682 
        4.83809         20.6629         1.39521 
        4.85379         20.4937         1.38372 
         4.8695         20.3368         1.37234 
        4.88521         20.1663         1.36111 
        4.90093         20.0628         1.34999 
        4.91663         19.8544         1.33901 
        4.93234         19.6912         1.32814 
        4.94807          19.591         1.31738 
        4.96377          19.388         1.30676 
        4.97943         19.2225         1.29629 
        4.99514         19.0895         1.28589 
        5.01086         18.9376         1.27561 
        5.02654         18.8288         1.26546 
        5.04227         18.6612         1.25539 
          5.058         18.5101         1.24543 
        5.07371         18.4001          1.2356 
        5.08942         18.2255         1.22587 
        5.10513         18.0838         1.21624 
        5.12084         17.9423         1.20671 
        5.13656         17.7943         1.19729 
        5.15225         17.6118         1.18798 
        5.16796         17.5331         1.17876 
        5.18369         17.4073         1.16962 
         5.1994         17.2718          1.1606 
        5.21509         17.1494         1.15168 
        5.23079           17.04         1.14285 
        5.24649         16.9338         1.13411 
        5.26217         16.7423         1.12547 
        5.27788         16.6186         1.11691 
        5.29359         16.5263         1.10844 
        5.30933         16.3712         1.10004 
        5.32504         16.2198         1.09174 
        5.34073         16.1309         1.08354 
        5.35646         16.0027         1.07541 
        5.37218         15.8627         1.06735 
        5.38789         15.7773         1.05939 
        5.40357         15.6532         1.05153 
        5.41929         15.5548         1.04372 
        5.43502         15.3978         1.03599 
         5.4507         15.3055         1.02836 
        5.46639         15.2131         1.02081 
        5.48212         15.0912         1.01331 
        5.49786         14.9587         1.00588 
        5.51353         14.8762        0.998561 
        5.52921         14.7406        0.991307 
        5.54495         14.6252        0.984103 
        5.56066         14.5381        0.976979 
        5.57637         14.4198        0.969926 
        5.59207          14.311        0.962949 
        5.60778         14.2159        0.956038 
        5.62346          14.133        0.949204 
        5.63916         13.9898         0.94243 
        5.65487         13.9208        0.935719 
         5.6706         13.8055        0.929065 
        5.68633         13.7135        0.922473 
        5.70203         13.6069        0.915959 
        5.71773         13.5087        0.909509 
        5.73344         13.4053        0.903117 
        5.74916         13.3125         0.89678 
        5.76486         13.2344        0.890513 
        5.78054         13.1139        0.884316 
        5.79626         13.0365        0.878159 
          5.812         12.9297        0.872056 
         5.8277         12.8603        0.866028 
        5.84339         12.7462        0.860056 
        5.85911         12.6598         0.85413 
        5.87484         12.5875         0.84826 
        5.89053         12.5072        0.842457 
        5.90623         12.3818        0.836706 
        5.92195          12.289        0.830998 
        5.93767         12.2313        0.825347 
        5.95336         12.1697        0.819757 
        5.96905         12.0588        0.814221 
        5.98476         12.0079        0.808728 
        6.00048         11.9107        0.803284 
        6.01617         11.8189        0.797898 
        6.03185         11.7471        0.792567 
        6.04756         11.6604        0.787272 
        6.06331         11.5541        0.782014 
        6.07903         11.4755        0.776815 
        6.09473         11.4247        0.771668 
        6.11044         11.3231        0.766563 
        6.12616         11.2406        0.761505 
        6.14186         11.1736        0.756497 
        6.15755         11.1168        0.751535 
        6.17326         11.0174        0.746613 
        6.18898         10.9366        0.741733 
        6.20467          10.874        0.736905 
        6.22036         10.8022        0.732121 
         6.2361         10.7167        0.727365 
         6.2518         10.6855         0.72266 
        6.26748         10.5902        0.718007 
        6.28319         10.5414        0.713382 
        6.29893         10.4552        0.708793 
        6.31463         10.3832        0.704253 
        6.33033         10.2971        0.699754 
        6.34604         10.2281         0.69529 
        6.36177         10.1735        0.690862 
        6.37747          10.104         0.68648 
