# k  (h/Mpc)    Pcb(k)  (Mpc/h)^3    Pcb_linear(k) (Mpc/h)^3   ShotnoiseSubtracted = true
      0.0200456         24202.9         24825.4 
      0.0350414         17744.5         18713.5 
      0.0492313         13720.4         14137.8 
      0.0637834         11961.7         11809.6 
      0.0800726         9312.94         9222.04 
       0.096163         6542.72         6826.51 
       0.111083         5405.77          5636.3 
       0.126058         4961.98         4965.82 
       0.142273         4232.29         4085.77 
       0.158546         3788.31         3276.16 
        0.17375         3081.09          2855.5 
       0.188953         3015.15         2567.82 
       0.204907         2818.99          2211.6 
       0.220756         2463.88         1884.65 
        0.23588         2220.98         1682.91 
         0.2514         1946.73         1528.58 
       0.267535          1954.4         1356.28 
       0.283568          1774.7         1197.15 
       0.299022         1687.64         1084.59 
       0.314451         1609.78          994.17 
       0.330372         1474.42         901.871 
       0.346141         1441.66         816.861 
       0.361624         1385.71         749.087 
       0.377134         1295.21         691.887 
       0.392932          1243.9         636.984 
       0.408854         1225.44         585.662 
       0.424564         1130.87         542.038 
       0.440253         1109.22          504.01 
       0.455999         1088.85         468.755 
       0.471626         1048.21         436.452 
        0.48727         1009.41         407.482 
       0.502856         974.392         381.651 
       0.518488         973.049         357.832 
       0.534347         913.755         335.499 
       0.550082          899.69         315.287 
       0.565732          888.88         296.972 
       0.581496          847.83         279.976 
       0.597222           828.2         264.276 
       0.612804         817.652         249.904 
       0.628434          796.97          236.61 
       0.644267         776.787          224.14 
       0.660051          758.97         212.598 
       0.675724         751.512         201.936 
       0.691403         728.876         191.998 
       0.707174         706.144         182.675 
       0.722871         693.771          174.01 
        0.73838         681.236             166 
       0.754018         671.492         158.435 
       0.769845         659.386          151.26 
        0.78569         649.104         144.523 
       0.801365         631.599         138.265 
       0.817031         620.017         132.382 
       0.832809         612.499         126.806 
       0.848511          598.96         121.577 
       0.864097         580.428         116.679 
       0.879701          572.84         112.048 
       0.895507         572.072         107.614 
       0.911279         558.746          103.43 
        0.92691         551.343         99.5041 
       0.942635         535.467         95.7609 
       0.958396         523.237         92.2029 
       0.974128         518.347         88.8327 
       0.989692         514.091         85.6648 
        1.00528         496.982         82.6473 
        1.02113         495.864         79.7282 
        1.03692         483.863         76.9614 
        1.05264         478.028          74.339 
        1.06832         466.577         71.8433 
        1.08405         461.855         69.4559 
        1.09979         454.864          67.176 
        1.11537         447.379         65.0212 
        1.13105         440.681         62.9484 
        1.14679         429.669         60.9582 
        1.16256         420.167         59.0504 
        1.17828         419.971         57.2308 
        1.19395         411.389         55.4942 
         1.2097         400.595          53.821 
        1.22537         395.126          52.225 
          1.241         388.717         50.6987 
        1.25666         384.723         49.2298 
        1.27241         377.652         47.8123 
        1.28819         370.259         46.4483 
        1.30392         364.572         45.1417 
        1.31957         359.672         43.8912 
        1.33529          356.85         42.6836 
        1.35108         348.614         41.5168 
        1.36674         342.646          40.402 
         1.3824         339.513         39.3293 
        1.39811         333.292          38.292 
        1.41389         329.287         37.2883 
        1.42964         324.917         36.3222 
        1.44531         321.579         35.3952 
        1.46101         313.054         34.4987 
        1.47667         309.277         33.6359 
        1.49229         305.662          32.805 
        1.50793         298.009         32.0012 
        1.52367         296.953         31.2193 
        1.53953         290.655         30.4583 
        1.55526         287.415         29.7287 
        1.57092         284.841         29.0261 
        1.58662         280.743         28.3446 
        1.60235         275.569         27.6837 
        1.61809         271.533         27.0436 
        1.63369         268.559         26.4294 
        1.64941         263.482         25.8299 
        1.66519         261.353         25.2469 
        1.68085         258.777          24.686 
        1.69652         254.281          24.142 
        1.71228         247.985         23.6114 
        1.72806         244.966         23.0963 
        1.74368         241.758         22.6018 
        1.75933          239.16         22.1207 
        1.77505         236.519         21.6514 
        1.79081         233.094         21.1949 
         1.8065         227.941         20.7536 
        1.82218         225.659         20.3252 
        1.83797         224.954          19.906 
        1.85367         220.243         19.5009 
        1.86928         216.355         19.1095 
        1.88497         214.277         18.7268 
        1.90073         210.836         18.3531 
        1.91647         208.945           17.99 
        1.93218         205.176         17.6374 
        1.94787         202.024         17.2948 
        1.96363         199.351           16.96 
        1.97935          196.69         16.6347 
        1.99499         194.764         16.3198 
        2.01064         191.704         16.0127 
         2.0264         190.449         15.7114 
        2.04216         187.729         15.4181 
        2.05781         184.879         15.1341 
        2.07353         182.268         14.8563 
        2.08928         179.161         14.5848 
        2.10499         177.888         14.3209 
        2.12065          175.45         14.0642 
        2.13633         172.602         13.8137 
        2.15211         170.195         13.5676 
        2.16785         169.078         13.3282 
        2.18349         166.809         13.0961 
        2.19916         164.397          12.869 
        2.21489         162.468         12.6466 
        2.23063         160.583         12.4292 
         2.2463         157.692          12.218 
        2.26194         155.283         12.0122 
        2.27765         153.987         11.8101 
        2.29341         151.952          11.612 
        2.30914         150.519          11.419 
        2.32486         148.654         11.2304 
        2.34061         146.551         11.0458 
        2.35635         144.802         10.8655 
        2.37203         143.253         10.6899 
        2.38768         141.129         10.5184 
        2.40339         139.402         10.3502 
        2.41914         137.761         10.1852 
        2.43483         136.434         10.0244 
         2.4505         134.833         9.86732 
        2.46622         132.898         9.71308 
        2.48195         131.044         9.56213 
        2.49759         129.991         9.41519 
        2.51328         128.876         9.27095 
        2.52906         126.876         9.12882 
        2.54479         124.977          8.9902 
        2.56049         123.107         8.85472 
        2.57618         122.186         8.72216 
        2.59189         121.021          8.5921 
        2.60758         119.289          8.4649 
        2.62325         117.886         8.34043 
        2.63898         116.619         8.21803 
        2.65468         115.002         8.09834 
        2.67044         113.522         7.98052 
        2.68618         112.898         7.86531 
        2.70184         111.496         7.75284 
        2.71755         110.006         7.64228 
        2.73329         108.711         7.53371 
        2.74897         107.684          7.4276 
        2.76462         106.127         7.32377 
        2.78034         105.084         7.22149 
        2.79607          103.85         7.12106 
        2.81179         103.252         7.02265 
        2.82749         101.854          6.9262 
        2.84321         100.388         6.83147 
        2.85893          99.163         6.73853 
        2.87462         98.1682         6.64747 
        2.89033         96.9845         6.55802 
        2.90605         96.1506         6.47013 
        2.92176         94.8089         6.38389 
        2.93747         94.0246         6.29927 
        2.95318         93.4796         6.21617 
        2.96891         92.3827         6.13452 
        2.98456          91.222          6.0547 
        3.00023         90.2766         5.97619 
        3.01596          89.067         5.89882 
        3.03164         88.3475         5.82304 
        3.04738           87.27         5.74837 
         3.0631         86.3161         5.67503 
        3.07883         85.4749         5.60296 
        3.09456         84.7148         5.53216 
        3.11026         83.7476         5.46269 
        3.12596         83.0583         5.39442 
        3.14163         81.9451         5.32747 
        3.15734         81.1997          5.2615 
        3.17308         80.3222         5.19649 
        3.18879         79.5591         5.13275 
        3.20447         78.4976         5.07018 
         3.2202         77.7521         5.00845 
         3.2359         76.9329         4.94786 
        3.25157         76.5237         4.88841 
        3.26729         75.4747         4.82976 
        3.28304         74.6845         4.77195 
        3.29877         73.9411         4.71517 
        3.31446          73.213         4.65943 
        3.33014         72.3396         4.60464 
        3.34585         71.4413         4.55065 
        3.36158         70.9567         4.49744 
        3.37727         70.3707         4.44525 
        3.39294         69.4505         4.39393 
        3.40867         68.9224         4.34324 
        3.42439         68.0076         4.29337 
        3.44008         67.3838         4.24439 
        3.45578         66.5939         4.19613 
        3.47153         66.0969         4.14851 
        3.48724         65.5747         4.10171 
        3.50292         65.0491         4.05575 
        3.51859         64.2404         4.01051 
        3.53431          63.521         3.96582 
        3.55007         63.1081          3.9217 
        3.56577         62.4543         3.87842 
        3.58146         61.7491         3.83582 
        3.59719         61.1787         3.79375 
        3.61292         60.6002         3.75233 
        3.62859         60.0024         3.71168 
        3.64429         59.3959         3.67156 
        3.66003         58.8672         3.63191 
        3.67578         58.1835         3.59285 
        3.69146         57.8586         3.55452 
        3.70712         57.2669         3.51681 
        3.72284         56.7227         3.47952 
        3.73853         56.2529         3.44282 
        3.75422         55.5657         3.40664 
        3.76993         55.1455         3.37095 
        3.78564         54.5277         3.33579 
        3.80137          54.113         3.30106 
        3.81707         53.4965         3.26691 
        3.83279         52.9935         3.23321 
        3.84853         52.5787         3.19992 
        3.86424          52.214         3.16718 
        3.87992         51.5975         3.13494 
        3.89561         51.1539         3.10314 
        3.91134         50.7821         3.07172 
        3.92704         50.2595         3.04077 
        3.94273         49.7661         3.01028 
        3.95845          49.271         2.98015 
        3.97418         48.8509         2.95042 
        3.98988          48.451         2.92114 
        4.00554         48.0414         2.89234 
        4.02125         47.5052         2.86384 
        4.03698         47.0932         2.83568 
        4.05268         46.5915         2.80796 
        4.06839         46.2233         2.78059 
         4.0841         45.9571          2.7536 
        4.09983         45.4936         2.72692 
        4.11555         44.9566         2.70061 
        4.13124         44.5949         2.67472 
        4.14693         44.4619         2.64914 
        4.16266         43.9339         2.62384 
        4.17839         43.5968         2.59888 
        4.19408         43.0292         2.57431 
        4.20977         42.7832         2.55004 
        4.22551          42.403         2.52603 
        4.24123         42.1102         2.50234 
        4.25691          41.646         2.47903 
        4.27259         41.2551         2.45601 
        4.28831         41.0867         2.43323 
        4.30404         40.6179         2.41072 
        4.31974         40.2694         2.38854 
        4.33543         39.8635         2.36665 
        4.35116          39.627         2.34498 
        4.36688         39.3266          2.3236 
        4.38255         38.8481         2.30256 
        4.39825         38.5918         2.28173 
        4.41398         38.2211         2.26112 
         4.4297         37.8261         2.24078 
        4.44541         37.5839          2.2207 
        4.46111         37.3537         2.20088 
        4.47683         36.9974         2.18129 
        4.49251         36.6936         2.16197 
        4.50819         36.3231          2.1429 
         4.5239         36.0887         2.12402 
        4.53962         35.7399         2.10535 
        4.55535         35.4575          2.0869 
        4.57106         35.1819         2.06869 
        4.58678         34.7675         2.05069 
         4.6025         34.5693         2.03291 
        4.61821         34.2908         2.01533 
        4.63391         33.9859         1.99799 
         4.6496         33.6399         1.98086 
        4.66532         33.4288          1.9639 
        4.68103         33.2288         1.94715 
        4.69673          32.828         1.93061 
        4.71241         32.6919         1.91428 
        4.72811         32.3629         1.89811 
        4.74384         32.0842          1.8821 
        4.75955         31.8445         1.86631 
        4.77525         31.5812          1.8507 
        4.79096         31.3514         1.83525 
        4.80669         31.0608         1.81997 
         4.8224         30.9095         1.80488 
        4.83809         30.6172         1.78998 
        4.85379         30.3154         1.77524 
         4.8695         30.1214         1.76065 
        4.88521         29.9142         1.74623 
        4.90093         29.6367         1.73197 
        4.91663         29.3219         1.71789 
        4.93234         29.1645         1.70394 
        4.94807         28.9672         1.69014 
        4.96377         28.7011         1.67652 
        4.97943         28.4833         1.66307 
        4.99514         28.2689         1.64974 
        5.01086         28.0651         1.63654 
        5.02654         27.8325         1.62353 
        5.04227          27.544         1.61061 
          5.058         27.4582         1.59783 
        5.07371          27.185         1.58521 
        5.08942         26.9999         1.57273 
        5.10513         26.7373         1.56038 
        5.12084         26.5782         1.54815 
        5.13656         26.3867         1.53606 
        5.15225         26.1303         1.52412 
        5.16796         25.9564         1.51229 
        5.18369         25.7491         1.50057 
         5.1994         25.5675         1.48899 
        5.21509         25.3981         1.47755 
        5.23079         25.1626         1.46622 
        5.24649         24.9617         1.45501 
        5.26217         24.7336         1.44393 
        5.27788         24.6211         1.43294 
        5.29359         24.4627         1.42207 
        5.30933         24.1993          1.4113 
        5.32504         24.0274         1.40065 
        5.34073         23.8401         1.39013 
        5.35646         23.7251         1.37969 
        5.37218         23.5427         1.36936 
        5.38789         23.3306         1.35915 
        5.40357         23.1447         1.34906 
        5.41929         22.9685         1.33904 
        5.43502         22.8571         1.32913 
         5.4507         22.6732         1.31934 
        5.46639         22.5227         1.30965 
        5.48212           22.32         1.30003 
        5.49786         22.1781          1.2905 
        5.51353         21.9844         1.28111 
        5.52921         21.7843          1.2718 
        5.54495         21.6435         1.26256 
        5.56066         21.5352         1.25342 
        5.57637         21.3788         1.24437 
        5.59207         21.1529         1.23542 
        5.60778         21.0157         1.22655 
        5.62346         20.8627         1.21778 
        5.63916         20.7406         1.20909 
        5.65487         20.5827         1.20048 
         5.6706         20.4337         1.19195 
        5.68633         20.2656         1.18349 
        5.70203         20.1092         1.17513 
        5.71773         19.9771         1.16686 
        5.73344          19.843         1.15866 
        5.74916          19.694         1.15053 
        5.76486         19.5653         1.14249 
        5.78054         19.4043         1.13453 
        5.79626         19.2921         1.12664 
          5.812         19.1428         1.11881 
         5.8277          19.036         1.11107 
        5.84339         18.9255         1.10341 
        5.85911         18.7791         1.09581 
        5.87484         18.6023         1.08828 
        5.89053         18.4847         1.08083 
        5.90623         18.3926         1.07345 
        5.92195         18.2559         1.06613 
        5.93767         18.1171         1.05888 
        5.95336         17.9864         1.05171 
        5.96905         17.8704         1.04461 
        5.98476         17.7164         1.03756 
        6.00048         17.5955         1.03057 
        6.01617         17.4785         1.02366 
        6.03185          17.359         1.01682 
        6.04756         17.2348         1.01003 
        6.06331         17.1119         1.00329 
        6.07903         16.9971        0.996616 
        6.09473         16.8893        0.990013 
        6.11044         16.7798        0.983463 
        6.12616         16.6419        0.976974 
        6.14186         16.5553        0.970549 
        6.15755         16.4248        0.964183 
        6.17326         16.2926        0.957868 
        6.18898         16.2257        0.951607 
        6.20467         16.1091        0.945414 
        6.22036         15.9816        0.939275 
         6.2361         15.8687        0.933175 
         6.2518         15.7576        0.927138 
        6.26748         15.6532        0.921168 
        6.28319         15.5631        0.915234 
        6.29893         15.4112        0.909348 
        6.31463         15.3343        0.903522 
        6.33033          15.234         0.89775 
        6.34604         15.1484        0.892024 
        6.36177         15.0662        0.886342 
        6.37747         14.9384         0.88072 
