# k  (h/Mpc)    Pcb(k)  (Mpc/h)^3    Pcb_linear(k) (Mpc/h)^3   ShotnoiseSubtracted = true
      0.0200456         4441.04         4512.54 
      0.0350414          3343.8         3401.57 
      0.0492313         2563.21         2569.84 
      0.0637834         2176.69         2146.65 
      0.0800726         1701.68          1676.3 
       0.096163         1225.67         1240.86 
       0.111083         1001.61         1024.52 
       0.126058         909.971         902.642 
       0.142273         763.462         742.674 
       0.158546         624.801         595.512 
        0.17375         522.691         519.046 
       0.188953         489.715         466.755 
       0.204907         447.707         402.005 
       0.220756         376.197         342.575 
        0.23588         333.818         305.904 
         0.2514         296.276         277.851 
       0.267535         275.252         246.533 
       0.283568         248.488         217.608 
       0.299022         229.367         197.146 
       0.314451          208.46         180.711 
       0.330372         192.898         163.934 
       0.346141          174.12         148.482 
       0.361624         164.494         136.162 
       0.377134         155.196         125.765 
       0.392932         139.908         115.785 
       0.408854         134.467         106.456 
       0.424564          128.65         98.5269 
       0.440253         119.711         91.6145 
       0.455999         112.885         85.2061 
       0.471626         104.501         79.3343 
        0.48727         101.294         74.0684 
       0.502856         96.1619         69.3731 
       0.518488         92.6964         65.0435 
       0.534347         88.9219          60.984 
       0.550082         81.9823           57.31 
       0.565732           78.01         53.9809 
       0.581496         75.4556         50.8916 
       0.597222         73.0168         48.0378 
       0.612804         68.9295         45.4252 
       0.628434         67.1851         43.0088 
       0.644267         65.2335         40.7422 
       0.660051         62.8121         38.6441 
       0.675724         60.0282         36.7061 
       0.691403         58.2295         34.8997 
       0.707174         56.5184          33.205 
       0.722871         54.5366         31.6299 
        0.73838         53.1175          30.174 
       0.754018         50.6598         28.7989 
       0.769845         49.4901         27.4946 
        0.78569         48.1002         26.2702 
       0.801365         46.4112         25.1325 
       0.817031         45.3218         24.0632 
       0.832809         44.5491         23.0496 
       0.848511         42.1459         22.0991 
       0.864097         41.3158         21.2089 
       0.879701         40.6247          20.367 
       0.895507         39.9548         19.5611 
       0.911279         38.7368         18.8006 
        0.92691         37.7579          18.087 
       0.942635         36.4523         17.4066 
       0.958396         36.0897         16.7598 
       0.974128         35.0232         16.1472 
       0.989692          34.561         15.5714 
        1.00528         33.7998         15.0229 
        1.02113         32.6124         14.4923 
        1.03692         32.0195         13.9894 
        1.05264         31.4622         13.5127 
        1.06832         30.7599          13.059 
        1.08405         30.1574         12.6251 
        1.09979         29.5307         12.2106 
        1.11537         28.7871          11.819 
        1.13105         28.5892         11.4422 
        1.14679         28.1963         11.0804 
        1.16256         27.2608         10.7337 
        1.17828         27.0209         10.4029 
        1.19395         26.3006         10.0872 
         1.2097         26.1361         9.78309 
        1.22537         25.5703         9.49299 
          1.241         25.1147         9.21556 
        1.25666         24.4459         8.94855 
        1.27241          24.167         8.69089 
        1.28819         23.5914         8.44296 
        1.30392         23.4022         8.20545 
        1.31957         23.1866         7.97815 
        1.33529         22.8569         7.75865 
        1.35108         22.3168         7.54656 
        1.36674         21.9783         7.34392 
         1.3824         21.5611         7.14893 
        1.39811         21.2983         6.96038 
        1.41389         21.0902         6.77793 
        1.42964         20.7552         6.60233 
        1.44531         20.5959         6.43383 
        1.46101         20.0296         6.27086 
        1.47667         19.7986         6.11403 
        1.49229         19.6061         5.96299 
        1.50793         19.3148         5.81689 
        1.52367         19.0974         5.67476 
        1.53953         18.8672         5.53643 
        1.55526         18.5256         5.40382 
        1.57092         18.2685         5.27611 
        1.58662         18.0628         5.15223 
        1.60235         17.8198          5.0321 
        1.61809         17.6154         4.91574 
        1.63369         17.3874          4.8041 
        1.64941         17.0499         4.69513 
        1.66519         16.9771         4.58915 
        1.68085         16.7141          4.4872 
        1.69652         16.4922         4.38832 
        1.71228         16.3024         4.29187 
        1.72806         16.1736         4.19824 
        1.74368         15.9359         4.10834 
        1.75933         15.7402          4.0209 
        1.77505         15.5417          3.9356 
        1.79081         15.3371         3.85263 
         1.8065         15.2482          3.7724 
        1.82218         14.9595         3.69453 
        1.83797         14.8126         3.61833 
        1.85367         14.6338          3.5447 
        1.86928         14.5781         3.47356 
        1.88497         14.3104         3.40399 
        1.90073          14.267         3.33606 
        1.91647         14.0801         3.27005 
        1.93218         13.9502         3.20597 
        1.94787         13.7824          3.1437 
        1.96363         13.6699         3.08284 
        1.97935         13.4832         3.02372 
        1.99499         13.3032         2.96648 
        2.01064         13.1595         2.91064 
         2.0264         13.0358         2.85588 
        2.04216         12.9015         2.80257 
        2.05781         12.7034         2.75095 
        2.07353         12.6245         2.70044 
        2.08928         12.5007          2.6511 
        2.10499         12.4034         2.60312 
        2.12065         12.2021         2.55647 
        2.13633         12.1799         2.51093 
        2.15211         12.0061          2.4662 
        2.16785         11.9656         2.42268 
        2.18349           11.86         2.38049 
        2.19916         11.6762         2.33922 
        2.21489         11.5916         2.29878 
        2.23063         11.4572         2.25928 
         2.2463          11.325         2.22088 
        2.26194         11.2326         2.18347 
        2.27765         11.1824         2.14673 
        2.29341         11.0431         2.11073 
        2.30914         10.8699         2.07564 
        2.32486         10.8365         2.04137 
        2.34061         10.7198         2.00781 
        2.35635         10.6458         1.97504 
        2.37203          10.548         1.94311 
        2.38768         10.3973         1.91195 
        2.40339         10.2997         1.88136 
        2.41914         10.1927         1.85137 
        2.43483         10.1678         1.82214 
         2.4505         10.0844         1.79359 
        2.46622         9.96637         1.76556 
        2.48195         9.89549         1.73812 
        2.49759         9.79907         1.71141 
        2.51328         9.69222         1.68519 
        2.52906         9.61635         1.65936 
        2.54479         9.52402         1.63416 
        2.56049         9.46886         1.60953 
        2.57618         9.41274         1.58544 
        2.59189         9.27656          1.5618 
        2.60758         9.25061         1.53867 
        2.62325         9.16984         1.51605 
        2.63898         9.02086          1.4938 
        2.65468         8.94477         1.47204 
        2.67044         8.89412         1.45063 
        2.68618         8.80945         1.42969 
        2.70184         8.74474         1.40924 
        2.71755         8.65434         1.38915 
        2.73329         8.58774         1.36941 
        2.74897         8.51966         1.35012 
        2.76462         8.48932         1.33125 
        2.78034         8.36443         1.31266 
        2.79607         8.31186          1.2944 
        2.81179         8.25002         1.27651 
        2.82749         8.19998         1.25898 
        2.84321         8.15216         1.24176 
        2.85893         8.06821         1.22487 
        2.87462         7.98292         1.20832 
        2.89033         7.91041         1.19206 
        2.90605         7.85357         1.17608 
        2.92176         7.78828         1.16041 
        2.93747         7.72648         1.14503 
        2.95318         7.70566         1.12992 
        2.96891         7.61584         1.11508 
        2.98456         7.54533         1.10057 
        3.00023         7.48012          1.0863 
        3.01596         7.45209         1.07223 
        3.03164         7.39418         1.05846 
        3.04738         7.36003         1.04489 
         3.0631         7.26002         1.03156 
        3.07883         7.20766         1.01846 
        3.09456          7.1585         1.00559 
        3.11026         7.10426        0.992959 
        3.12596         7.05947        0.980549 
        3.14163         6.98237         0.96838 
        3.15734         6.93539        0.956389 
        3.17308         6.89027        0.944571 
        3.18879         6.81611        0.932986 
        3.20447         6.78849        0.921611 
         3.2202         6.71168        0.910391 
         3.2359         6.68934        0.899377 
        3.25157         6.63205        0.888571 
        3.26729         6.60134         0.87791 
        3.28304         6.52609        0.867403 
        3.29877         6.46938        0.857081 
        3.31446         6.43368         0.84695 
        3.33014         6.39326        0.836991 
        3.34585          6.3472        0.827176 
        3.36158         6.29863        0.817505 
        3.37727         6.26261        0.808018 
        3.39294         6.22059         0.79869 
        3.40867          6.1481        0.789475 
        3.42439         6.12568        0.780411 
        3.44008          6.0689        0.771507 
        3.45578          6.0247        0.762734 
        3.47153         5.98895        0.754079 
        3.48724         5.95504        0.745573 
        3.50292         5.90614        0.737218 
        3.51859         5.85962        0.728994 
        3.53431         5.80512        0.720871 
        3.55007         5.78192        0.712851 
        3.56577         5.75518        0.704985 
        3.58146         5.71417         0.69724 
        3.59719         5.66128        0.689594 
        3.61292         5.63108        0.682065 
        3.62859         5.57458        0.674677 
        3.64429         5.54746        0.667384 
        3.66003         5.50248        0.660176 
        3.67578         5.46863        0.653077 
        3.69146         5.40083        0.646109 
        3.70712         5.39421        0.639255 
        3.72284          5.3489        0.632475 
        3.73853         5.32069        0.625805 
        3.75422         5.27321        0.619229 
        3.76993         5.24902        0.612741 
        3.78564          5.1976        0.606349 
        3.80137         5.17128        0.600038 
        3.81707         5.13615        0.593829 
        3.83279         5.10289        0.587703 
        3.84853         5.04883        0.581654 
        3.86424         5.01707        0.575701 
        3.87992          4.9926         0.56984 
        3.89561         4.96467        0.564061 
        3.91134         4.91714         0.55835 
        3.92704         4.87884        0.552724 
        3.94273         4.85858        0.547181 
        3.95845         4.83398        0.541704 
        3.97418         4.78983        0.536301 
        3.98988         4.76605        0.530979 
        4.00554         4.72991        0.525743 
        4.02125         4.70441        0.520563 
        4.03698         4.65415        0.515444 
        4.05268         4.62274        0.510406 
        4.06839          4.6073        0.505431 
         4.0841         4.55806        0.500524 
        4.09983         4.52851        0.495676 
        4.11555         4.48733        0.490893 
        4.13124         4.45962        0.486186 
        4.14693          4.4246        0.481537 
        4.16266         4.40565        0.476938 
        4.17839         4.37314        0.472402 
        4.19408         4.33221        0.467935 
        4.20977         4.30673        0.463524 
        4.22551         4.27711        0.459158 
        4.24123         4.25511        0.454854 
        4.25691         4.22555        0.450616 
        4.27259          4.2068        0.446431 
        4.28831         4.17227        0.442291 
        4.30404         4.14176        0.438199 
        4.31974         4.11232        0.434167 
        4.33543         4.06761        0.430189 
        4.35116         4.04991         0.42625 
        4.36688         4.01764        0.422363 
        4.38255         3.99073        0.418538 
        4.39825         3.98556        0.414752 
        4.41398         3.95884        0.411006 
         4.4297         3.92901         0.40731 
        4.44541         3.89633         0.40366 
        4.46111          3.8774        0.400057 
        4.47683         3.83958        0.396495 
        4.49251         3.82161        0.392984 
        4.50819         3.80218        0.389517 
         4.5239         3.78216        0.386086 
        4.53962         3.75789        0.382692 
        4.55535         3.73211        0.379337 
        4.57106           3.702        0.376028 
        4.58678         3.67852        0.372757 
         4.6025         3.66283        0.369524 
        4.61821         3.63854        0.366329 
        4.63391         3.61475        0.363177 
         4.6496         3.59892        0.360063 
        4.66532          3.5565        0.356981 
        4.68103         3.53533        0.353936 
        4.69673         3.51932        0.350929 
        4.71241         3.49125         0.34796 
        4.72811         3.47281        0.345021 
        4.74384         3.46046        0.342112 
        4.75955         3.43285         0.33924 
        4.77525         3.40793        0.336403 
        4.79096         3.38385        0.333596 
        4.80669         3.36561        0.330818 
         4.8224         3.35281        0.328076 
        4.83809         3.32934        0.325367 
        4.85379         3.30453        0.322687 
         4.8695         3.28348        0.320036 
        4.88521          3.2666        0.317415 
        4.90093         3.24954        0.314823 
        4.91663          3.2297        0.312262 
        4.93234         3.21029        0.309727 
        4.94807         3.19173        0.307218 
        4.96377         3.16778        0.304742 
        4.97943         3.14903        0.302298 
        4.99514         3.12092        0.299875 
        5.01086         3.10975        0.297476 
        5.02654         3.09135         0.29511 
        5.04227         3.07595        0.292762 
          5.058         3.06247        0.290439 
        5.07371          3.0367        0.288146 
        5.08942         3.02507        0.285877 
        5.10513         3.00329        0.283632 
        5.12084         2.98693         0.28141 
        5.13656         2.96873        0.279212 
        5.15225         2.95053        0.277041 
        5.16796         2.92817         0.27489 
        5.18369          2.9199         0.27276 
         5.1994          2.8992        0.270656 
        5.21509         2.88057        0.268576 
        5.23079         2.86433        0.266516 
        5.24649         2.85388        0.264479 
        5.26217         2.83495        0.262464 
        5.27788         2.81122        0.260468 
        5.29359         2.79826        0.258492 
        5.30933         2.78606        0.256533 
        5.32504         2.76074        0.254598 
        5.34073         2.74994        0.252685 
        5.35646         2.73868        0.250788 
        5.37218         2.71725         0.24891 
        5.38789         2.70608        0.247054 
        5.40357          2.6902         0.24522 
        5.41929          2.6702        0.243399 
        5.43502         2.65875        0.241597 
         5.4507         2.64383        0.239818 
        5.46639         2.62827        0.238056 
        5.48212         2.61644        0.236308 
        5.49786         2.59812        0.234575 
        5.51353         2.58235        0.232868 
        5.52921         2.57467        0.231176 
        5.54495         2.55852        0.229496 
        5.56066         2.54106        0.227835 
        5.57637          2.5264         0.22619 
        5.59207         2.51368        0.224563 
        5.60778         2.50262        0.222951 
        5.62346         2.48282        0.221358 
        5.63916         2.47251        0.219778 
        5.65487         2.46176        0.218213 
         5.6706         2.44464        0.216661 
        5.68633          2.4344        0.215124 
        5.70203         2.41852        0.213605 
        5.71773         2.40532        0.212101 
        5.73344         2.38851         0.21061 
        5.74916          2.3813        0.209132 
        5.76486         2.36965        0.207671 
        5.78054         2.35892        0.206225 
        5.79626         2.34891         0.20479 
          5.812         2.32465        0.203366 
         5.8277          2.3191        0.201961 
        5.84339          2.3059        0.200568 
        5.85911         2.29599        0.199186 
        5.87484         2.28084        0.197817 
        5.89053         2.27066        0.196464 
        5.90623          2.2605        0.195123 
        5.92195         2.24625        0.193792 
        5.93767         2.23767        0.192474 
        5.95336         2.22165         0.19117 
        5.96905         2.20968        0.189879 
        5.98476          2.1967        0.188598 
        6.00048          2.1848        0.187329 
        6.01617         2.17924        0.186072 
        6.03185         2.16384        0.184829 
        6.04756         2.15357        0.183595 
        6.06331         2.14006        0.182368 
        6.07903         2.13063        0.181156 
        6.09473         2.12385        0.179956 
        6.11044         2.10969        0.178765 
        6.12616         2.09578        0.177586 
        6.14186         2.09166        0.176418 
        6.15755         2.08241        0.175261 
        6.17326         2.06657        0.174113 
        6.18898         2.06185        0.172975 
        6.20467         2.04871        0.171849 
        6.22036         2.03844        0.170733 
         6.2361         2.02513        0.169624 
         6.2518          2.0158        0.168527 
        6.26748         2.00804        0.167442 
        6.28319          1.9969        0.166363 
        6.29893         1.98966        0.165293 
        6.31463         1.97863        0.164234 
        6.33033         1.96671        0.163185 
        6.34604         1.95988        0.162144 
        6.36177         1.95011        0.161111 
        6.37747         1.93919        0.160089 
