# k  (h/Mpc)    Pcb(k)  (Mpc/h)^3    Pcb_linear(k) (Mpc/h)^3   ShotnoiseSubtracted = true
      0.0200456         11712.3         11885.4 
      0.0350414         9180.58         8959.23 
      0.0492313         6683.02         6768.58 
      0.0637834         5433.11         5653.96 
      0.0800726         4223.36         4415.13 
       0.096163         3364.48         3268.25 
       0.111083         2816.19         2698.42 
       0.126058         2337.47         2377.43 
       0.142273         1979.19         1956.09 
       0.158546         1642.23         1568.49 
        0.17375         1467.26         1367.09 
       0.188953         1356.42         1229.36 
       0.204907         1147.75         1058.82 
       0.220756         1032.14         902.292 
        0.23588         926.812         805.705 
         0.2514         831.913         731.819 
       0.267535         802.981          649.33 
       0.283568         703.412         573.146 
       0.299022         673.064         519.254 
       0.314451         681.917         475.967 
       0.330372         586.791         431.778 
       0.346141         544.008         391.079 
       0.361624         520.651         358.631 
       0.377134         488.432         331.247 
       0.392932          473.78         304.961 
       0.408854          450.51          280.39 
       0.424564          435.83         259.505 
       0.440253         395.183         241.299 
       0.455999         378.927          224.42 
       0.471626         380.648         208.955 
        0.48727         361.325         195.085 
       0.502856         332.296         182.719 
       0.518488         333.406         171.315 
       0.534347         309.854         160.623 
       0.550082         301.136         150.946 
       0.565732         299.223         142.178 
       0.581496         284.889         134.041 
       0.597222         277.183         126.524 
       0.612804         270.069         119.643 
       0.628434         259.479         113.279 
       0.644267         248.538         107.309 
       0.660051         244.191         101.783 
       0.675724         241.926         96.6784 
       0.691403         234.797         91.9207 
       0.707174         226.691         87.4572 
       0.722871         223.307         83.3085 
        0.73838         221.537         79.4738 
       0.754018         209.785          75.852 
       0.769845         209.368         72.4168 
        0.78569         204.227         69.1917 
       0.801365         198.907         66.1953 
       0.817031         193.936          63.379 
       0.832809         191.047         60.7092 
       0.848511         186.315         58.2057 
       0.864097         182.109         55.8611 
       0.879701         180.849         53.6438 
       0.895507         176.283         51.5211 
       0.911279         171.259          49.518 
        0.92691         168.903         47.6384 
       0.942635         166.741         45.8463 
       0.958396         163.415         44.1429 
       0.974128         159.879         42.5294 
       0.989692         155.679         41.0127 
        1.00528         154.385         39.5681 
        1.02113         150.808         38.1705 
        1.03692         149.049         36.8459 
        1.05264         146.938         35.5904 
        1.06832         144.214         34.3956 
        1.08405         141.696         33.2526 
        1.09979         140.825          32.161 
        1.11537         137.394         31.1294 
        1.13105          135.96         30.1371 
        1.14679         133.585         29.1842 
        1.16256         131.434         28.2709 
        1.17828         129.688         27.3997 
        1.19395          126.43         26.5683 
         1.2097         125.901         25.7672 
        1.22537         123.384         25.0031 
          1.241         122.314         24.2724 
        1.25666          118.94         23.5692 
        1.27241         116.837         22.8905 
        1.28819         116.113         22.2375 
        1.30392          113.82          21.612 
        1.31957         112.207         21.0133 
        1.33529         110.951         20.4351 
        1.35108         109.797         19.8765 
        1.36674         107.732         19.3428 
         1.3824         107.328         18.8292 
        1.39811         104.392         18.3326 
        1.41389         103.646         17.8521 
        1.42964         101.555         17.3896 
        1.44531         100.565         16.9458 
        1.46101         99.1401         16.5165 
        1.47667         98.4424         16.1034 
        1.49229         97.3527         15.7056 
        1.50793         95.4256         15.3208 
        1.52367         94.6534         14.9465 
        1.53953         93.1313         14.5821 
        1.55526         91.8083         14.2329 
        1.57092         91.3709         13.8965 
        1.58662         89.9774         13.5702 
        1.60235         88.3934         13.2538 
        1.61809         87.6735         12.9473 
        1.63369         86.0958         12.6533 
        1.64941         86.1001         12.3663 
        1.66519         84.1267         12.0871 
        1.68085         83.2397         11.8186 
        1.69652          81.622         11.5582 
        1.71228         80.9639         11.3041 
        1.72806         80.2166         11.0575 
        1.74368         78.9733         10.8208 
        1.75933         78.2173         10.5905 
        1.77505          77.523         10.3658 
        1.79081         76.1026         10.1473 
         1.8065          75.793         9.93595 
        1.82218         74.0039         9.73085 
        1.83797         73.7242         9.53014 
        1.85367         72.5263         9.33621 
        1.86928         71.7947         9.14884 
        1.88497         71.0381         8.96559 
        1.90073         70.0841         8.78669 
        1.91647         69.0768         8.61284 
        1.93218         68.4662         8.44405 
        1.94787         67.5738         8.28005 
        1.96363         66.6501         8.11975 
        1.97935         66.0287         7.96402 
        1.99499         65.2978         7.81326 
        2.01064         64.5724         7.66619 
         2.0264         63.6071         7.52197 
        2.04216         62.9227         7.38154 
        2.05781         62.1713         7.24559 
        2.07353         61.4182         7.11257 
        2.08928         60.7082          6.9826 
        2.10499         60.0469         6.85623 
        2.12065         59.5495         6.73337 
        2.13633         58.9032         6.61341 
        2.15211         58.0159          6.4956 
        2.16785         57.1603         6.38099 
        2.18349         56.5915         6.26986 
        2.19916         55.8779         6.16115 
        2.21489         55.4548         6.05465 
        2.23063          54.558          5.9506 
         2.2463         54.1294         5.84946 
        2.26194         53.6997         5.75093 
        2.27765         52.8526         5.65416 
        2.29341         52.1605         5.55936 
        2.30914          51.553         5.46693 
        2.32486         50.9897         5.37666 
        2.34061         50.6402         5.28827 
        2.35635         49.7771         5.20195 
        2.37203         49.4726         5.11786 
        2.38768         48.8795         5.03579 
        2.40339          48.361         4.95523 
        2.41914         47.8453         4.87624 
        2.43483         47.0612         4.79926 
         2.4505          46.763         4.72406 
        2.46622         46.2881         4.65022 
        2.48195         45.6534         4.57795 
        2.49759          45.113          4.5076 
        2.51328         44.7785         4.43854 
        2.52906         44.1975          4.3705 
        2.54479         43.8003         4.30413 
        2.56049         43.1166         4.23927 
        2.57618         42.7695          4.1758 
        2.59189          42.321         4.11354 
        2.60758         41.7595         4.05264 
        2.62325          41.436         3.99305 
        2.63898         40.9587         3.93445 
        2.65468         40.6001         3.87714 
        2.67044         40.2159         3.82074 
        2.68618         39.8431         3.76558 
        2.70184         39.1673         3.71173 
        2.71755         38.9712          3.6588 
        2.73329         38.2899         3.60682 
        2.74897         38.0518         3.55602 
        2.76462         37.5353         3.50631 
        2.78034          37.278         3.45735 
        2.79607         36.7586         3.40926 
        2.81179         36.4345         3.36215 
        2.82749         36.0135         3.31598 
        2.84321         35.6083         3.27062 
        2.85893         35.2497         3.22612 
        2.87462         34.8495         3.18253 
        2.89033         34.6225          3.1397 
        2.90605         34.2326         3.09763 
        2.92176           33.96         3.05634 
        2.93747         33.6059         3.01583 
        2.95318         33.1882         2.97604 
        2.96891         32.9052         2.93695 
        2.98456         32.5543         2.89874 
        3.00023         32.1407         2.86115 
        3.01596         31.9024         2.82411 
        3.03164          31.562         2.78783 
        3.04738         31.2947         2.75208 
         3.0631         31.0109         2.71697 
        3.07883         30.5897         2.68246 
        3.09456         30.1817         2.64857 
        3.11026         29.9196         2.61531 
        3.12596         29.6344         2.58262 
        3.14163         29.3625         2.55057 
        3.15734         29.0459         2.51899 
        3.17308         28.7554         2.48786 
        3.18879         28.4925         2.45735 
        3.20447         28.2007         2.42739 
         3.2202         27.8808         2.39784 
         3.2359         27.6238         2.36883 
        3.25157         27.3837         2.34037 
        3.26729         27.0825         2.31229 
        3.28304         26.7411         2.28461 
        3.29877         26.4885         2.25743 
        3.31446         26.2004         2.23074 
        3.33014         26.0474         2.20451 
        3.34585         25.7687         2.17866 
        3.36158          25.523         2.15319 
        3.37727         25.2497          2.1282 
        3.39294         24.9889         2.10363 
        3.40867         24.7699         2.07936 
        3.42439         24.5609         2.05549 
        3.44008         24.2858         2.03203 
        3.45578         24.1756         2.00893 
        3.47153         23.8155         1.98613 
        3.48724         23.5856         1.96373 
        3.50292         23.3752         1.94172 
        3.51859         23.1524         1.92006 
        3.53431         22.9216         1.89867 
        3.55007         22.6954         1.87754 
        3.56577         22.5443         1.85683 
        3.58146         22.3168         1.83643 
        3.59719         22.0915         1.81629 
        3.61292         21.8893         1.79646 
        3.62859         21.6471           1.777 
        3.64429          21.439         1.75779 
        3.66003         21.3228         1.73881 
        3.67578         21.1243         1.72011 
        3.69146         20.8613         1.70176 
        3.70712         20.7113          1.6837 
        3.72284         20.4936         1.66585 
        3.73853         20.3152         1.64828 
        3.75422         20.0437         1.63096 
        3.76993         19.9468         1.61387 
        3.78564         19.7618         1.59703 
        3.80137         19.5882         1.58041 
        3.81707         19.4059         1.56406 
        3.83279         19.2245         1.54792 
        3.84853         19.0425         1.53199 
        3.86424         18.8554         1.51631 
        3.87992         18.6566         1.50088 
        3.89561         18.5291         1.48565 
        3.91134         18.3047         1.47061 
        3.92704         18.1718         1.45579 
        3.94273         18.0159          1.4412 
        3.95845         17.8389         1.42677 
        3.97418         17.6522         1.41254 
        3.98988         17.5316         1.39852 
        4.00554         17.4375         1.38473 
        4.02125         17.1616         1.37109 
        4.03698         17.0129          1.3576 
        4.05268         16.9224         1.34433 
        4.06839         16.7692         1.33123 
         4.0841          16.603         1.31831 
        4.09983         16.4196         1.30554 
        4.11555         16.2982         1.29294 
        4.13124         16.1796         1.28054 
        4.14693         16.0608          1.2683 
        4.16266         15.9376         1.25619 
        4.17839         15.7682         1.24424 
        4.19408         15.6087         1.23247 
        4.20977         15.4908         1.22085 
        4.22551         15.3315         1.20936 
        4.24123         15.2213         1.19802 
        4.25691         15.0462         1.18686 
        4.27259          14.959         1.17583 
        4.28831         14.8639         1.16493 
        4.30404          14.713         1.15415 
        4.31974         14.5926         1.14353 
        4.33543         14.4551         1.13305 
        4.35116         14.3157         1.12268 
        4.36688         14.2166         1.11244 
        4.38255          14.078         1.10237 
        4.39825         13.9375          1.0924 
        4.41398         13.8572         1.08253 
         4.4297         13.7219         1.07279 
        4.44541         13.5949         1.06318 
        4.46111         13.5177         1.05369 
        4.47683         13.3739         1.04431 
        4.49251         13.2692         1.03506 
        4.50819         13.1624         1.02593 
         4.5239         13.0531         1.01689 
        4.53962         12.9524         1.00795 
        4.55535         12.8427        0.999119 
        4.57106         12.7268        0.990401 
        4.58678         12.6372        0.981786 
         4.6025         12.5395         0.97327 
        4.61821         12.4242        0.964858 
        4.63391         12.3179        0.956555 
         4.6496         12.2204        0.948353 
        4.66532         12.0941        0.940234 
        4.68103         12.0225        0.932214 
        4.69673         11.9074        0.924295 
        4.71241         11.8501        0.916476 
        4.72811         11.7572        0.908734 
        4.74384         11.6353        0.901072 
        4.75955          11.538        0.893509 
        4.77525         11.4597        0.886037 
        4.79096         11.3737        0.878641 
        4.80669         11.2908        0.871327 
         4.8224         11.2019        0.864103 
        4.83809         11.1099        0.856969 
        4.85379         11.0374        0.849911 
         4.8695         10.9116        0.842927 
        4.88521         10.8626        0.836024 
        4.90093         10.7812        0.829197 
        4.91663         10.6786        0.822452 
        4.93234         10.5968        0.815775 
        4.94807         10.5175        0.809167 
        4.96377         10.4447        0.802645 
        4.97943         10.3587        0.796209 
        4.99514         10.2291        0.789826 
        5.01086         10.2094        0.783509 
        5.02654         10.1186        0.777276 
        5.04227         10.0048        0.771093 
          5.058         9.96638        0.764974 
        5.07371         9.87813        0.758933 
        5.08942         9.82573        0.752957 
        5.10513         9.73294        0.747044 
        5.12084         9.66548        0.741192 
        5.13656         9.59454        0.735403 
        5.15225         9.50379        0.729686 
        5.16796         9.43678         0.72402 
        5.18369         9.37628         0.71841 
         5.1994         9.30328        0.712868 
        5.21509         9.21214        0.707391 
        5.23079         9.13905        0.701964 
        5.24649         9.09005        0.696598 
        5.26217         8.99718        0.691292 
        5.27788         8.97598        0.686034 
        5.29359         8.87096        0.680829 
        5.30933         8.83101        0.675671 
        5.32504         8.76727        0.670574 
        5.34073         8.70664        0.665536 
        5.35646         8.61917        0.660539 
        5.37218         8.56551        0.655593 
        5.38789         8.49032        0.650705 
        5.40357         8.42778        0.645872 
        5.41929         8.38814        0.641078 
        5.43502         8.32001        0.636332 
         5.4507          8.2517        0.631645 
        5.46639         8.19079        0.627004 
        5.48212         8.12839          0.6224 
        5.49786         8.07909        0.617835 
        5.51353         8.02466         0.61334 
        5.52921         7.97544        0.608884 
        5.54495         7.91115        0.604459 
        5.56066         7.85217        0.600083 
        5.57637         7.79539        0.595752 
        5.59207         7.74804        0.591466 
        5.60778         7.67404        0.587221 
        5.62346         7.63096        0.583023 
        5.63916         7.58067        0.578863 
        5.65487         7.53214        0.574741 
         5.6706         7.46463        0.570654 
        5.68633         7.42045        0.566605 
        5.70203          7.3536        0.562604 
        5.71773         7.32123        0.558642 
        5.73344         7.27135        0.554716 
        5.74916         7.22764        0.550824 
        5.76486         7.17047        0.546974 
        5.78054         7.10809        0.543167 
        5.79626         7.06131        0.539386 
          5.812         7.01908        0.535637 
         5.8277         6.96629        0.531935 
        5.84339         6.92703        0.528267 
        5.85911         6.86362        0.524627 
        5.87484         6.82451        0.521022 
        5.89053         6.77443        0.517457 
        5.90623         6.72799        0.513925 
        5.92195         6.69595        0.510419 
        5.93767         6.63323        0.506947 
        5.95336         6.58651        0.503514 
        5.96905         6.55763        0.500114 
        5.98476         6.51365         0.49674 
        6.00048         6.46017        0.493396 
        6.01617         6.41728        0.490087 
        6.03185         6.37496        0.486813 
        6.04756         6.32195        0.483561 
        6.06331         6.28947        0.480331 
        6.07903         6.25701        0.477138 
        6.09473         6.20712        0.473977 
        6.11044         6.18035        0.470841 
        6.12616         6.12398        0.467734 
        6.14186         6.09136        0.464658 
        6.15755         6.05017         0.46161 
        6.17326         6.00346        0.458587 
        6.18898         5.97152         0.45559 
        6.20467         5.92582        0.452624 
        6.22036         5.88461        0.449686 
         6.2361         5.85147        0.446765 
         6.2518         5.80151        0.443875 
        6.26748         5.77719        0.441017 
        6.28319         5.73102        0.438176 
        6.29893         5.70184        0.435358 
        6.31463         5.66723        0.432569 
        6.33033          5.6233        0.429805 
        6.34604         5.58902        0.427064 
        6.36177         5.55645        0.424343 
        6.37747         5.51911        0.421652 
