# k  (h/Mpc)    Pcb(k)  (Mpc/h)^3    Pcb_linear(k) (Mpc/h)^3   ShotnoiseSubtracted = true
      0.0200456         23570.3           24038 
      0.0350414         14863.7         15475.7 
      0.0492313         10534.9         10674.9 
      0.0637834         8963.41         8700.06 
      0.0800726         6764.74         6534.09 
       0.096163         4491.43         4511.46 
       0.111083         3624.18         3619.23 
       0.126058         3318.65         3205.61 
       0.142273         2803.33         2584.09 
       0.158546         2391.53         1982.98 
        0.17375         1913.83         1703.83 
       0.188953         1863.48         1540.88 
       0.204907         1720.79         1311.42 
       0.220756         1472.65         1087.61 
        0.23588         1316.91         960.555 
         0.2514         1138.55         873.693 
       0.267535         1121.34          769.72 
       0.283568            1011         668.375 
       0.299022         954.439         599.874 
       0.314451         903.504         549.086 
       0.330372         826.759         495.634 
       0.346141         776.178         444.414 
       0.361624         745.974         404.533 
       0.377134         690.835         372.431 
       0.392932         657.235         341.515 
       0.408854         643.254         311.927 
       0.424564         591.228         286.996 
       0.440253          582.48         265.859 
       0.455999          552.39         246.366 
       0.471626         532.603         228.322 
        0.48727         506.586         212.179 
       0.502856         491.376         198.007 
       0.518488         484.892         185.039 
       0.534347         452.539         172.846 
       0.550082          436.83          161.83 
       0.565732         434.961         151.924 
       0.581496         406.494         142.791 
       0.597222         399.045         134.362 
       0.612804         389.577         126.659 
       0.628434         376.377          119.57 
       0.644267         365.609         112.946 
       0.660051         354.253         106.834 
       0.675724         349.278         101.206 
       0.691403          336.72         95.9761 
       0.707174         325.288         91.0841 
       0.722871         319.932         86.5501 
        0.73838         315.174         82.3709 
       0.754018         306.362         78.4343 
       0.769845         299.393         74.7106 
        0.78569         294.923         71.2237 
       0.801365         286.063         67.9923 
       0.817031         276.607         64.9626 
       0.832809         274.718         62.0972 
       0.848511         266.993         59.4165 
       0.864097         260.892         56.9115 
       0.879701         256.251         54.5478 
       0.895507         252.153         52.2897 
       0.911279         244.495         50.1635 
        0.92691          242.12         48.1723 
       0.942635         235.332         46.2777 
       0.958396         231.209         44.4804 
       0.974128         226.473         42.7812 
       0.989692         223.647         41.1871 
        1.00528          218.94         39.6714 
        1.02113         215.598         38.2078 
        1.03692         211.101         36.8231 
        1.05264         208.343         35.5131 
        1.06832         202.881         34.2684 
        1.08405         199.823         33.0799 
        1.09979         195.085         31.9467 
        1.11537         193.395         30.8775 
        1.13105          188.15         29.8506 
        1.14679         184.969         28.8662 
        1.16256         183.175         27.9241 
        1.17828         181.163         27.0269 
        1.19395         176.591         26.1719 
         1.2097         175.244         25.3493 
        1.22537          172.05         24.5659 
          1.241         170.382         23.8178 
        1.25666         167.718         23.0988 
        1.27241         164.347         22.4059 
        1.28819         162.237         21.7401 
        1.30392         158.353         21.1032 
        1.31957         158.161         20.4944 
        1.33529         154.738         19.9073 
        1.35108         150.961         19.3407 
        1.36674         149.751         18.8001 
         1.3824          149.18         18.2805 
        1.39811         146.322         17.7787 
        1.41389          143.83         17.2937 
        1.42964         142.017         16.8275 
        1.44531         140.049         16.3807 
        1.46101         137.195          15.949 
        1.47667         135.204         15.5341 
        1.49229         134.561         15.1349 
        1.50793         131.191         14.7493 
        1.52367         130.041         14.3745 
        1.53953         128.076         14.0101 
        1.55526         125.782         13.6612 
        1.57092          124.38         13.3255 
        1.58662         123.108         13.0003 
        1.60235         120.773         12.6851 
        1.61809         119.919         12.3803 
        1.63369         117.472          12.088 
        1.64941         115.164         11.8031 
        1.66519         113.972         11.5262 
        1.68085         112.886         11.2601 
        1.69652         111.945         11.0023 
        1.71228         109.502         10.7511 
        1.72806         107.989         10.5074 
        1.74368         107.162         10.2737 
        1.75933         105.209         10.0466 
        1.77505          104.14         9.82522 
        1.79081         102.949         9.61009 
         1.8065         101.371         9.40227 
        1.82218         99.9589         9.20074 
        1.83797         98.5452         9.00369 
        1.85367         97.3148         8.81346 
        1.86928         95.6686         8.62983 
        1.88497         94.6711         8.45039 
        1.90073         93.2055         8.27536 
        1.91647         92.0652         8.10541 
        1.93218         91.0502         7.94055 
        1.94787         89.3597         7.78049 
        1.96363         88.4118         7.62417 
        1.97935         87.1205         7.47244 
        1.99499         86.1289         7.32566 
        2.01064         84.8679         7.18259 
         2.0264         83.9571         7.04241 
        2.04216         82.8342         6.90601 
        2.05781         82.1465         6.77406 
        2.07353         81.2637         6.64506 
        2.08928         79.2443         6.51911 
        2.10499         78.3956         6.39674 
        2.12065         77.5525         6.27785 
        2.13633         76.7235         6.16186 
        2.15211         75.6101         6.04803 
        2.16785         74.5245         5.93737 
        2.18349         73.6956         5.83016 
        2.19916         72.8059         5.72534 
        2.21489         72.0226         5.62274 
        2.23063          70.917         5.52256 
         2.2463         70.0087         5.42525 
        2.26194         69.1537         5.33051 
        2.27765         68.0998         5.23753 
        2.29341         67.6472         5.14651 
        2.30914         66.6768         5.05783 
        2.32486         66.0905         4.97127 
        2.34061         65.2394         4.88657 
        2.35635         63.9634         4.80391 
        2.37203         63.2154         4.72343 
        2.38768         62.5393         4.64494 
        2.40339         61.7587         4.56794 
        2.41914         61.0384         4.49249 
        2.43483         60.4107         4.41901 
         2.4505          59.519         4.34727 
        2.46622         58.7411         4.27687 
        2.48195         58.1823         4.20801 
        2.49759         57.4714         4.14102 
        2.51328         57.0014          4.0753 
        2.52906         56.0933         4.01058 
        2.54479         55.4965          3.9475 
        2.56049          54.747         3.88589 
        2.57618         54.4294         3.82563 
        2.59189          53.532         3.76655 
        2.60758         52.7588          3.7088 
        2.62325         52.2848         3.65233 
        2.63898         51.4649         3.59682 
        2.65468         51.0925         3.54257 
        2.67044         50.6074          3.4892 
        2.68618         50.0135         3.43705 
        2.70184         49.5815         3.38615 
        2.71755         48.8191         3.33616 
        2.73329          48.256         3.28709 
        2.74897         47.8378         3.23916 
        2.76462         47.1332         3.19228 
        2.78034         46.6602         3.14613 
        2.79607         46.2592         3.10083 
        2.81179          45.609         3.05647 
        2.82749         45.1212         3.01302 
        2.84321         44.6591         2.97036 
        2.85893         44.0398         2.92854 
        2.87462         43.5896         2.88758 
        2.89033         43.0181         2.84736 
        2.90605         42.6243         2.80787 
        2.92176         42.0426         2.76914 
        2.93747         41.6714         2.73115 
        2.95318          41.195         2.69387 
        2.96891         40.6506         2.65725 
        2.98456          40.203         2.62147 
        3.00023          39.758          2.5863 
        3.01596         39.2394         2.55165 
        3.03164         38.8494         2.51773 
        3.04738         38.5032         2.48433 
         3.0631         38.0138         2.45154 
        3.07883         37.7485         2.41933 
        3.09456         37.2421          2.3877 
        3.11026         36.8211         2.35668 
        3.12596         36.3544         2.32621 
        3.14163         36.1984         2.29635 
        3.15734         35.6179         2.26693 
        3.17308         35.3718         2.23796 
        3.18879         34.9377         2.20956 
        3.20447           34.45          2.1817 
         3.2202         34.0934         2.15423 
         3.2359         33.9161         2.12727 
        3.25157         33.3868         2.10084 
        3.26729         33.0682         2.07477 
        3.28304         32.8327         2.04909 
        3.29877         32.4988         2.02387 
        3.31446         31.9021         1.99913 
        3.33014         31.7129         1.97482 
        3.34585         31.3805         1.95087 
        3.36158         31.1827         1.92729 
        3.37727         30.8226         1.90416 
        3.39294         30.5402         1.88143 
        3.40867         30.1807         1.85898 
        3.42439         29.8922         1.83692 
        3.44008         29.5048         1.81525 
        3.45578         29.2187         1.79391 
        3.47153         29.0456         1.77286 
        3.48724         28.6669         1.75218 
        3.50292         28.3613         1.73188 
        3.51859         28.1429         1.71191 
        3.53431         27.7763         1.69219 
        3.55007         27.5005         1.67273 
        3.56577         27.2739         1.65365 
        3.58146         27.0653         1.63487 
        3.59719         26.7709         1.61634 
        3.61292         26.4488          1.5981 
        3.62859         26.1953          1.5802 
        3.64429         25.9454         1.56255 
        3.66003         25.7512          1.5451 
        3.67578         25.4257         1.52793 
        3.69146          25.219         1.51108 
        3.70712         24.9875         1.49452 
        3.72284         24.7406         1.47813 
        3.73853          24.471         1.46202 
        3.75422         24.2416         1.44615 
        3.76993         24.0215         1.43049 
        3.78564          23.768         1.41507 
        3.80137         23.5397         1.39985 
        3.81707         23.3514         1.38488 
        3.83279         23.0296         1.37012 
        3.84853         22.8942         1.35554 
        3.86424         22.7639         1.34121 
        3.87992          22.458          1.3271 
        3.89561         22.3485         1.31319 
        3.91134         22.0788         1.29945 
        3.92704         21.8589         1.28593 
        3.94273         21.5936          1.2726 
        3.95845         21.4962         1.25944 
        3.97418         21.2694         1.24646 
        3.98988         21.0228         1.23368 
        4.00554         20.8633         1.22112 
        4.02125         20.6408         1.20869 
        4.03698         20.5222         1.19641 
        4.05268         20.3852         1.18433 
        4.06839          20.136          1.1724 
         4.0841         19.9451         1.16065 
        4.09983         19.7107         1.14903 
        4.11555         19.5267         1.13758 
        4.13124         19.3591         1.12631 
        4.14693         19.2135         1.11519 
        4.16266         19.0465         1.10419 
        4.17839         18.8427         1.09334 
        4.19408         18.6492         1.08266 
        4.20977         18.4683         1.07212 
        4.22551         18.3072         1.06169 
        4.24123          18.168         1.05141 
        4.25691         18.0386         1.04129 
        4.27259         17.8751         1.03131 
        4.28831          17.697         1.02143 
        4.30404         17.5399         1.01167 
        4.31974          17.426         1.00206 
        4.33543          17.257        0.992574 
        4.35116         17.0971         0.98319 
        4.36688         16.9847         0.97393 
        4.38255          16.804        0.964823 
        4.39825         16.6808        0.955812 
        4.41398         16.4689        0.946896 
         4.4297         16.3654        0.938103 
        4.44541         16.2537        0.929422 
        4.46111         16.0851        0.920857 
        4.47683         15.9826        0.912392 
        4.49251         15.7922         0.90405 
        4.50819         15.6682        0.895813 
         4.5239         15.5165        0.887667 
        4.53962         15.4158        0.879611 
        4.55535         15.2887         0.87165 
        4.57106         15.1593        0.863798 
        4.58678         15.0186         0.85604 
         4.6025         14.8652        0.848375 
        4.61821         14.7694        0.840804 
        4.63391         14.6333        0.833334 
         4.6496         14.5316        0.825958 
        4.66532          14.372        0.818658 
        4.68103         14.2754         0.81145 
        4.69673         14.1532        0.804334 
        4.71241         14.0067        0.797309 
        4.72811          13.908        0.790357 
        4.74384         13.8099        0.783477 
        4.75955         13.7054         0.77669 
        4.77525         13.5796        0.769985 
        4.79096         13.4713        0.763351 
        4.80669         13.3429        0.756792 
         4.8224         13.2399        0.750316 
        4.83809         13.1481        0.743922 
        4.85379         13.0102        0.737598 
         4.8695         12.9227        0.731341 
        4.88521         12.8551         0.72516 
        4.90093         12.7132        0.719048 
        4.91663         12.6503        0.713011 
        4.93234         12.5211        0.707037 
        4.94807         12.4205        0.701127 
        4.96377         12.3067        0.695294 
        4.97943         12.2392         0.68954 
        4.99514         12.0812        0.683835 
        5.01086         12.0308         0.67819 
        5.02654          11.937        0.672623 
        5.04227         11.8574        0.667101 
          5.058         11.7577        0.661638 
        5.07371         11.6474        0.656246 
        5.08942          11.557        0.650914 
        5.10513         11.4605        0.645639 
        5.12084         11.3753        0.640419 
        5.13656         11.2842        0.635258 
        5.15225         11.2049        0.630162 
        5.16796         11.1222        0.625113 
        5.18369         11.0243        0.620115 
         5.1994         10.9486        0.615179 
        5.21509          10.869        0.610302 
        5.23079         10.7722        0.605471 
        5.24649         10.6862        0.600695 
        5.26217         10.6003        0.595974 
        5.27788         10.5247        0.591297 
        5.29359         10.4571        0.586668 
        5.30933         10.3645        0.582082 
        5.32504         10.2806        0.577552 
        5.34073         10.2213        0.573075 
        5.35646         10.1232        0.568636 
        5.37218         10.0615        0.564243 
        5.38789         9.98106        0.559903 
        5.40357         9.90842        0.555613 
        5.41929         9.82936        0.551358 
        5.43502         9.74821        0.547147 
         5.4507         9.67282        0.542989 
        5.46639         9.61658        0.538874 
        5.48212         9.53564        0.534791 
        5.49786         9.45859        0.530745 
        5.51353         9.40456        0.526761 
        5.52921         9.33823        0.522813 
        5.54495         9.26251        0.518894 
        5.56066          9.2038        0.515019 
        5.57637         9.11451        0.511184 
        5.59207         9.06444        0.507391 
        5.60778         8.98455        0.503634 
        5.62346         8.91152        0.499921 
        5.63916         8.86426        0.496241 
        5.65487         8.79657        0.492596 
         5.6706         8.72771        0.488983 
        5.68633         8.66879        0.485404 
        5.70203         8.60783        0.481868 
        5.71773         8.54287        0.478368 
        5.73344         8.48831        0.474901 
        5.74916         8.42681        0.471464 
        5.76486         8.35245        0.468066 
        5.78054         8.31797        0.464706 
        5.79626         8.25342        0.461369 
          5.812         8.18354        0.458062 
         5.8277         8.11894        0.454796 
        5.84339         8.07274        0.451562 
        5.85911         8.02042        0.448353 
        5.87484         7.95543        0.445175 
        5.89053         7.90189        0.442034 
        5.90623         7.86477        0.438922 
        5.92195         7.78284        0.435834 
        5.93767         7.71761        0.432777 
        5.95336         7.69722        0.429754 
        5.96905         7.62451        0.426761 
        5.98476         7.57034        0.423792 
        6.00048         7.53484         0.42085 
        6.01617         7.46942         0.41794 
        6.03185         7.41472        0.415061 
        6.04756         7.36805        0.412201 
        6.06331         7.31345        0.409362 
        6.07903         7.26712        0.406556 
        6.09473         7.21353        0.403778 
        6.11044         7.15039        0.401023 
        6.12616         7.11232        0.398295 
        6.14186         7.06765        0.395594 
        6.15755         7.01724        0.392918 
        6.17326         6.97679        0.390265 
        6.18898         6.92838        0.387635 
        6.20467         6.88117        0.385033 
        6.22036         6.82155        0.382455 
         6.2361         6.78756        0.379894 
         6.2518         6.73585         0.37736 
        6.26748         6.70053        0.374855 
        6.28319         6.65834        0.372365 
        6.29893         6.60326        0.369896 
        6.31463         6.56979        0.367452 
        6.33033         6.50608        0.365032 
        6.34604         6.47978        0.362631 
        6.36177         6.43214         0.36025 
        6.37747         6.39051        0.357894 
