# k  (h/Mpc)    Pcb(k)  (Mpc/h)^3    Pcb_linear(k) (Mpc/h)^3   ShotnoiseSubtracted = true
      0.0200456         6625.47         6718.75 
      0.0350414         4260.31         4325.52 
      0.0492313         2985.98         2983.69 
      0.0637834         2479.16         2431.71 
      0.0800726         1869.74         1826.31 
       0.096163         1255.79         1260.98 
       0.111083         1001.11         1011.59 
       0.126058         911.884         895.983 
       0.142273          755.32         722.266 
       0.158546         599.063         554.254 
        0.17375         490.171         476.228 
       0.188953         463.046         430.683 
       0.204907         419.236         366.548 
       0.220756          345.85         303.992 
        0.23588         303.635          268.48 
         0.2514         267.638         244.201 
       0.267535         248.471         215.141 
       0.283568         221.829         186.814 
       0.299022         203.786         167.668 
       0.314451          184.98         153.472 
       0.330372         170.181         138.532 
       0.346141         151.474         124.216 
       0.361624         143.493         113.069 
       0.377134         133.931         104.096 
       0.392932         120.755         95.4551 
       0.408854         115.245         87.1851 
       0.424564           109.7         80.2167 
       0.440253         102.496          74.309 
       0.455999         95.5617         68.8605 
       0.471626          88.479         63.8171 
        0.48727         84.8851         59.3051 
       0.502856         80.7687         55.3439 
       0.518488         77.6876         51.7193 
       0.534347         74.2976         48.3112 
       0.550082         68.0136         45.2322 
       0.565732         64.6453         42.4634 
       0.581496         62.2821         39.9109 
       0.597222         59.9642         37.5549 
       0.612804         56.6044         35.4018 
       0.628434         54.9914         33.4203 
       0.644267         53.0553         31.5689 
       0.660051         51.2089         29.8607 
       0.675724         48.8058         28.2876 
       0.691403         47.2184         26.8258 
       0.707174         45.4987         25.4584 
       0.722871         44.1092         24.1912 
        0.73838         42.8342         23.0231 
       0.754018         40.6031         21.9228 
       0.769845         39.5697          20.882 
        0.78569         38.4966         19.9074 
       0.801365         36.9584         19.0042 
       0.817031         35.9472         18.1574 
       0.832809         35.2979         17.3565 
       0.848511         33.3893         16.6072 
       0.864097         32.7139         15.9071 
       0.879701         31.9341         15.2464 
       0.895507         31.4058         14.6152 
       0.911279         30.3244         14.0209 
        0.92691         29.6828         13.4644 
       0.942635         28.4405         12.9348 
       0.958396         28.1973         12.4325 
       0.974128          27.309         11.9576 
       0.989692         26.8534          11.512 
        1.00528         26.1931         11.0883 
        1.02113         25.3231         10.6793 
        1.03692          24.659         10.2923 
        1.05264           24.47         9.92608 
        1.06832          23.549          9.5782 
        1.08405         23.1886         9.24599 
        1.09979         22.7386         8.92925 
        1.11537         22.0327         8.63041 
        1.13105         21.9663         8.34339 
        1.14679         21.5249         8.06825 
        1.16256         20.8269         7.80492 
        1.17828         20.4735         7.55415 
        1.19395         20.0507         7.31517 
         1.2097         19.8294         7.08527 
        1.22537         19.5195          6.8663 
          1.241         18.9676         6.65719 
        1.25666         18.5156         6.45622 
        1.27241         18.2333         6.26256 
        1.28819         17.7711         6.07647 
        1.30392         17.5786         5.89844 
        1.31957         17.4014         5.72829 
        1.33529         17.1585         5.56419 
        1.35108         16.7498         5.40583 
        1.36674         16.4624         5.25472 
         1.3824         16.0854         5.10949 
        1.39811         15.9558         4.96924 
        1.41389         15.7584         4.83369 
        1.42964         15.3785         4.70338 
        1.44531            15.3         4.57849 
        1.46101         14.8995         4.45783 
        1.47667         14.7115         4.34186 
        1.49229         14.5357         4.23029 
        1.50793         14.3359          4.1225 
        1.52367         14.1129         4.01774 
        1.53953         13.9759          3.9159 
        1.55526         13.6999         3.81837 
        1.57092         13.4316         3.72455 
        1.58662         13.3284         3.63364 
        1.60235         13.1254         3.54556 
        1.61809          12.948         3.46034 
        1.63369         12.7944         3.37866 
        1.64941         12.5331         3.29901 
        1.66519         12.4464         3.22163 
        1.68085         12.2456         3.14727 
        1.69652         12.0703         3.07521 
        1.71228         11.9676         3.00498 
        1.72806         11.7673         2.93688 
        1.74368         11.5954         2.87155 
        1.75933         11.4868         2.80807 
        1.77505         11.3723          2.7462 
        1.79081         11.1718         2.68607 
         1.8065         11.1114         2.62798 
        1.82218          10.899         2.57165 
        1.83797         10.7102         2.51658 
        1.85367         10.6142         2.46341 
        1.86928         10.5274         2.41208 
        1.88497         10.3583         2.36193 
        1.90073         10.3384           2.313 
        1.91647         10.1441          2.2655 
        1.93218          10.056         2.21942 
        1.94787         9.94199         2.17468 
        1.96363         9.85935         2.13099 
        1.97935         9.73072         2.08858 
        1.99499         9.55838         2.04756 
        2.01064         9.50473         2.00757 
         2.0264         9.37826         1.96839 
        2.04216         9.27532         1.93026 
        2.05781         9.11943         1.89338 
        2.07353         9.07323         1.85733 
        2.08928         8.96671         1.82212 
        2.10499         8.86169         1.78792 
        2.12065         8.73157         1.75469 
        2.13633         8.71356         1.72227 
        2.15211         8.56789         1.69046 
        2.16785         8.51016         1.65953 
        2.18349         8.45042         1.62956 
        2.19916         8.34805         1.60026 
        2.21489         8.25629         1.57158 
        2.23063         8.16727         1.54358 
         2.2463         8.07042         1.51638 
        2.26194         7.98367          1.4899 
        2.27765         7.95314         1.46392 
        2.29341         7.84622         1.43848 
        2.30914         7.72962         1.41369 
        2.32486         7.69197         1.38949 
        2.34061         7.62047         1.36582 
        2.35635          7.5264         1.34272 
        2.37203         7.49305         1.32022 
        2.38768         7.34734         1.29828 
        2.40339         7.29255         1.27676 
        2.41914         7.22639         1.25567 
        2.43483         7.20295         1.23513 
         2.4505         7.09605         1.21508 
        2.46622         7.02622         1.19541 
        2.48195         6.99673         1.17616 
        2.49759         6.90535         1.15744 
        2.51328         6.82206         1.13907 
        2.52906         6.78916         1.12098 
        2.54479         6.69916         1.10335 
        2.56049         6.69462         1.08613 
        2.57618         6.62989         1.06928 
        2.59189         6.52612         1.05277 
        2.60758         6.50943         1.03663 
        2.62325          6.4523         1.02084 
        2.63898         6.36124         1.00533 
        2.65468         6.28397        0.990166 
        2.67044         6.24436        0.975249 
        2.68618         6.17641        0.960671 
        2.70184         6.15288        0.946447 
        2.71755         6.08748        0.932473 
        2.73329         6.01057        0.918758 
        2.74897         5.98561         0.90536 
        2.76462         5.94882        0.892258 
        2.78034         5.84213        0.879358 
        2.79607         5.83281        0.866698 
        2.81179         5.76858        0.854299 
        2.82749         5.74414        0.842155 
        2.84321         5.69301        0.830232 
        2.85893         5.63679        0.818541 
        2.87462         5.59338        0.807093 
        2.89033         5.54064        0.795852 
        2.90605         5.46706        0.784813 
        2.92176         5.45102        0.773988 
        2.93747         5.41848        0.763371 
        2.95318         5.36576        0.752949 
        2.96891         5.32553        0.742715 
        2.98456          5.2534        0.732715 
        3.00023         5.23315        0.722883 
        3.01596         5.18696          0.7132 
        3.03164         5.16069        0.703719 
        3.04738         5.12437        0.694383 
         3.0631         5.06334        0.685217 
        3.07883         5.03766        0.676215 
        3.09456         4.98995        0.667374 
        3.11026         4.94865        0.658704 
        3.12596         4.91739        0.650188 
        3.14163          4.8662        0.641841 
        3.15734         4.83704        0.633619 
        3.17308         4.79235         0.62552 
        3.18879         4.75751        0.617584 
        3.20447         4.72531        0.609796 
         3.2202         4.67485        0.602117 
         3.2359         4.64356        0.594583 
        3.25157         4.61209        0.587194 
        3.26729         4.59457        0.579908 
        3.28304         4.53686         0.57273 
        3.29877         4.50995        0.565682 
        3.31446         4.47085        0.558766 
        3.33014         4.43924        0.551972 
        3.34585         4.42453        0.545279 
        3.36158         4.38687        0.538686 
        3.37727          4.3545        0.532222 
        3.39294         4.32644        0.525869 
        3.40867         4.28644        0.519596 
        3.42439         4.24716        0.513427 
        3.44008          4.2238         0.50737 
        3.45578         4.18979        0.501406 
        3.47153         4.15686        0.495523 
        3.48724         4.12647        0.489744 
        3.50292         4.10888         0.48407 
        3.51859         4.07474        0.478488 
        3.53431         4.04353        0.472976 
        3.55007         4.01032        0.467536 
        3.56577         3.99265        0.462203 
        3.58146         3.96713        0.456954 
        3.59719          3.9316        0.451774 
        3.61292         3.91017        0.446676 
        3.62859         3.88216        0.441675 
        3.64429         3.84814         0.43674 
        3.66003         3.81348        0.431864 
        3.67578         3.80084        0.427064 
        3.69146         3.75774        0.422355 
        3.70712         3.75266        0.417725 
        3.72284         3.70807        0.413146 
        3.73853         3.68763        0.408643 
        3.75422         3.65653        0.404205 
        3.76993         3.64514        0.399829 
        3.78564         3.60805        0.395518 
        3.80137         3.59745        0.391264 
        3.81707          3.5662        0.387081 
        3.83279         3.53675        0.382954 
        3.84853         3.51549        0.378881 
        3.86424         3.48794        0.374874 
        3.87992         3.46445        0.370931 
        3.89561         3.44135        0.367044 
        3.91134         3.41039        0.363204 
        3.92704         3.39886        0.359423 
        3.94273           3.372        0.355699 
        3.95845           3.352        0.352021 
        3.97418         3.32497        0.348393 
        3.98988         3.30349        0.344821 
        4.00554          3.2862        0.341308 
        4.02125         3.26287        0.337834 
        4.03698         3.22787        0.334402 
        4.05268         3.21667        0.331026 
        4.06839         3.20201        0.327693 
         4.0841         3.17393        0.324406 
        4.09983         3.15036         0.32116 
        4.11555         3.12246        0.317959 
        4.13124         3.10782         0.31481 
        4.14693         3.07451        0.311701 
        4.16266         3.05278        0.308626 
        4.17839          3.0347        0.305594 
        4.19408         3.00769        0.302609 
        4.20977         2.99303        0.299663 
        4.22551         2.97336        0.296748 
        4.24123         2.95436        0.293875 
        4.25691         2.93352        0.291047 
        4.27259         2.91994        0.288255 
        4.28831         2.90196        0.285494 
        4.30404         2.87737        0.282766 
        4.31974         2.85544         0.28008 
        4.33543         2.84444        0.277429 
        4.35116          2.8177        0.274807 
        4.36688         2.79241        0.272218 
        4.38255         2.77788        0.269673 
        4.39825         2.76064        0.267154 
        4.41398         2.75093        0.264662 
         4.4297         2.72787        0.262204 
        4.44541         2.71928        0.259778 
        4.46111         2.70056        0.257384 
        4.47683         2.67012        0.255018 
        4.49251         2.66135        0.252686 
        4.50819         2.64127        0.250384 
         4.5239          2.6238        0.248107 
        4.53962         2.61748        0.245856 
        4.55535         2.59626         0.24363 
        4.57106           2.586        0.241436 
        4.58678         2.56994        0.239267 
         4.6025         2.55258        0.237125 
        4.61821         2.53916        0.235009 
        4.63391         2.52245        0.232921 
         4.6496         2.50338        0.230859 
        4.66532         2.48897        0.228819 
        4.68103         2.47335        0.226804 
        4.69673         2.45842        0.224815 
        4.71241         2.44126        0.222852 
        4.72811         2.43263        0.220909 
        4.74384         2.41627        0.218986 
        4.75955         2.40082        0.217089 
        4.77525         2.38781        0.215215 
        4.79096         2.36856        0.213361 
        4.80669         2.36171        0.211527 
         4.8224         2.34177        0.209717 
        4.83809         2.33523         0.20793 
        4.85379         2.32225        0.206162 
         4.8695         2.30503        0.204414 
        4.88521         2.29124        0.202686 
        4.90093          2.2798        0.200977 
        4.91663         2.26468         0.19929 
        4.93234         2.25656         0.19762 
        4.94807         2.24467        0.195968 
        4.96377         2.22913        0.194338 
        4.97943         2.20922         0.19273 
        4.99514         2.20315        0.191135 
        5.01086         2.18687        0.189558 
        5.02654         2.18018        0.188001 
        5.04227         2.16504        0.186458 
          5.058         2.15761        0.184931 
        5.07371         2.14317        0.183424 
        5.08942         2.13273        0.181934 
        5.10513         2.11958        0.180459 
        5.12084         2.10629           0.179 
        5.13656         2.09575        0.177558 
        5.15225          2.0826        0.176133 
        5.16796         2.07378        0.174722 
        5.18369         2.06107        0.173325 
         5.1994         2.05393        0.171946 
        5.21509         2.04422        0.170582 
        5.23079         2.02615        0.169232 
        5.24649         2.02105        0.167897 
        5.26217         2.00847        0.166578 
        5.27788         1.99844         0.16527 
        5.29359         1.98809        0.163977 
        5.30933           1.978        0.162695 
        5.32504         1.96233        0.161429 
        5.34073         1.95518        0.160177 
        5.35646          1.9423        0.158937 
        5.37218         1.93148        0.157709 
        5.38789         1.92198        0.156496 
        5.40357         1.91637        0.155297 
        5.41929          1.9063        0.154107 
        5.43502         1.89686         0.15293 
         5.4507         1.88899        0.151768 
        5.46639         1.87864        0.150618 
        5.48212         1.86909        0.149477 
        5.49786         1.85942        0.148346 
        5.51353         1.85044        0.147232 
        5.52921         1.84181        0.146129 
        5.54495         1.82996        0.145034 
        5.56066         1.82424         0.14395 
        5.57637         1.81324        0.142878 
        5.59207         1.80456        0.141818 
        5.60778         1.79971        0.140768 
        5.62346         1.78773         0.13973 
        5.63916         1.77598        0.138702 
        5.65487         1.76918        0.137683 
         5.6706         1.76106        0.136673 
        5.68633         1.74871        0.135673 
        5.70203         1.74368        0.134685 
        5.71773         1.73456        0.133706 
        5.73344         1.73035        0.132737 
        5.74916         1.71619        0.131777 
        5.76486         1.71234        0.130827 
        5.78054         1.70339        0.129888 
        5.79626         1.69627        0.128955 
          5.812         1.68944        0.128031 
         5.8277         1.67858        0.127118 
        5.84339         1.67264        0.126214 
        5.85911         1.66553        0.125317 
        5.87484         1.65706        0.124429 
        5.89053         1.65033        0.123551 
        5.90623         1.64387        0.122681 
        5.92195         1.63404        0.121818 
        5.93767         1.62482        0.120963 
        5.95336         1.62058        0.120118 
        5.96905         1.61187        0.119282 
        5.98476         1.60522        0.118452 
        6.00048         1.59776         0.11763 
        6.01617         1.58919        0.116816 
        6.03185         1.58065        0.116012 
        6.04756         1.57676        0.115212 
        6.06331         1.56715        0.114419 
        6.07903         1.56439        0.113634 
        6.09473         1.55453        0.112858 
        6.11044         1.54951        0.112088 
        6.12616         1.54122        0.111325 
        6.14186         1.53762         0.11057 
        6.15755         1.53252        0.109823 
        6.17326         1.52605        0.109081 
        6.18898         1.51477        0.108346 
        6.20467         1.51105        0.107619 
        6.22036         1.50212        0.106898 
         6.2361         1.49859        0.106182 
         6.2518         1.48761        0.105474 
        6.26748         1.48638        0.104774 
        6.28319         1.47839        0.104078 
        6.29893         1.47053        0.103388 
        6.31463         1.46539        0.102705 
        6.33033         1.45868        0.102028 
        6.34604         1.45171        0.101357 
        6.36177         1.44853        0.100692 
        6.37747         1.44055        0.100033 
