# k  (h/Mpc)    Pcb(k)  (Mpc/h)^3    Pcb_linear(k) (Mpc/h)^3   ShotnoiseSubtracted = true
      0.0200456         27912.1         28365.9 
      0.0350414         19063.1         18261.9 
      0.0492313           12381         12596.8 
      0.0637834         9794.66         10266.4 
      0.0800726         7329.37          7710.5 
       0.096163         5740.57         5323.71 
       0.111083         4653.71         4270.84 
       0.126058         3834.88         3782.75 
       0.142273         3276.56         3049.33 
       0.158546         2632.54            2340 
        0.17375         2366.68         2010.58 
       0.188953         2249.86          1818.3 
       0.204907         1902.93         1547.53 
       0.220756         1716.16         1283.42 
        0.23588         1527.64         1133.49 
         0.2514         1378.08         1030.99 
       0.267535         1319.35         908.301 
       0.283568         1173.29          788.71 
       0.299022         1107.58         707.876 
       0.314451         1158.17         647.944 
       0.330372         1018.76         584.869 
       0.346141         931.908         524.426 
       0.361624         891.136         477.365 
       0.377134         856.276         439.484 
       0.392932         804.324         403.001 
       0.408854         775.414         368.087 
       0.424564         756.161         338.667 
       0.440253         699.603         313.725 
       0.455999         665.126         290.722 
       0.471626         677.001         269.429 
        0.48727         633.742          250.38 
       0.502856         614.878         233.656 
       0.518488         588.466         218.354 
       0.534347             570         203.965 
       0.550082         541.663         190.965 
       0.565732         530.188         179.276 
       0.581496         517.417           168.5 
       0.597222          506.29         158.553 
       0.612804         491.641         149.463 
       0.628434         470.709         141.097 
       0.644267         456.652         133.281 
       0.660051         451.867         126.069 
       0.675724         439.771         119.427 
       0.691403         425.865         113.256 
       0.707174         413.004         107.483 
       0.722871         412.164         102.133 
        0.73838         397.325          97.201 
       0.754018         387.585         92.5557 
       0.769845         383.447         88.1615 
        0.78569         373.761         84.0469 
       0.801365         360.783         80.2337 
       0.817031          356.86         76.6585 
       0.832809         351.254         73.2772 
       0.848511         345.771         70.1139 
       0.864097          334.59         67.1579 
       0.879701          335.71         64.3686 
       0.895507         322.104          61.704 
       0.911279         316.871          59.195 
        0.92691         313.146         56.8453 
       0.942635         307.568         54.6096 
       0.958396          298.16         52.4887 
       0.974128         292.867         50.4836 
       0.989692         286.556         48.6024 
        1.00528         280.667         46.8138 
        1.02113          278.05         45.0868 
        1.03692          273.22         43.4528 
        1.05264         269.335         41.9069 
        1.06832         262.336         40.4382 
        1.08405         261.078         39.0356 
        1.09979          254.81         37.6984 
        1.11537         248.896         36.4367 
        1.13105         245.644         35.2249 
        1.14679         241.324         34.0633 
        1.16256         239.502         32.9516 
        1.17828         235.765         31.8928 
        1.19395         229.743         30.8839 
         1.2097         227.623         29.9133 
        1.22537         224.592         28.9888 
          1.241         218.296          28.106 
        1.25666         216.673         27.2575 
        1.27241         214.039         26.4399 
        1.28819         208.787         25.6542 
        1.30392          208.49         24.9026 
        1.31957         202.882         24.1842 
        1.33529         198.336         23.4914 
        1.35108         198.616         22.8228 
        1.36674         193.405         22.1849 
         1.3824         190.213         21.5718 
        1.39811          187.67         20.9796 
        1.41389         184.712         20.4073 
        1.42964         181.046         19.8572 
        1.44531         180.041         19.3299 
        1.46101         176.007         18.8205 
        1.47667         173.377         18.3309 
        1.49229         172.082         17.8599 
        1.50793          168.59         17.4047 
        1.52367         165.604         16.9625 
        1.53953         163.599         16.5325 
        1.55526         160.556         16.1208 
        1.57092         159.704         15.7247 
        1.58662         156.769         15.3408 
        1.60235         154.318          14.969 
        1.61809         152.177         14.6092 
        1.63369         149.168         14.2644 
        1.64941          148.05         13.9281 
        1.66519         144.897         13.6014 
        1.68085         142.675         13.2874 
        1.69652         141.565         12.9832 
        1.71228         139.588         12.6867 
        1.72806         137.734         12.3992 
        1.74368         135.349         12.1234 
        1.75933         134.025         11.8554 
        1.77505         132.211         11.5942 
        1.79081         129.877         11.3403 
         1.8065         128.767         11.0951 
        1.82218         125.583         10.8572 
        1.83797         124.544         10.6247 
        1.85367         122.868         10.4002 
        1.86928          121.08         10.1836 
        1.88497          120.79         9.97181 
        1.90073         118.711         9.76526 
        1.91647         116.787         9.56471 
        1.93218         114.679         9.37017 
        1.94787         112.936         9.18129 
        1.96363         112.371         8.99683 
        1.97935         111.169         8.81778 
        1.99499         109.203         8.64458 
        2.01064         107.705         8.47575 
         2.0264         106.638         8.31033 
        2.04216         104.413         8.14937 
        2.05781         103.351         7.99366 
        2.07353         102.137         7.84144 
        2.08928          100.28         7.69282 
        2.10499         99.9281         7.54841 
        2.12065         98.5308         7.40812 
        2.13633         97.1581         7.27125 
        2.15211         95.6587         7.13693 
        2.16785         94.5624         7.00634 
        2.18349         93.3266         6.87982 
        2.19916         92.7277         6.75614 
        2.21489         90.6229         6.63506 
        2.23063         89.4338         6.51684 
         2.2463         88.4685         6.40202 
        2.26194         87.4589         6.29022 
        2.27765         86.4157          6.1805 
        2.29341         85.0694          6.0731 
        2.30914         84.2005         5.96844 
        2.32486         83.4631          5.8663 
        2.34061         82.1693         5.76635 
        2.35635         81.3108         5.66881 
        2.37203         80.0035         5.57384 
        2.38768         78.8585         5.48122 
        2.40339         78.1232         5.39036 
        2.41914         77.1286         5.30133 
        2.43483         76.2564         5.21461 
         2.4505          75.347         5.12996 
        2.46622         74.4023         5.04688 
        2.48195         73.3594         4.96562 
        2.49759         72.3247         4.88657 
        2.51328         71.8428         4.80902 
        2.52906         70.9504         4.73265 
        2.54479         70.0783         4.65821 
        2.56049         68.9933         4.58551 
        2.57618         68.2868          4.5144 
        2.59189         67.3574         4.44469 
        2.60758         66.2145         4.37654 
        2.62325         65.5933         4.30989 
        2.63898         65.0127         4.24439 
        2.65468         64.3036         4.18038 
        2.67044         63.3746          4.1174 
        2.68618         62.4915         4.05585 
        2.70184         61.9378          3.9958 
        2.71755         61.2654          3.9368 
        2.73329         60.4319          3.8789 
        2.74897         59.8815         3.82234 
        2.76462         59.1216         3.76702 
        2.78034         58.4607         3.71256 
        2.79607         57.8502         3.65911 
        2.81179          57.071         3.60676 
        2.82749         56.6535         3.55549 
        2.84321         55.6668         3.50515 
        2.85893         55.2137         3.45579 
        2.87462         54.6526         3.40746 
        2.89033         53.7386            3.36 
        2.90605         53.2797          3.3134 
        2.92176         52.7127          3.2677 
        2.93747         52.1528         3.22287 
        2.95318         51.6007         3.17887 
        2.96891         51.0991         3.13567 
        2.98456         50.3262         3.09345 
        3.00023         49.8727         3.05194 
        3.01596         49.4278         3.01105 
        3.03164         48.7809         2.97103 
        3.04738          48.334         2.93161 
         3.0631         47.6641         2.89291 
        3.07883         47.1702         2.85491 
        3.09456         46.5814         2.81759 
        3.11026         46.4863         2.78098 
        3.12596         45.6575         2.74503 
        3.14163         45.2872         2.70978 
        3.15734         44.5665         2.67507 
        3.17308         44.1968         2.64088 
        3.18879         43.6993         2.60738 
        3.20447         43.3861          2.5745 
         3.2202         42.7046         2.54208 
         3.2359         42.2626         2.51027 
        3.25157         41.9803         2.47907 
        3.26729         41.6097         2.44831 
        3.28304         41.1506         2.41801 
        3.29877         40.6958         2.38825 
        3.31446         40.1384         2.35905 
        3.33014         39.7684         2.33037 
        3.34585         39.2691         2.30211 
        3.36158         39.0958         2.27428 
        3.37727          38.609         2.24698 
        3.39294         38.1448         2.22016 
        3.40867         37.7598         2.19368 
        3.42439         37.3667         2.16764 
        3.44008         37.0752         2.14206 
        3.45578         36.5368         2.11688 
        3.47153         36.2082         2.09205 
        3.48724         35.8109         2.06765 
        3.50292         35.5685         2.04369 
        3.51859         35.2302         2.02013 
        3.53431         34.7196         1.99685 
        3.55007         34.4551         1.97389 
        3.56577         34.1588         1.95137 
        3.58146         33.7292         1.92921 
        3.59719         33.4588         1.90734 
        3.61292         33.0955         1.88582 
        3.62859         32.8383          1.8647 
        3.64429         32.5331         1.84387 
        3.66003         32.0777         1.82329 
        3.67578         31.8558         1.80302 
        3.69146         31.4894         1.78314 
        3.70712         31.2569         1.76359 
        3.72284         31.0338         1.74426 
        3.73853          30.689         1.72525 
        3.75422         30.2798         1.70651 
        3.76993         30.1158         1.68804 
        3.78564         29.7988         1.66984 
        3.80137         29.5096         1.65188 
        3.81707         29.1424         1.63421 
        3.83279         28.8806         1.61679 
        3.84853         28.6594          1.5996 
        3.86424         28.3629         1.58268 
        3.87992         28.0597         1.56603 
        3.89561         27.7851         1.54962 
        3.91134         27.5833         1.53341 
        3.92704         27.3352         1.51745 
        3.94273         27.1526         1.50172 
        3.95845         26.8523         1.48619 
        3.97418         26.5973         1.47088 
        3.98988         26.3325          1.4558 
        4.00554         26.0713         1.44097 
        4.02125         25.8633          1.4263 
        4.03698         25.5971         1.41181 
        4.05268         25.3366         1.39756 
        4.06839         25.1333         1.38348 
         4.0841         24.8661         1.36961 
        4.09983         24.6817          1.3559 
        4.11555         24.4655         1.34239 
        4.13124         24.1977          1.3291 
        4.14693         24.0386         1.31597 
        4.16266         23.8303         1.30299 
        4.17839         23.5628         1.29019 
        4.19408         23.3725         1.27758 
        4.20977         23.1494         1.26514 
        4.22551         22.9273         1.25284 
        4.24123         22.6799         1.24071 
        4.25691         22.5537         1.22877 
        4.27259         22.3082         1.21698 
        4.28831          22.157         1.20533 
        4.30404         21.9049         1.19381 
        4.31974         21.7342         1.18247 
        4.33543         21.5758         1.17128 
        4.35116          21.423          1.1602 
        4.36688         21.1253         1.14928 
        4.38255         21.0099         1.13853 
        4.39825         20.8383          1.1279 
        4.41398         20.7155         1.11738 
         4.4297         20.5007           1.107 
        4.44541         20.3051         1.09676 
        4.46111         20.0563         1.08665 
        4.47683         19.9581         1.07666 
        4.49251         19.7797         1.06682 
        4.50819         19.6378          1.0571 
         4.5239         19.4044         1.04748 
        4.53962         19.2673         1.03798 
        4.55535          19.161         1.02858 
        4.57106         18.9825         1.01932 
        4.58678         18.7648         1.01016 
         4.6025          18.593         1.00112 
        4.61821         18.4854        0.992183 
        4.63391         18.3246        0.983369 
         4.6496         18.1739        0.974664 
        4.66532         18.0108         0.96605 
        4.68103         17.8199        0.957544 
        4.69673         17.7255        0.949147 
        4.71241          17.586        0.940858 
        4.72811         17.4407        0.932653 
        4.74384         17.3244        0.924535 
        4.75955         17.1359        0.916526 
        4.77525         17.0246        0.908614 
        4.79096         16.8465        0.900786 
        4.80669         16.7164        0.893045 
         4.8224         16.5971        0.885403 
        4.83809         16.4474        0.877858 
        4.85379         16.3688        0.870396 
         4.8695         16.1728        0.863013 
        4.88521         16.0734        0.855718 
        4.90093         15.9032        0.848506 
        4.91663         15.8244        0.841383 
        4.93234         15.6684        0.834333 
        4.94807         15.5556        0.827358 
        4.96377         15.3789        0.820476 
        4.97943         15.2786        0.813686 
        4.99514         15.2178        0.806954 
        5.01086         15.0901        0.800293 
        5.02654         14.9323        0.793723 
        5.04227         14.7862        0.787207 
          5.058         14.7132         0.78076 
        5.07371         14.5566        0.774398 
        5.08942         14.4713        0.768105 
        5.10513         14.3437         0.76188 
        5.12084         14.2297        0.755721 
        5.13656         14.1279        0.749631 
        5.15225         14.0175        0.743617 
        5.16796          13.915        0.737659 
        5.18369         13.8109        0.731761 
         5.1994         13.6891        0.725937 
        5.21509         13.5962        0.720181 
        5.23079         13.4922         0.71448 
        5.24649         13.3769        0.708845 
        5.26217         13.2792        0.703274 
        5.27788         13.1679        0.697754 
        5.29359         13.0901        0.692293 
        5.30933         13.0054        0.686881 
        5.32504          12.872        0.681535 
        5.34073         12.7694        0.676252 
        5.35646         12.6793        0.671014 
        5.37218         12.5652         0.66583 
        5.38789         12.4893        0.660708 
        5.40357         12.4198        0.655646 
        5.41929         12.3132        0.650625 
        5.43502         12.2009        0.645655 
         5.4507         12.1246        0.640749 
        5.46639         12.0461        0.635893 
        5.48212         11.9131        0.631075 
        5.49786         11.8431        0.626301 
        5.51353         11.7387          0.6216 
        5.52921         11.6908        0.616941 
        5.54495         11.5867        0.612317 
        5.56066         11.4906        0.607744 
        5.57637         11.4491        0.603218 
        5.59207         11.3325        0.598742 
        5.60778         11.2399        0.594309 
        5.62346         11.1719        0.589927 
        5.63916         11.1029        0.585585 
        5.65487         11.0242        0.581283 
         5.6706         10.9121        0.577019 
        5.68633         10.8374        0.572797 
        5.70203         10.7898        0.568624 
        5.71773         10.7078        0.564494 
        5.73344         10.6083        0.560402 
        5.74916         10.5374        0.556347 
        5.76486         10.4603        0.552337 
        5.78054         10.3843        0.548372 
        5.79626         10.3151        0.544434 
          5.812         10.2207        0.540532 
         5.8277         10.1779        0.536678 
        5.84339         10.1002        0.532861 
        5.85911         10.0309        0.529075 
        5.87484         9.94341        0.525325 
        5.89053         9.86039        0.521618 
        5.90623         9.79536        0.517946 
        5.92195         9.72928        0.514302 
        5.93767         9.67316        0.510695 
        5.95336         9.60101        0.507128 
        5.96905         9.52606        0.503596 
        5.98476         9.46316        0.500092 
        6.00048         9.40122        0.496621 
        6.01617         9.33393        0.493186 
        6.03185         9.26102        0.489788 
        6.04756         9.20841        0.486414 
        6.06331         9.13896        0.483064 
        6.07903         9.06611        0.479752 
        6.09473         9.01841        0.476474 
        6.11044         8.94968        0.473224 
        6.12616          8.8987        0.470004 
        6.14186         8.84142        0.466817 
        6.15755         8.76895         0.46366 
        6.17326         8.70553        0.460529 
        6.18898         8.64308        0.457425 
        6.20467         8.60327        0.454355 
        6.22036         8.53067        0.451313 
         6.2361         8.48248         0.44829 
         6.2518         8.42063          0.4453 
        6.26748         8.36349        0.442344 
        6.28319         8.29984        0.439406 
        6.29893         8.25172        0.436492 
        6.31463         8.18991        0.433609 
        6.33033         8.13471        0.430753 
        6.34604         8.08252         0.42792 
        6.36177         8.01406         0.42511 
        6.37747         7.97912         0.42233 
