# k  (h/Mpc)    Pcb(k)  (Mpc/h)^3    Pcb_linear(k) (Mpc/h)^3   ShotnoiseSubtracted = true
      0.0200456         11059.8         11198.3 
      0.0350414         7450.24         7209.45 
      0.0492313         4956.45         4972.98 
      0.0637834         3934.12         4052.99 
      0.0800726         2949.76         3043.96 
       0.096163         2212.08          2101.7 
       0.111083         1792.04         1686.05 
       0.126058         1495.49         1493.36 
       0.142273         1237.45         1203.82 
       0.158546         991.173         923.788 
        0.17375         868.466          793.74 
       0.188953         799.425         717.829 
       0.204907         664.425         610.935 
       0.220756         586.998          506.67 
        0.23588         521.548         447.482 
         0.2514         464.158         407.016 
       0.267535         442.391          358.58 
       0.283568         381.677         311.368 
       0.299022         361.509         279.456 
       0.314451         358.415         255.796 
       0.330372         305.786         230.895 
       0.346141         281.366         207.034 
       0.361624         265.836         188.455 
       0.377134         245.486           173.5 
       0.392932         236.559         159.097 
       0.408854         223.978         145.314 
       0.424564         214.092         133.699 
       0.440253         192.724         123.853 
       0.455999         181.365         114.771 
       0.471626         179.051         106.365 
        0.48727         169.866         98.8453 
       0.502856         154.573          92.243 
       0.518488         153.948         86.2019 
       0.534347         142.772         80.5214 
       0.550082         138.811         75.3895 
       0.565732         136.824         70.7748 
       0.581496           126.1         66.5204 
       0.597222         122.992         62.5936 
       0.612804         118.063         59.0051 
       0.628434         114.924         55.7024 
       0.644267         108.557         52.6166 
       0.660051         105.859         49.7695 
       0.675724         103.745         47.1476 
       0.691403         101.077         44.7112 
       0.707174         97.0376         42.4322 
       0.722871         95.1861           40.32 
        0.73838          93.302         38.3731 
       0.754018         87.4095         36.5392 
       0.769845         86.9898         34.8045 
        0.78569         84.3066         33.1801 
       0.801365         81.1656         31.6748 
       0.817031         78.7853         30.2633 
       0.832809         77.1505         28.9285 
       0.848511         75.2642         27.6796 
       0.864097         73.6929         26.5127 
       0.879701         72.3088         25.4115 
       0.895507         69.6908         24.3596 
       0.911279         67.9789          23.369 
        0.92691         66.4674         22.4414 
       0.942635         64.6282         21.5588 
       0.958396         64.5475         20.7215 
       0.974128         62.9388           19.93 
       0.989692         61.1322         19.1873 
        1.00528         60.0101         18.4812 
        1.02113         58.5207         17.7994 
        1.03692         58.3104         17.1543 
        1.05264         57.2678          16.544 
        1.06832         55.3674         15.9642 
        1.08405         54.5409         15.4105 
        1.09979         53.9797         14.8826 
        1.11537         52.5092         14.3845 
        1.13105         51.4383         13.9061 
        1.14679         50.7977         13.4476 
        1.16256         49.7784         13.0087 
        1.17828         49.3224         12.5907 
        1.19395         48.0488         12.1924 
         1.2097         47.7838         11.8092 
        1.22537         46.5565         11.4442 
          1.241          46.512         11.0957 
        1.25666         44.7148         10.7607 
        1.27241         44.5809          10.438 
        1.28819         44.0248         10.1278 
        1.30392         42.9954         9.83107 
        1.31957          42.786         9.54747 
        1.33529         42.0538         9.27396 
        1.35108         41.5942         9.01002 
        1.36674         40.6688         8.75817 
         1.3824         40.1055         8.51612 
        1.39811         39.3492         8.28236 
        1.41389          38.838         8.05642 
        1.42964         38.4251         7.83924 
        1.44531           37.82         7.63107 
        1.46101         37.4429         7.42998 
        1.47667         36.8825         7.23668 
        1.49229         36.1711         7.05073 
        1.50793         35.8457         6.87106 
        1.52367         35.5699         6.69646 
        1.53953         35.0521         6.52672 
        1.55526         34.2539         6.36417 
        1.57092         34.1609         6.20779 
        1.58662         33.6791         6.05627 
        1.60235         33.2068         5.90947 
        1.61809         32.6787         5.76743 
        1.63369         32.1782         5.63129 
        1.64941         31.8208         5.49855 
        1.66519         31.3486         5.36957 
        1.68085         30.9398         5.24562 
        1.69652         30.5337         5.12552 
        1.71228          30.272         5.00847 
        1.72806         29.9582         4.89496 
        1.74368         29.4068         4.78609 
        1.75933         29.3041         4.68028 
        1.77505         28.7953         4.57715 
        1.79081          28.554         4.47693 
         1.8065         28.2534         4.38012 
        1.82218         27.6037         4.28623 
        1.83797         27.3525         4.19444 
        1.85367         27.1007         4.10582 
        1.86928         26.9416         4.02027 
        1.88497         26.4589         3.93668 
        1.90073         26.2593         3.85514 
        1.91647         26.0685         3.77597 
        1.93218         25.7823         3.69917 
        1.94787         25.4373          3.6246 
        1.96363         25.0616         3.55178 
        1.97935          24.813         3.48109 
        1.99499         24.6073         3.41272 
        2.01064         24.1477         3.34606 
         2.0264         24.0891         3.28076 
        2.04216         23.8612         3.21722 
        2.05781         23.5481         3.15575 
        2.07353         23.1852         3.09565 
        2.08928         23.1319         3.03698 
        2.10499         22.7797         2.97997 
        2.12065         22.4867         2.92459 
        2.13633         22.3677         2.87055 
        2.15211         22.0038         2.81752 
        2.16785         21.7601         2.76597 
        2.18349         21.5846         2.71602 
        2.19916         21.3577         2.66719 
        2.21489         21.1796         2.61939 
        2.23063         20.9314         2.57273 
         2.2463         20.7828         2.52739 
        2.26194         20.4989         2.48326 
        2.27765         20.2748         2.43995 
        2.29341          20.023         2.39754 
        2.30914         19.8225         2.35623 
        2.32486         19.6846          2.3159 
        2.34061         19.4413         2.27645 
        2.35635         19.2104         2.23794 
        2.37203          19.116         2.20044 
        2.38768         18.8859         2.16388 
        2.40339         18.6733         2.12801 
        2.41914         18.5803         2.09286 
        2.43483         18.4085         2.05863 
         2.4505         18.1539         2.02521 
        2.46622         17.9319         1.99241 
        2.48195         17.7978         1.96033 
        2.49759         17.5679         1.92912 
        2.51328         17.3813         1.89851 
        2.52906         17.2246         1.86836 
        2.54479         17.1345         1.83897 
        2.56049         16.9463         1.81027 
        2.57618           16.79          1.7822 
        2.59189         16.6006         1.75468 
        2.60758         16.4347         1.72777 
        2.62325         16.2254         1.70146 
        2.63898         16.2072         1.67561 
        2.65468         16.0161         1.65033 
        2.67044         15.8333         1.62547 
        2.68618         15.6171         1.60117 
        2.70184         15.5038         1.57747 
        2.71755         15.3146         1.55418 
        2.73329         15.1759         1.53132 
        2.74897         15.0937         1.50899 
        2.76462         14.9455         1.48715 
        2.78034         14.7357         1.46565 
        2.79607         14.6486         1.44455 
        2.81179         14.5015         1.42388 
        2.82749         14.3166         1.40364 
        2.84321         14.2324         1.38377 
        2.85893         14.0989         1.36428 
        2.87462         13.9516          1.3452 
        2.89033         13.8171         1.32647 
        2.90605         13.6854         1.30807 
        2.92176         13.5279         1.29002 
        2.93747         13.4649         1.27233 
        2.95318         13.3592         1.25496 
        2.96891         13.1533          1.2379 
        2.98456         13.0868         1.22123 
        3.00023         12.9544         1.20485 
        3.01596         12.7769         1.18871 
        3.03164         12.7292         1.17291 
        3.04738         12.6379         1.15734 
         3.0631         12.4936         1.14207 
        3.07883         12.3834         1.12706 
        3.09456         12.2539         1.11233 
        3.11026         12.1718         1.09788 
        3.12596         12.0075         1.08368 
        3.14163         11.9284         1.06977 
        3.15734         11.8556         1.05607 
        3.17308         11.6985         1.04257 
        3.18879          11.584         1.02934 
        3.20447         11.5299         1.01636 
         3.2202         11.3901         1.00356 
         3.2359         11.2987        0.991006 
        3.25157         11.1993        0.978691 
        3.26729          11.127        0.966547 
        3.28304         11.0359        0.954583 
        3.29877         10.9517        0.942835 
        3.31446         10.8483        0.931309 
        3.33014         10.7231        0.919985 
        3.34585         10.6803        0.908829 
        3.36158         10.5768        0.897841 
        3.37727         10.4802        0.887067 
        3.39294         10.3932        0.876478 
        3.40867         10.2782        0.866022 
        3.42439         10.1927        0.855742 
        3.44008         10.1091        0.845646 
        3.45578         10.0296        0.835705 
        3.47153         9.94539          0.8259 
        3.48724          9.8622        0.816268 
        3.50292         9.78915        0.806811 
        3.51859         9.68306        0.797507 
        3.53431         9.62764         0.78832 
        3.55007         9.53997        0.779254 
        3.56577         9.43534        0.770365 
        3.58146         9.35896        0.761617 
        3.59719         9.29748        0.752983 
        3.61292         9.22974        0.744485 
        3.62859         9.10904         0.73615 
        3.64429         9.07798        0.727924 
        3.66003         8.96735        0.719798 
        3.67578         8.93058        0.711799 
        3.69146         8.85137        0.703949 
        3.70712         8.72748        0.696232 
        3.72284         8.68758          0.6886 
        3.73853         8.61667        0.681095 
        3.75422         8.53384        0.673699 
        3.76993         8.45136        0.666404 
        3.78564         8.40123         0.65922 
        3.80137         8.32954        0.652129 
        3.81707         8.24423        0.645156 
        3.83279         8.19773        0.638279 
        3.84853          8.1301         0.63149 
        3.86424         8.04949        0.624812 
        3.87992         7.98066         0.61824 
        3.89561         7.91553        0.611761 
        3.91134          7.8532        0.605361 
        3.92704          7.7924        0.599059 
        3.94273         7.75193        0.592852 
        3.95845         7.66478        0.586721 
        3.97418         7.61015        0.580675 
        3.98988         7.54664        0.574722 
        4.00554         7.48588        0.568867 
        4.02125         7.43286        0.563076 
        4.03698         7.35206        0.557357 
        4.05268         7.32948        0.551729 
        4.06839         7.24436        0.546173 
         4.0841         7.19683        0.540696 
        4.09983         7.11744        0.535285 
        4.11555         7.08721         0.52995 
        4.13124         6.99959        0.524702 
        4.14693          6.9607        0.519519 
        4.16266            6.89        0.514394 
        4.17839         6.84522        0.509341 
        4.19408         6.79189        0.504366 
        4.20977         6.71577        0.499455 
        4.22551          6.6892        0.494597 
        4.24123         6.62609        0.489808 
        4.25691          6.5632        0.485095 
        4.27259         6.51745        0.480442 
        4.28831         6.46279         0.47584 
        4.30404         6.41912        0.471294 
        4.31974         6.36811        0.466816 
        4.33543         6.30809        0.462398 
        4.35116         6.26273        0.458027 
        4.36688         6.22197        0.453713 
        4.38255         6.16359         0.44947 
        4.39825         6.10955        0.445272 
        4.41398         6.06821        0.441119 
         4.4297         6.02181        0.437022 
        4.44541         5.97548        0.432978 
        4.46111         5.92168        0.428988 
        4.47683         5.87483        0.425045 
        4.49251         5.84722        0.421159 
        4.50819         5.77589        0.417322 
         4.5239         5.73959        0.413526 
        4.53962         5.70433        0.409773 
        4.55535         5.66179        0.406065 
        4.57106         5.63409        0.402407 
        4.58678         5.57364        0.398793 
         4.6025          5.5305        0.395222 
        4.61821         5.48076        0.391695 
        4.63391         5.44746        0.388215 
         4.6496         5.41677        0.384779 
        4.66532         5.38229        0.381378 
        4.68103         5.33218         0.37802 
        4.69673         5.29333        0.374705 
        4.71241          5.2482        0.371433 
        4.72811          5.2084        0.368194 
        4.74384         5.17302        0.364989 
        4.75955         5.14664        0.361827 
        4.77525         5.10275        0.358704 
        4.79096         5.06559        0.355613 
        4.80669         5.03265        0.352557 
         4.8224         4.99641         0.34954 
        4.83809         4.96604        0.346562 
        4.85379         4.92773        0.343616 
         4.8695         4.89178        0.340701 
        4.88521          4.8535        0.337821 
        4.90093         4.81606        0.334974 
        4.91663         4.77946        0.332162 
        4.93234         4.74448        0.329379 
        4.94807         4.72033        0.326625 
        4.96377         4.67668        0.323908 
        4.97943         4.64901        0.321228 
        4.99514         4.61057         0.31857 
        5.01086          4.5707         0.31594 
        5.02654         4.53986        0.313347 
        5.04227         4.51324        0.310774 
          5.058         4.47593        0.308229 
        5.07371         4.45201        0.305717 
        5.08942         4.41732        0.303233 
        5.10513         4.38367        0.300776 
        5.12084         4.34882        0.298344 
        5.13656         4.32237         0.29594 
        5.15225         4.29455        0.293566 
        5.16796         4.26531        0.291214 
        5.18369         4.22417        0.288885 
         5.1994         4.21252        0.286586 
        5.21509         4.17982        0.284314 
        5.23079         4.14242        0.282063 
        5.24649         4.10986        0.279839 
        5.26217         4.09374        0.277639 
        5.27788         4.06116         0.27546 
        5.29359         4.03075        0.273304 
        5.30933         3.99971        0.271167 
        5.32504         3.97949        0.269057 
        5.34073         3.94962        0.266972 
        5.35646         3.92365        0.264904 
        5.37218         3.90525        0.262857 
        5.38789         3.87947        0.260835 
        5.40357         3.84961        0.258836 
        5.41929         3.82082        0.256854 
        5.43502          3.7944        0.254892 
         5.4507         3.76521        0.252956 
        5.46639         3.73925        0.251038 
        5.48212         3.72164        0.249136 
        5.49786         3.69716        0.247252 
        5.51353           3.675        0.245396 
        5.52921         3.64412        0.243557 
        5.54495         3.62927        0.241731 
        5.56066         3.60703        0.239926 
        5.57637         3.58574        0.238139 
        5.59207         3.54957        0.236372 
        5.60778         3.53133        0.234622 
        5.62346         3.51237        0.232892 
        5.63916         3.49026        0.231178 
        5.65487         3.46334        0.229479 
         5.6706         3.43718        0.227796 
        5.68633         3.41644        0.226129 
        5.70203         3.40348        0.224482 
        5.71773         3.37513        0.222852 
        5.73344         3.35411        0.221236 
        5.74916         3.33654        0.219635 
        5.76486         3.31243        0.218052 
        5.78054         3.29019        0.216487 
        5.79626         3.27364        0.214932 
          5.812         3.25219        0.213392 
         5.8277         3.22755         0.21187 
        5.84339          3.2129        0.210364 
        5.85911         3.18944        0.208869 
        5.87484         3.17041        0.207388 
        5.89053         3.15005        0.205925 
        5.90623         3.13266        0.204475 
        5.92195         3.12001        0.203037 
        5.93767         3.09539        0.201613 
        5.95336         3.08171        0.200204 
        5.96905         3.05884         0.19881 
        5.98476         3.03893        0.197427 
        6.00048         3.02143        0.196056 
        6.01617         2.99808        0.194701 
        6.03185          2.9822        0.193359 
        6.04756         2.96358        0.192027 
        6.06331         2.94428        0.190705 
        6.07903         2.93251        0.189397 
        6.09473          2.9123        0.188103 
        6.11044         2.89073         0.18682 
        6.12616          2.8797        0.185549 
        6.14186         2.86303         0.18429 
        6.15755         2.84332        0.183044 
        6.17326         2.82993        0.181808 
        6.18898          2.8061        0.180583 
        6.20467         2.79258        0.179371 
        6.22036         2.78106         0.17817 
         6.2361         2.75822        0.176977 
         6.2518         2.74636        0.175796 
        6.26748         2.72799        0.174629 
        6.28319         2.70875        0.173469 
        6.29893         2.69834        0.172319 
        6.31463         2.68375        0.171181 
        6.33033         2.66736        0.170053 
        6.34604         2.64917        0.168935 
        6.36177         2.63506        0.167825 
        6.37747         2.62204        0.166728 
