# k  (h/Mpc)    Pcb(k)  (Mpc/h)^3    Pcb_linear(k) (Mpc/h)^3   ShotnoiseSubtracted = true
      0.0200456         24748.1         25132.6 
      0.0350414         16866.6         16180.3 
      0.0492313         10998.1           11161 
      0.0637834         8701.63         9096.22 
      0.0800726         6513.52         6831.63 
       0.096163         5067.71          4716.9 
       0.111083         4110.11         3784.04 
       0.126058         3389.64         3351.57 
       0.142273         2882.06         2701.76 
       0.158546         2316.74         2073.28 
        0.17375         2071.71         1781.41 
       0.188953         1959.33         1611.04 
       0.204907         1653.86         1371.14 
       0.220756         1485.74         1137.13 
        0.23588         1322.92         1004.29 
         0.2514          1188.2         913.477 
       0.267535         1140.25          804.77 
       0.283568         1007.68          698.81 
       0.299022         953.728          627.19 
       0.314451         993.175         574.089 
       0.330372         864.218         518.203 
       0.346141         790.858          464.65 
       0.361624         756.072         422.953 
       0.377134         723.313          389.39 
       0.392932         683.029         357.066 
       0.408854         655.933         326.131 
       0.424564         638.423         300.064 
       0.440253         586.905         277.966 
       0.455999         558.591         257.584 
       0.471626         568.744         238.719 
        0.48727         532.327         221.841 
       0.502856         510.431         207.023 
       0.518488          492.58         193.465 
       0.534347         473.106         180.716 
       0.550082         449.255         169.199 
       0.565732         441.731         158.842 
       0.581496         429.882         149.293 
       0.597222         419.359          140.48 
       0.612804         407.462         132.427 
       0.628434         390.423         125.014 
       0.644267         377.589         118.089 
       0.660051          373.47         111.699 
       0.675724         362.818         105.815 
       0.691403         353.984         100.346 
       0.707174         341.498         95.2316 
       0.722871         338.243         90.4912 
        0.73838          328.85         86.1217 
       0.754018         318.909         82.0058 
       0.769845         316.746         78.1126 
        0.78569         307.808         74.4669 
       0.801365         296.964         71.0884 
       0.817031         295.246         67.9207 
       0.832809         289.133         64.9248 
       0.848511         284.508         62.1221 
       0.864097         274.667          59.503 
       0.879701         274.614         57.0317 
       0.895507         264.495         54.6708 
       0.911279         259.362         52.4477 
        0.92691         256.812         50.3659 
       0.942635         252.576          48.385 
       0.958396         244.981         46.5058 
       0.974128         241.821         44.7293 
       0.989692         234.262         43.0625 
        1.00528          231.74         41.4778 
        1.02113         229.514         39.9476 
        1.03692         224.971         38.4999 
        1.05264         220.742         37.1302 
        1.06832         216.481         35.8289 
        1.08405         214.044         34.5862 
        1.09979          209.47         33.4014 
        1.11537         205.891         32.2835 
        1.13105          202.14         31.2099 
        1.14679         199.725         30.1807 
        1.16256         197.343         29.1956 
        1.17828         194.156         28.2576 
        1.19395          188.99         27.3636 
         1.2097         188.369         26.5036 
        1.22537          185.74         25.6845 
          1.241         179.577         24.9023 
        1.25666         179.095         24.1506 
        1.27241         176.156         23.4262 
        1.28819         173.037         22.7301 
        1.30392         171.981         22.0641 
        1.31957         167.327         21.4276 
        1.33529         163.907         20.8138 
        1.35108         163.708         20.2214 
        1.36674         158.623         19.6562 
         1.3824         157.344         19.1129 
        1.39811          156.15         18.5883 
        1.41389         152.544         18.0812 
        1.42964         149.578         17.5938 
        1.44531         148.942         17.1266 
        1.46101         146.035         16.6753 
        1.47667         144.381         16.2415 
        1.49229         142.785         15.8241 
        1.50793         140.088         15.4209 
        1.52367         137.554          15.029 
        1.53953          135.65         14.6481 
        1.55526         133.844         14.2833 
        1.57092         132.939         13.9323 
        1.58662          130.33         13.5922 
        1.60235         128.841         13.2628 
        1.61809         126.461          12.944 
        1.63369         124.266         12.6384 
        1.64941         123.377         12.3405 
        1.66519          120.85         12.0511 
        1.68085         119.182         11.7729 
        1.69652         118.245         11.5033 
        1.71228         116.021         11.2406 
        1.72806         114.865         10.9859 
        1.74368          113.33         10.7415 
        1.75933         112.124         10.5041 
        1.77505         110.513         10.2726 
        1.79081         108.768         10.0477 
         1.8065         107.063         9.83041 
        1.82218         105.153          9.6197 
        1.83797          104.26         9.41368 
        1.85367         103.031         9.21479 
        1.86928         101.807         9.02279 
        1.88497         100.803         8.83519 
        1.90073         99.5778         8.65218 
        1.91647         97.8034         8.47449 
        1.93218         96.4457         8.30213 
        1.94787         94.9083         8.13478 
        1.96363         94.2765         7.97134 
        1.97935         93.1107          7.8127 
        1.99499          91.792         7.65924 
        2.01064         90.3919         7.50965 
         2.0264         89.1494         7.36309 
        2.04216         87.8576         7.22048 
        2.05781         86.7375         7.08252 
        2.07353         86.0884         6.94764 
        2.08928         84.6487         6.81596 
        2.10499         84.2661         6.68802 
        2.12065         82.5739         6.56372 
        2.13633         81.8969         6.44245 
        2.15211          80.423         6.32343 
        2.16785         79.5981         6.20774 
        2.18349         78.2848         6.09564 
        2.19916         78.1723         5.98605 
        2.21489         76.7393         5.87877 
        2.23063         75.3548         5.77403 
         2.2463         74.7846         5.67229 
        2.26194         73.8996         5.57324 
        2.27765         73.0132         5.47603 
        2.29341         71.9275         5.38086 
        2.30914         70.8762         5.28814 
        2.32486         70.0878         5.19763 
        2.34061         68.9557         5.10908 
        2.35635         68.5741         5.02265 
        2.37203         67.4118         4.93851 
        2.38768         66.6634         4.85645 
        2.40339         65.6968         4.77595 
        2.41914         65.0988         4.69706 
        2.43483         64.3554         4.62023 
         2.4505         63.3518         4.54522 
        2.46622         62.6227         4.47162 
        2.48195         62.2645         4.39962 
        2.49759         61.0535         4.32958 
        2.51328         60.4365         4.26087 
        2.52906         59.6204         4.19321 
        2.54479         58.9129         4.12725 
        2.56049         58.0812         4.06283 
        2.57618         57.4281         3.99983 
        2.59189         56.6302         3.93807 
        2.60758         55.8452         3.87769 
        2.62325         55.2956         3.81864 
        2.63898         55.0531          3.7606 
        2.65468         54.2779         3.70388 
        2.67044         53.6342         3.64808 
        2.68618         52.9983         3.59355 
        2.70184         52.4325         3.54034 
        2.71755          51.745         3.48807 
        2.73329         51.0526         3.43677 
        2.74897         50.6913         3.38665 
        2.76462         49.9671         3.33764 
        2.78034          49.236         3.28939 
        2.79607         48.8826         3.24203 
        2.81179           48.37         3.19565 
        2.82749         48.0231         3.15022 
        2.84321         47.2377         3.10562 
        2.85893         46.6995         3.06189 
        2.87462         46.3896         3.01907 
        2.89033         45.6021         2.97702 
        2.90605         45.1993         2.93573 
        2.92176         44.6808         2.89523 
        2.93747         44.3615         2.85552 
        2.95318         43.8166         2.81653 
        2.96891         43.2043         2.77825 
        2.98456         42.7004         2.74084 
        3.00023         42.4096         2.70407 
        3.01596         41.7866         2.66784 
        3.03164         41.2611         2.63238 
        3.04738         40.9834         2.59746 
         3.0631         40.3738         2.56317 
        3.07883         39.8737          2.5295 
        3.09456         39.4199         2.49643 
        3.11026         39.1474         2.46399 
        3.12596         38.5797         2.43214 
        3.14163         38.2358         2.40091 
        3.15734          37.737         2.37016 
        3.17308          37.362         2.33986 
        3.18879         37.0662         2.31018 
        3.20447         36.7091         2.28105 
         3.2202         36.2503         2.25232 
         3.2359         35.8921         2.22414 
        3.25157         35.5801          2.1965 
        3.26729         35.1234         2.16924 
        3.28304         34.7614         2.14239 
        3.29877         34.3783         2.11603 
        3.31446         33.9568         2.09016 
        3.33014         33.7004         2.06474 
        3.34585         33.2832         2.03971 
        3.36158         32.9736         2.01505 
        3.37727         32.5094         1.99087 
        3.39294         32.3349          1.9671 
        3.40867         32.0044         1.94363 
        3.42439         31.7327         1.92056 
        3.44008         31.3665          1.8979 
        3.45578         30.9726         1.87559 
        3.47153         30.6421         1.85359 
        3.48724         30.3652         1.83197 
        3.50292         30.0166         1.81075 
        3.51859         29.7554         1.78987 
        3.53431         29.4335         1.76925 
        3.55007         29.2189          1.7489 
        3.56577         28.9304         1.72895 
        3.58146         28.6194         1.70931 
        3.59719         28.3861         1.68994 
        3.61292         28.0217         1.67087 
        3.62859         27.7483         1.65216 
        3.64429         27.4709          1.6337 
        3.66003          27.259         1.61546 
        3.67578         27.0306         1.59751 
        3.69146         26.6591         1.57989 
        3.70712         26.4349         1.56257 
        3.72284         26.1945         1.54544 
        3.73853         25.9465          1.5286 
        3.75422         25.5646           1.512 
        3.76993          25.503         1.49563 
        3.78564         25.2028          1.4795 
        3.80137         25.0451         1.46359 
        3.81707         24.6782         1.44794 
        3.83279          24.566         1.43251 
        3.84853         24.2836         1.41727 
        3.86424         24.0099         1.40228 
        3.87992         23.7861         1.38753 
        3.89561         23.5588         1.37299 
        3.91134         23.3662         1.35863 
        3.92704         23.1154         1.34448 
        3.94273         22.8844         1.33055 
        3.95845         22.6823         1.31679 
        3.97418         22.5069         1.30322 
        3.98988         22.2173         1.28986 
        4.00554         22.0502         1.27672 
        4.02125         21.8271         1.26373 
        4.03698          21.618         1.25089 
        4.05268         21.4954         1.23826 
        4.06839         21.2478         1.22579 
         4.0841         21.0658          1.2135 
        4.09983          20.834         1.20135 
        4.11555         20.6351         1.18938 
        4.13124         20.4655          1.1776 
        4.14693         20.2294         1.16597 
        4.16266         20.1127         1.15447 
        4.17839         19.9157         1.14313 
        4.19408          19.771         1.13196 
        4.20977         19.5638         1.12094 
        4.22551         19.3813         1.11004 
        4.24123         19.2135         1.09929 
        4.25691         19.0543         1.08871 
        4.27259         18.8937         1.07827 
        4.28831         18.6854         1.06794 
        4.30404         18.5169         1.05774 
        4.31974         18.3821         1.04769 
        4.33543         18.1918         1.03777 
        4.35116         18.0467         1.02796 
        4.36688         17.9072         1.01828 
        4.38255         17.7358         1.00876 
        4.39825         17.5539        0.999335 
        4.41398         17.4236        0.990013 
         4.4297         17.3039         0.98082 
        4.44541          17.132        0.971744 
        4.46111         16.9795        0.962788 
        4.47683         16.8559        0.953938 
        4.49251         16.6917        0.945216 
        4.50819          16.554        0.936605 
         4.5239         16.4048        0.928087 
        4.53962         16.2626        0.919664 
        4.55535         16.1151        0.911341 
        4.57106         16.0033        0.903131 
        4.58678          15.825         0.89502 
         4.6025         15.7453        0.887006 
        4.61821         15.5748         0.87909 
        4.63391         15.4462        0.871281 
         4.6496         15.3206        0.863568 
        4.66532         15.2146        0.855936 
        4.68103         15.1119          0.8484 
        4.69673         14.9177        0.840959 
        4.71241         14.8455        0.833615 
        4.72811          14.661        0.826346 
        4.74384         14.5489        0.819154 
        4.75955         14.4267        0.812057 
        4.77525         14.3275        0.805047 
        4.79096         14.2024        0.798111 
        4.80669         14.0982        0.791253 
         4.8224         13.9954        0.784482 
        4.83809         13.8524        0.777797 
        4.85379         13.7481        0.771185 
         4.8695         13.6797        0.764643 
        4.88521         13.5009         0.75818 
        4.90093         13.4247         0.75179 
        4.91663         13.3264        0.745479 
        4.93234         13.1913        0.739232 
        4.94807         13.1267        0.733053 
        4.96377         12.9605        0.726955 
        4.97943          12.903        0.720939 
        4.99514         12.8082        0.714974 
        5.01086         12.6784        0.709072 
        5.02654         12.5862        0.703251 
        5.04227         12.4896        0.697478 
          5.058         12.3769        0.691766 
        5.07371         12.2787        0.686129 
        5.08942          12.225        0.680553 
        5.10513           12.12        0.675038 
        5.12084         12.0131        0.669581 
        5.13656         11.9064        0.664185 
        5.15225         11.8507        0.658857 
        5.16796         11.7281        0.653578 
        5.18369         11.6622        0.648352 
         5.1994         11.5215        0.643192 
        5.21509         11.4721        0.638092 
        5.23079         11.3836        0.633041 
        5.24649          11.283        0.628048 
        5.26217         11.1997        0.623112 
        5.27788         11.1069        0.618222 
        5.29359         11.0272        0.613383 
        5.30933         10.9485        0.608588 
        5.32504         10.8693        0.603852 
        5.34073         10.7849        0.599171 
        5.35646         10.7101        0.594529 
        5.37218         10.6117        0.589936 
        5.38789         10.5508        0.585398 
        5.40357         10.4911        0.580913 
        5.41929         10.3805        0.576464 
        5.43502          10.294        0.572061 
         5.4507         10.2295        0.567714 
        5.46639         10.1636        0.563412 
        5.48212         10.0754        0.559143 
        5.49786          9.9579        0.554913 
        5.51353         9.94822        0.550747 
        5.52921         9.86086         0.54662 
        5.54495         9.78438        0.542522 
        5.56066         9.70825        0.538471 
        5.57637         9.62949        0.534461 
        5.59207         9.55312        0.530495 
        5.60778         9.47738        0.526568 
        5.62346         9.42179        0.522685 
        5.63916         9.36419        0.518837 
        5.65487         9.28953        0.515026 
         5.6706         9.21463        0.511249 
        5.68633         9.17398        0.507507 
        5.70203         9.10532        0.503811 
        5.71773          9.0221        0.500151 
        5.73344          8.9731        0.496526 
        5.74916         8.88394        0.492932 
        5.76486         8.83162        0.489379 
        5.78054         8.76483        0.485866 
        5.79626         8.71105        0.482378 
          5.812         8.65832         0.47892 
         5.8277         8.61013        0.475505 
        5.84339         8.52847        0.472124 
        5.85911         8.45613        0.468769 
        5.87484          8.3975        0.465446 
        5.89053         8.34622        0.462162 
        5.90623         8.29095        0.458908 
        5.92195         8.23301         0.45568 
        5.93767         8.16029        0.452484 
        5.95336         8.10377        0.449323 
        5.96905         8.04708        0.446194 
        5.98476         7.99421         0.44309 
        6.00048         7.93891        0.440014 
        6.01617         7.88517        0.436971 
        6.03185         7.82079        0.433961 
        6.04756         7.79058        0.430971 
        6.06331         7.74769        0.428003 
        6.07903          7.6782        0.425068 
        6.09473         7.62754        0.422164 
        6.11044         7.56889        0.419284 
        6.12616         7.52628        0.416431 
        6.14186         7.45237        0.413608 
        6.15755         7.42326         0.41081 
        6.17326         7.37089        0.408036 
        6.18898          7.3347        0.405286 
        6.20467         7.25894        0.402566 
        6.22036         7.21307        0.399871 
         6.2361          7.1635        0.397193 
         6.2518           7.137        0.394543 
        6.26748         7.06725        0.391924 
        6.28319         7.01848        0.389321 
        6.29893         6.98511        0.386739 
        6.31463         6.93025        0.384185 
        6.33033          6.8852        0.381654 
        6.34604         6.84556        0.379144 
        6.36177         6.80413        0.376654 
        6.37747          6.7596        0.374191 
