# k  (h/Mpc)    Pcb(k)  (Mpc/h)^3    Pcb_linear(k) (Mpc/h)^3   ShotnoiseSubtracted = true
      0.0200456         1367.52         1386.26 
      0.0350414          1019.5         1005.12 
      0.0492313         763.814         762.547 
      0.0637834         638.751         648.253 
      0.0800726         486.254         491.414 
       0.096163         366.256         359.619 
       0.111083         313.228         307.595 
       0.126058         268.889          271.28 
       0.142273         215.394         215.658 
       0.158546         176.887         174.859 
        0.17375         159.854         157.353 
       0.188953         141.758         140.033 
       0.204907         116.861         117.711 
       0.220756         103.814           101.9 
        0.23588         94.2519         93.0117 
         0.2514         84.9174         83.6586 
       0.267535         75.9303         73.2026 
       0.283568         67.4515         65.4522 
       0.299022         62.3735         60.0651 
       0.314451         58.2982         54.7294 
       0.330372         51.8415         49.3294 
       0.346141         47.4955         45.0425 
       0.361624         43.8414         41.6181 
       0.377134         40.2087         38.3524 
       0.392932         38.4961         35.2238 
       0.408854         34.9494         32.5408 
       0.424564         33.4291         30.2554 
       0.440253         30.6148         28.1274 
       0.455999         27.9875         26.1554 
       0.471626         26.3843         24.4217 
        0.48727         25.5289         22.8674 
       0.502856         23.9338         21.4376 
       0.518488         22.1819         20.1129 
       0.534347         20.8163          18.896 
       0.550082         20.0176         17.7949 
       0.565732         19.1952         16.7834 
       0.581496         18.0894           15.84 
       0.597222         17.0503         14.9752 
       0.612804         16.1542         14.1847 
       0.628434         15.7167         13.4493 
       0.644267         14.9195         12.7575 
       0.660051         14.1576         12.1166 
       0.675724         13.4295         11.5239 
       0.691403         13.0387          10.971 
       0.707174         12.4497         10.4518 
       0.722871         12.1175         9.96879 
        0.73838         11.3769         9.52188 
       0.754018         10.8661         9.09939 
       0.769845         10.4246         8.69828 
        0.78569         10.1579         8.32129 
       0.801365         9.72905         7.97064 
       0.817031         9.41774         7.64067 
       0.832809         8.98753          7.3275 
       0.848511         8.75194          7.0335 
       0.864097         8.43917         6.75785 
       0.879701         8.24569         6.49688 
       0.895507         7.92522         6.24676 
       0.911279         7.62439         6.01049 
        0.92691         7.42143         5.78855 
       0.942635          7.1606         5.57672 
       0.958396          6.9223         5.37516 
       0.974128         6.76124         5.18406 
       0.989692         6.45364         5.00425 
        1.00528         6.36452         4.83282 
        1.02113         6.16701         4.66683 
        1.03692         6.01051         4.50936 
        1.05264         5.79984         4.35997 
        1.06832         5.66185         4.21766 
        1.08405         5.51615         4.08142 
        1.09979         5.38162         3.95119 
        1.11537         5.23401         3.82801 
        1.13105         5.08623         3.70941 
        1.14679          4.9631         3.59544 
        1.16256         4.81212          3.4861 
        1.17828         4.75181         3.38172 
        1.19395         4.58972         3.28202 
         1.2097         4.46236         3.18588 
        1.22537         4.33936          3.0941 
          1.241         4.25003         3.00626 
        1.25666         4.20685         2.92165 
        1.27241         4.11428         2.83994 
        1.28819         3.95236         2.76125 
        1.30392          3.8693         2.68581 
        1.31957         3.81814         2.61355 
        1.33529         3.69504         2.54372 
        1.35108         3.62646         2.47619 
        1.36674         3.53716         2.41162 
         1.3824         3.49706         2.34945 
        1.39811         3.40404         2.28928 
        1.41389         3.32476         2.23101 
        1.42964         3.26936         2.17489 
        1.44531         3.21328           2.121 
        1.46101         3.14886         2.06883 
        1.47667         3.08825          2.0186 
        1.49229         2.99277         1.97019 
        1.50793         2.92619         1.92333 
        1.52367         2.87942         1.87771 
        1.53953          2.8129         1.83327 
        1.55526         2.81839         1.79065 
        1.57092         2.74193         1.74957 
        1.58662         2.71501          1.7097 
        1.60235         2.63098           1.671 
        1.61809         2.59288          1.6335 
        1.63369         2.54364         1.59749 
        1.64941         2.50204         1.56232 
        1.66519         2.46934          1.5281 
        1.68085         2.41302         1.49515 
        1.69652         2.37537         1.46318 
        1.71228         2.33117         1.43197 
        1.72806         2.30108         1.40165 
        1.74368         2.26107         1.37253 
        1.75933         2.22877         1.34418 
        1.77505         2.18919         1.31651 
        1.79081         2.14861         1.28958 
         1.8065         2.12153         1.26353 
        1.82218         2.07699         1.23822 
        1.83797          2.0439         1.21344 
        1.85367         2.01525         1.18949 
        1.86928         1.98854         1.16633 
        1.88497         1.94879         1.14366 
        1.90073         1.93474         1.12152 
        1.91647         1.89266             1.1 
        1.93218         1.86946         1.07908 
        1.94787         1.84225         1.05875 
        1.96363         1.81869         1.03887 
        1.97935         1.78798         1.01954 
        1.99499         1.76293         1.00082 
        2.01064         1.74061        0.982549 
         2.0264         1.70989        0.964622 
        2.04216         1.69313        0.947154 
        2.05781         1.66098        0.930234 
        2.07353         1.65147        0.913671 
        2.08928         1.62167        0.897478 
        2.10499         1.59776        0.881726 
        2.12065         1.57861        0.866402 
        2.13633         1.55758        0.851432 
        2.15211         1.53079        0.836723 
        2.16785         1.51671        0.822406 
        2.18349         1.49185        0.808516 
        2.19916         1.48048        0.794921 
        2.21489         1.46265        0.781597 
        2.23063         1.43275        0.768572 
         2.2463          1.4146        0.755905 
        2.26194         1.40349        0.743557 
        2.27765         1.37867        0.731425 
        2.29341         1.36574        0.719534 
        2.30914         1.34231        0.707935 
        2.32486         1.33552          0.6966 
        2.34061         1.31902        0.685496 
        2.35635         1.30158        0.674647 
        2.37203         1.28348        0.664072 
        2.38768         1.26961        0.653748 
        2.40339         1.26058        0.643608 
        2.41914         1.24414        0.633661 
        2.43483         1.22866        0.623962 
         2.4505         1.21312        0.614483 
        2.46622         1.19734        0.605171 
        2.48195         1.18519        0.596053 
        2.49759          1.1704        0.587173 
        2.51328         1.15793        0.578452 
        2.52906          1.1481        0.569855 
        2.54479         1.13127        0.561466 
        2.56049         1.12132        0.553264 
        2.57618         1.10779        0.545234 
        2.59189          1.0987        0.537353 
        2.60758         1.08471        0.529641 
        2.62325         1.07252        0.522092 
        2.63898         1.06315        0.514664 
        2.65468         1.04649        0.507398 
        2.67044         1.04206        0.500242 
        2.68618         1.03355        0.493242 
        2.70184         1.01712        0.486405 
        2.71755         1.01152        0.479682 
        2.73329        0.999309        0.473077 
        2.74897        0.988147        0.466618 
        2.76462        0.977157        0.460296 
        2.78034         0.97204        0.454065 
        2.79607        0.961125        0.447944 
        2.81179        0.948516        0.441944 
        2.82749        0.940458        0.436062 
        2.84321         0.93153        0.430281 
        2.85893        0.920107        0.424607 
        2.87462        0.912655        0.419047 
        2.89033         0.90723        0.413581 
        2.90605        0.899934        0.408209 
        2.92176        0.889149        0.402937 
        2.93747        0.882272         0.39776 
        2.95318        0.871577        0.392675 
        2.96891        0.869019        0.387676 
        2.98456        0.853572        0.382788 
        3.00023        0.848148        0.377977 
        3.01596        0.841471        0.373235 
        3.03164        0.835215        0.368588 
        3.04738        0.826581        0.364008 
         3.0631        0.816576        0.359507 
        3.07883        0.812474        0.355083 
        3.09456        0.806278        0.350735 
        3.11026        0.798539        0.346467 
        3.12596        0.791348        0.342271 
        3.14163        0.788738        0.338155 
        3.15734        0.779964        0.334097 
        3.17308        0.772091        0.330097 
        3.18879        0.769582        0.326173 
        3.20447        0.761369         0.32232 
         3.2202        0.750529        0.318518 
         3.2359        0.747558        0.314784 
        3.25157        0.739371        0.311119 
        3.26729        0.736441        0.307502 
        3.28304        0.730987        0.303936 
        3.29877        0.723701        0.300431 
        3.31446        0.721356         0.29699 
        3.33014        0.710571        0.293607 
        3.34585        0.706917        0.290271 
        3.36158        0.702153        0.286982 
        3.37727        0.699044        0.283755 
        3.39294        0.693368        0.280582 
        3.40867        0.686878        0.277445 
        3.42439        0.682533        0.274359 
        3.44008        0.676208        0.271326 
        3.45578        0.671988        0.268337 
        3.47153        0.668407        0.265387 
        3.48724        0.662287        0.262486 
        3.50292        0.656459        0.259636 
        3.51859        0.655231        0.256831 
        3.53431        0.648578        0.254058 
        3.55007        0.644665        0.251319 
        3.56577        0.640269        0.248633 
        3.58146        0.636604        0.245986 
        3.59719        0.631249        0.243373 
        3.61292        0.625523        0.240799 
        3.62859        0.622462        0.238272 
        3.64429        0.617956        0.235776 
        3.66003        0.613159        0.233309 
        3.67578        0.610227        0.230879 
        3.69146         0.60569        0.228493 
        3.70712        0.603229        0.226145 
        3.72284        0.598846        0.223821 
        3.73853        0.594075        0.221534 
        3.75422        0.590757        0.219279 
        3.76993        0.585821        0.217054 
        3.78564        0.581934         0.21486 
        3.80137        0.578971        0.212694 
        3.81707        0.574666        0.210562 
        3.83279        0.571473        0.208458 
        3.84853         0.56644        0.206379 
        3.86424        0.563438        0.204333 
        3.87992        0.561561        0.202318 
        3.89561        0.557121         0.20033 
        3.91134        0.552213        0.198365 
        3.92704        0.548712        0.196429 
        3.94273        0.545797        0.194521 
        3.95845        0.543698        0.192635 
        3.97418        0.541015        0.190774 
        3.98988        0.536568         0.18894 
        4.00554        0.530812        0.187136 
        4.02125        0.528572         0.18535 
        4.03698        0.523832        0.183584 
        4.05268        0.517758        0.181846 
        4.06839        0.515617        0.180129 
         4.0841        0.509463        0.178435 
        4.09983        0.506515        0.176761 
        4.11555         0.50257        0.175109 
        4.13124         0.49899        0.173483 
        4.14693        0.495423        0.171876 
        4.16266        0.489202        0.170286 
        4.17839        0.486126        0.168718 
        4.19408        0.484496        0.167172 
        4.20977        0.479738        0.165646 
        4.22551        0.477242        0.164135 
        4.24123        0.472742        0.162645 
        4.25691        0.470237        0.161177 
        4.27259         0.46635        0.159727 
        4.28831        0.463814        0.158292 
        4.30404        0.460751        0.156874 
        4.31974        0.458036        0.155476 
        4.33543        0.454531        0.154096 
        4.35116        0.451949         0.15273 
        4.36688        0.449178        0.151381 
        4.38255        0.445813        0.150053 
        4.39825        0.443754        0.148739 
        4.41398          0.4411        0.147437 
         4.4297        0.439003        0.146153 
        4.44541        0.436122        0.144885 
        4.46111        0.434043        0.143632 
        4.47683        0.432847        0.142394 
        4.49251        0.429697        0.141173 
        4.50819        0.428528        0.139966 
         4.5239        0.425807        0.138772 
        4.53962        0.422763        0.137591 
        4.55535        0.422352        0.136423 
        4.57106        0.420915         0.13527 
        4.58678        0.417947        0.134131 
         4.6025        0.416795        0.133004 
        4.61821        0.414998        0.131891 
        4.63391        0.414298        0.130791 
         4.6496        0.411918        0.129705 
        4.66532        0.410738         0.12863 
        4.68103        0.408709        0.127568 
        4.69673        0.407026        0.126518 
        4.71241        0.406041        0.125482 
        4.72811        0.405847        0.124455 
        4.74384        0.404015        0.123439 
        4.75955        0.402745        0.122435 
        4.77525        0.401431        0.121444 
        4.79096          0.4012        0.120462 
        4.80669        0.399732        0.119491 
         4.8224        0.398291        0.118532 
        4.83809        0.397754        0.117584 
        4.85379        0.397262        0.116646 
         4.8695        0.397112        0.115718 
        4.88521        0.396219          0.1148 
        4.90093        0.395336        0.113893 
        4.91663        0.394484        0.112995 
        4.93234        0.393204        0.112107 
        4.94807        0.393171        0.111228 
        4.96377        0.393083         0.11036 
        4.97943        0.392389        0.109503 
        4.99514        0.391247        0.108653 
        5.01086        0.392503        0.107811 
        5.02654        0.391603        0.106981 
        5.04227        0.390656        0.106157 
          5.058        0.391728        0.105341 
        5.07371        0.390427        0.104535 
        5.08942        0.392039        0.103738 
        5.10513        0.391279        0.102949 
        5.12084        0.390877        0.102168 
        5.13656        0.390693        0.101396 
        5.15225          0.3913        0.100632 
        5.16796        0.391204       0.0998758 
        5.18369        0.390353       0.0991264 
         5.1994        0.392266        0.098386 
        5.21509        0.391884        0.097654 
        5.23079        0.391511       0.0969285 
        5.24649        0.392604       0.0962111 
        5.26217        0.391748       0.0955015 
        5.27788        0.393767       0.0947981 
        5.29359        0.393821       0.0941017 
        5.30933        0.393911       0.0934113 
        5.32504         0.39483       0.0927291 
        5.34073          0.3961       0.0920545 
        5.35646        0.395672       0.0913853 
        5.37218        0.396789       0.0907226 
        5.38789        0.395793       0.0900677 
        5.40357        0.398167         0.08942 
        5.41929        0.398726       0.0887773 
        5.43502        0.399341       0.0881409 
         5.4507        0.400619       0.0875123 
        5.46639        0.400686       0.0868897 
        5.48212        0.401504       0.0862719 
        5.49786        0.402196       0.0856593 
        5.51353        0.403712       0.0850558 
        5.52921        0.403981       0.0844575 
        5.54495        0.405688       0.0838633 
        5.56066        0.406008       0.0832754 
        5.57637        0.406678       0.0826933 
        5.59207        0.407992       0.0821174 
        5.60778         0.40919       0.0815467 
        5.62346        0.410718       0.0809823 
        5.63916        0.411115       0.0804228 
        5.65487        0.411866       0.0798683 
         5.6706        0.413098       0.0793184 
        5.68633        0.414833       0.0787735 
        5.70203        0.417248       0.0782349 
        5.71773        0.416086       0.0777015 
        5.73344        0.419012       0.0771727 
        5.74916        0.420482       0.0766485 
        5.76486         0.42093       0.0761299 
        5.78054        0.422118       0.0756169 
        5.79626        0.423042       0.0751072 
          5.812        0.425703       0.0746018 
         5.8277        0.426524       0.0741025 
        5.84339        0.426553       0.0736078 
        5.85911        0.430468       0.0731167 
        5.87484        0.430016       0.0726302 
        5.89053        0.432099       0.0721492 
        5.90623        0.433665       0.0716723 
        5.92195         0.43378       0.0711989 
        5.93767        0.435577       0.0707301 
        5.95336        0.437062       0.0702663 
        5.96905        0.438282       0.0698069 
        5.98476        0.439133        0.069351 
        6.00048        0.440173        0.068899 
        6.01617        0.442932       0.0684517 
        6.03185        0.443037       0.0680089 
        6.04756        0.444551        0.067569 
        6.06331        0.447417       0.0671321 
        6.07903        0.447908          0.0667 
        6.09473        0.448724       0.0662722 
        6.11044        0.449489       0.0658477 
        6.12616        0.451954        0.065427 
        6.14186        0.451381       0.0650105 
        6.15755        0.455263       0.0645977 
        6.17326        0.455766       0.0641881 
        6.18898        0.457083       0.0637819 
        6.20467        0.458864         0.06338 
        6.22036        0.458722       0.0629816 
         6.2361        0.459996       0.0625856 
         6.2518         0.46276       0.0621936 
        6.26748        0.463071       0.0618059 
        6.28319        0.465933       0.0614205 
        6.29893        0.467206        0.061038 
        6.31463        0.467982       0.0606595 
        6.33033        0.469581       0.0602843 
        6.34604        0.470938       0.0599121 
        6.36177        0.471665       0.0595426 
        6.37747        0.471992        0.059177 
