# k  (h/Mpc)    Pcb(k)  (Mpc/h)^3    Pcb_linear(k) (Mpc/h)^3   ShotnoiseSubtracted = true
      0.0200456         4822.33         4890.95 
      0.0350414         3620.73         3546.24 
      0.0492313         2682.87         2690.39 
      0.0637834         2227.77         2287.14 
      0.0800726         1693.99         1733.79 
       0.096163         1303.17         1268.79 
       0.111083         1118.84         1085.24 
       0.126058         944.442          957.12 
       0.142273         764.646         760.878 
       0.158546         634.859         616.932 
        0.17375         575.216         555.168 
       0.188953         516.476         494.059 
       0.204907         425.256         415.304 
       0.220756         383.109         359.519 
        0.23588         347.171         328.161 
         0.2514         311.424         295.161 
       0.267535         289.449         258.271 
       0.283568         254.542         230.926 
       0.299022         240.425         211.919 
       0.314451         231.569         193.094 
       0.330372         201.825         174.042 
       0.346141         186.765         158.917 
       0.361624         175.571         146.836 
       0.377134         160.779         135.314 
       0.392932         156.294         124.275 
       0.408854         146.172         114.809 
       0.424564         139.764         106.746 
       0.440253         127.239         99.2382 
       0.455999         118.156         92.2805 
       0.471626           113.8         86.1638 
        0.48727         110.438         80.6799 
       0.502856         101.791         75.6353 
       0.518488         98.5242         70.9618 
       0.534347          92.958         66.6683 
       0.550082         90.1913         62.7835 
       0.565732         87.6345         59.2147 
       0.581496         81.2742         55.8862 
       0.597222         78.5354         52.8351 
       0.612804         76.0164          50.046 
       0.628434         74.2332         47.4513 
       0.644267         70.3624         45.0107 
       0.660051         67.7663         42.7493 
       0.675724         65.7342         40.6584 
       0.691403         64.5859         38.7076 
       0.707174         62.4554         36.8758 
       0.722871         60.6867         35.1715 
        0.73838         58.2458         33.5948 
       0.754018         55.2781         32.1041 
       0.769845         54.6188          30.689 
        0.78569         52.7352         29.3589 
       0.801365         51.3844         28.1217 
       0.817031         49.4711         26.9575 
       0.832809         48.6792         25.8526 
       0.848511         47.2521         24.8154 
       0.864097         46.2982         23.8428 
       0.879701         45.3793          22.922 
       0.895507          43.793         22.0396 
       0.911279         42.7415          21.206 
        0.92691         41.8017          20.423 
       0.942635         40.9841         19.6756 
       0.958396         40.4085         18.9645 
       0.974128         39.3551         18.2902 
       0.989692         38.0391         17.6558 
        1.00528         37.5929          17.051 
        1.02113         36.6972         16.4653 
        1.03692         36.1768         15.9097 
        1.05264         35.3856         15.3827 
        1.06832         34.7336         14.8806 
        1.08405          33.807         14.3999 
        1.09979         33.5878         13.9404 
        1.11537          32.542         13.5058 
        1.13105         31.9647         13.0874 
        1.14679         31.2825         12.6853 
        1.16256         30.9003         12.2995 
        1.17828         30.4545         11.9313 
        1.19395          29.853         11.5795 
         1.2097         29.3699         11.2403 
        1.22537          28.839         10.9165 
          1.241         28.3357         10.6066 
        1.25666         27.9799         10.3081 
        1.27241         27.5636         10.0198 
        1.28819         26.5604         9.74215 
        1.30392          26.874         9.47598 
        1.31957         26.2224         9.22104 
        1.33529         25.7044         8.97466 
        1.35108         25.4802         8.73641 
        1.36674         25.1053         8.50861 
         1.3824         24.6123         8.28923 
        1.39811         24.1136         8.07695 
        1.41389         23.8863         7.87136 
        1.42964         23.6547         7.67337 
        1.44531         23.2422         7.48322 
        1.46101         22.9633         7.29919 
        1.47667          22.663         7.12196 
        1.49229         22.1955         6.95115 
        1.50793          22.017         6.78582 
        1.52367         21.7154         6.62486 
        1.53953         21.4468         6.46809 
        1.55526         21.0799          6.3177 
        1.57092         21.0156         6.17277 
        1.58662          20.729         6.03209 
        1.60235         20.3505         5.89557 
        1.61809         20.1935         5.76325 
        1.63369         19.9099         5.63621 
        1.64941         19.6947         5.51214 
        1.66519         19.3432         5.39139 
        1.68085         19.0092         5.27515 
        1.69652           19.06         5.16234 
        1.71228         18.6909         5.05223 
        1.72806         18.4197         4.94527 
        1.74368         18.2819         4.84252 
        1.75933         18.0818         4.74251 
        1.77505         17.8769         4.64488 
        1.79081         17.6711         4.54986 
         1.8065         17.5047         4.45793 
        1.82218         17.3586         4.36865 
        1.83797         17.2067         4.28123 
        1.85367         17.0783          4.1967 
        1.86928         16.8544         4.11499 
        1.88497         16.6609         4.03503 
        1.90073         16.4404         3.95692 
        1.91647         16.1233         3.88097 
        1.93218         16.1725         3.80719 
        1.94787         15.8455         3.73546 
        1.96363         15.8104         3.66531 
        1.97935         15.5783         3.59712 
        1.99499         15.4056         3.53107 
        2.01064         15.2824          3.4666 
         2.0264         15.0566         3.40334 
        2.04216         15.0577         3.34172 
        2.05781         14.8781         3.28202 
        2.07353           14.71         3.22358 
        2.08928         14.5342         3.16645 
        2.10499          14.354         3.11087 
        2.12065         14.2592         3.05681 
        2.13633         14.1275         3.00399 
        2.15211         13.9722          2.9521 
        2.16785         13.8612         2.90158 
        2.18349          13.676         2.85258 
        2.19916         13.5644         2.80461 
        2.21489         13.4441          2.7576 
        2.23063         13.3886         2.71165 
         2.2463         13.1523         2.66696 
        2.26194         13.0681         2.62339 
        2.27765         12.8997         2.58059 
        2.29341         12.7736         2.53864 
        2.30914         12.7033         2.49771 
        2.32486         12.6031         2.45772 
        2.34061         12.5023         2.41854 
        2.35635         12.3788         2.38027 
        2.37203         12.2188         2.34296 
        2.38768         12.0809         2.30653 
        2.40339         12.0537         2.27076 
        2.41914         11.8853         2.23566 
        2.43483         11.8151         2.20144 
         2.4505         11.7097           2.168 
        2.46622         11.6106         2.13514 
        2.48195         11.5493         2.10297 
        2.49759         11.3606         2.07164 
        2.51328         11.3433         2.04087 
        2.52906         11.1983         2.01054 
        2.54479         11.0903         1.98095 
        2.56049         10.9814         1.95201 
        2.57618         10.9341         1.92368 
        2.59189         10.9099         1.89587 
        2.60758         10.7259         1.86866 
        2.62325         10.6571         1.84203 
        2.63898         10.6174         1.81582 
        2.65468         10.4693         1.79018 
        2.67044         10.4201         1.76494 
        2.68618          10.306         1.74024 
        2.70184         10.2375         1.71612 
        2.71755         10.1534          1.6924 
        2.73329         10.0216         1.66909 
        2.74897         9.96541         1.64631 
        2.76462         9.92047           1.624 
        2.78034         9.80252         1.60202 
        2.79607         9.76595         1.58042 
        2.81179         9.64684         1.55925 
        2.82749         9.58249          1.5385 
        2.84321         9.51941          1.5181 
        2.85893         9.46049         1.49809 
        2.87462           9.384         1.47847 
        2.89033         9.27618         1.45918 
        2.90605          9.2296         1.44023 
        2.92176         9.14831         1.42163 
        2.93747         9.06794         1.40336 
        2.95318         8.98986         1.38542 
        2.96891         8.93072         1.36779 
        2.98456         8.85965         1.35054 
        3.00023         8.79632         1.33357 
        3.01596         8.67436         1.31683 
        3.03164         8.67727         1.30044 
        3.04738         8.57417         1.28428 
         3.0631         8.49055          1.2684 
        3.07883         8.45331         1.25279 
        3.09456         8.37343         1.23745 
        3.11026         8.32453         1.22239 
        3.12596         8.23408         1.20759 
        3.14163         8.21776         1.19307 
        3.15734         8.12384         1.17875 
        3.17308         8.09671         1.16464 
        3.18879         8.01164         1.15079 
        3.20447         7.94282          1.1372 
         3.2202         7.89565         1.12378 
         3.2359         7.82505         1.11061 
        3.25157         7.79139         1.09768 
        3.26729          7.7197         1.08492 
        3.28304         7.65906         1.07234 
        3.29877         7.62232         1.05997 
        3.31446         7.57536         1.04783 
        3.33014         7.50032         1.03589 
        3.34585          7.4645         1.02412 
        3.36158         7.39259         1.01252 
        3.37727         7.34216         1.00114 
        3.39294         7.27675        0.989938 
        3.40867         7.24671        0.978873 
        3.42439         7.16108        0.967984 
        3.44008         7.11909        0.957283 
        3.45578         7.07329        0.946737 
        3.47153         6.99998        0.936328 
        3.48724         6.96461        0.926095 
        3.50292         6.90348         0.91604 
        3.51859         6.87761         0.90614 
        3.53431         6.81744        0.896357 
        3.55007         6.76523        0.886696 
        3.56577         6.69761        0.877217 
        3.58146         6.67496        0.867881 
        3.59719         6.61947         0.85866 
        3.61292         6.57279        0.849578 
        3.62859         6.53073        0.840662 
        3.64429          6.4817        0.831858 
        3.66003         6.44081        0.823154 
        3.67578         6.39432        0.814579 
        3.69146         6.35268         0.80616 
        3.70712         6.30874        0.797875 
        3.72284         6.26128        0.789678 
        3.73853         6.21957         0.78161 
        3.75422         6.16326        0.773653 
        3.76993         6.14108        0.765801 
        3.78564         6.08966        0.758062 
        3.80137         6.05816        0.750418 
        3.81707         5.98153        0.742897 
        3.83279         5.96712        0.735473 
        3.84853         5.90579        0.728139 
        3.86424         5.85665        0.720921 
        3.87992         5.83869        0.713811 
        3.89561          5.8137        0.706798 
        3.91134         5.75663        0.699866 
        3.92704         5.71548        0.693036 
        3.94273         5.67374        0.686304 
        3.95845         5.64564        0.679649 
        3.97418         5.59379        0.673083 
        3.98988         5.55623        0.666612 
        4.00554         5.53045        0.660245 
        4.02125         5.47764        0.653944 
        4.03698         5.45354        0.647716 
        4.05268         5.39752        0.641583 
        4.06839         5.36026        0.635526 
         4.0841         5.32677         0.62955 
        4.09983         5.29435        0.623642 
        4.11555         5.24343        0.617814 
        4.13124         5.21174        0.612077 
        4.14693         5.19545        0.606408 
        4.16266          5.1493        0.600798 
        4.17839         5.12226        0.595263 
        4.19408         5.08258        0.589811 
        4.20977         5.04043        0.584426 
        4.22551          5.0069        0.579095 
        4.24123         4.95989        0.573837 
        4.25691         4.93809        0.568659 
        4.27259         4.89938        0.563543 
        4.28831         4.85554        0.558481 
        4.30404         4.82586        0.553477 
        4.31974          4.7936        0.548545 
        4.33543         4.75712        0.543677 
        4.35116          4.7346        0.538856 
        4.36688         4.70842        0.534096 
        4.38255         4.67487        0.529412 
        4.39825         4.65001        0.524774 
        4.41398         4.62124        0.520183 
         4.4297         4.59592        0.515653 
        4.44541         4.55943        0.511177 
        4.46111         4.52273        0.506758 
        4.47683         4.49036        0.502389 
        4.49251         4.46867        0.498081 
        4.50819         4.43743        0.493824 
         4.5239         4.40781        0.489612 
        4.53962         4.36756        0.485444 
        4.55535         4.35166        0.481323 
        4.57106          4.3198        0.477256 
        4.58678         4.28707        0.473235 
         4.6025         4.27338         0.46926 
        4.61821          4.2239        0.465332 
        4.63391         4.19602        0.461454 
         4.6496         4.17005        0.457622 
        4.66532         4.14711        0.453828 
        4.68103         4.12431        0.450079 
        4.69673         4.10253        0.446377 
        4.71241         4.06936         0.44272 
        4.72811         4.05014        0.439098 
        4.74384         4.02888        0.435512 
        4.75955         3.99215        0.431973 
        4.77525         3.96564        0.428474 
        4.79096         3.94797        0.425011 
        4.80669         3.91456        0.421585 
         4.8224         3.88954          0.4182 
        4.83809         3.86997        0.414856 
        4.85379         3.83522        0.411548 
         4.8695         3.81779        0.408273 
        4.88521         3.79835        0.405035 
        4.90093         3.77628        0.401832 
        4.91663         3.74739        0.398667 
        4.93234         3.72373        0.395532 
        4.94807         3.70921         0.39243 
        4.96377         3.68071        0.389367 
        4.97943         3.65983        0.386344 
        4.99514         3.64179        0.383345 
        5.01086         3.61221        0.380375 
        5.02654         3.59115        0.377445 
        5.04227         3.56806        0.374538 
          5.058         3.55643         0.37166 
        5.07371         3.52619        0.368818 
        5.08942         3.49476        0.366005 
        5.10513         3.47959        0.363222 
        5.12084         3.45552        0.360467 
        5.13656         3.44165        0.357741 
        5.15225         3.42673        0.355048 
        5.16796         3.40068        0.352378 
        5.18369         3.37159        0.349734 
         5.1994         3.35507        0.347122 
        5.21509         3.33169        0.344539 
        5.23079         3.31611         0.34198 
        5.24649         3.29398        0.339449 
        5.26217         3.27255        0.336945 
        5.27788         3.25718        0.334463 
        5.29359         3.24129        0.332006 
        5.30933         3.22437        0.329571 
        5.32504         3.20253        0.327163 
        5.34073         3.18319        0.324783 
        5.35646         3.15856        0.322422 
        5.37218         3.14901        0.320084 
        5.38789         3.13107        0.317774 
        5.40357         3.10863        0.315488 
        5.41929         3.09101        0.313221 
        5.43502         3.07462        0.310976 
         5.4507         3.04651        0.308758 
        5.46639         3.03947        0.306561 
        5.48212         3.01793        0.304381 
        5.49786         3.00199         0.30222 
        5.51353         2.98357        0.300091 
        5.52921         2.96601         0.29798 
        5.54495          2.9504        0.295883 
        5.56066         2.93186        0.293809 
        5.57637          2.9169        0.291756 
        5.59207         2.89679        0.289724 
        5.60778         2.88546         0.28771 
        5.62346         2.86411        0.285719 
        5.63916         2.85276        0.283745 
        5.65487         2.82798        0.281788 
         5.6706         2.82199        0.279848 
        5.68633         2.80376        0.277926 
        5.70203          2.7888        0.276026 
        5.71773         2.77086        0.274144 
        5.73344         2.75548        0.272278 
        5.74916         2.73978        0.270429 
        5.76486         2.72997        0.268599 
        5.78054         2.70716        0.266789 
        5.79626         2.69435        0.264991 
          5.812         2.67504        0.263207 
         5.8277         2.66032        0.261446 
        5.84339         2.65253          0.2597 
        5.85911         2.63874        0.257968 
        5.87484         2.61972        0.256251 
        5.89053         2.60915        0.254554 
        5.90623         2.59124        0.252872 
        5.92195          2.5801        0.251202 
        5.93767          2.5678        0.249548 
        5.95336         2.55036        0.247911 
        5.96905         2.53488         0.24629 
        5.98476         2.51876        0.244682 
        6.00048         2.51279        0.243087 
        6.01617         2.49142        0.241509 
        6.03185         2.47783        0.239947 
        6.04756         2.47154        0.238395 
        6.06331         2.45872        0.236853 
        6.07903         2.44156        0.235329 
        6.09473         2.42868        0.233819 
        6.11044         2.41836        0.232322 
        6.12616         2.40561        0.230837 
        6.14186         2.39482        0.229368 
        6.15755         2.38273        0.227911 
        6.17326         2.36868        0.226466 
        6.18898         2.35459        0.225033 
        6.20467         2.34262        0.223615 
        6.22036         2.33065        0.222209 
         6.2361         2.32196        0.220812 
         6.2518         2.31019        0.219429 
        6.26748         2.29558        0.218062 
        6.28319          2.2848        0.216702 
        6.29893           2.275        0.215352 
        6.31463         2.26331        0.214017 
        6.33033         2.25068        0.212693 
        6.34604         2.23711         0.21138 
        6.36177         2.22649        0.210076 
        6.37747         2.21759        0.208786 
