# k  (h/Mpc)    Pcb(k)  (Mpc/h)^3    Pcb_linear(k) (Mpc/h)^3   ShotnoiseSubtracted = true
      0.0200456         7487.84         7598.92 
      0.0350414         5641.76         5509.69 
      0.0492313         4153.28         4179.98 
      0.0637834         3437.61         3553.47 
      0.0800726         2611.91         2693.73 
       0.096163          2031.6         1971.29 
       0.111083         1745.89         1686.11 
       0.126058         1462.68         1487.05 
       0.142273         1194.19         1182.15 
       0.158546         995.184         958.509 
        0.17375         902.492         862.548 
       0.188953          818.16         767.605 
       0.204907         677.464         645.246 
       0.220756          612.02         558.574 
        0.23588         554.374         509.853 
         0.2514         496.246         458.583 
       0.267535         470.084         401.268 
       0.283568          411.94         358.783 
       0.299022         392.582         329.253 
       0.314451         386.538         300.005 
       0.330372         333.435         270.404 
       0.346141          309.75         246.905 
       0.361624         294.087         228.134 
       0.377134         271.103         210.233 
       0.392932         264.134         193.083 
       0.408854         249.753         178.376 
       0.424564         239.608         165.848 
       0.440253         216.784         154.183 
       0.455999         205.008         143.373 
       0.471626         201.092          133.87 
        0.48727         193.156          125.35 
       0.502856         176.727         117.512 
       0.518488          175.19         110.251 
       0.534347         163.821         103.581 
       0.550082         160.168         97.5448 
       0.565732         157.319         92.0002 
       0.581496         145.641         86.8287 
       0.597222         142.436         82.0884 
       0.612804          138.01          77.755 
       0.628434         134.033         73.7236 
       0.644267          127.48         69.9318 
       0.660051         123.649         66.4183 
       0.675724         122.004         63.1697 
       0.691403         118.986         60.1389 
       0.707174         115.023         57.2928 
       0.722871         112.892         54.6449 
        0.73838          110.25         52.1952 
       0.754018         103.636         49.8792 
       0.769845         103.119         47.6805 
        0.78569         100.204          45.614 
       0.801365         97.2118         43.6919 
       0.817031         94.1174         41.8831 
       0.832809         92.4827         40.1665 
       0.848511         90.3498         38.5549 
       0.864097         88.8372         37.0438 
       0.879701         87.2319         35.6133 
       0.895507         83.9934         34.2423 
       0.911279         82.8738         32.9472 
        0.92691         80.4247         31.7305 
       0.942635         78.8012         30.5693 
       0.958396         78.4833         29.4645 
       0.974128         76.6471          28.417 
       0.989692         74.9133         27.4313 
        1.00528         73.4792         26.4916 
        1.02113         71.8989         25.5817 
        1.03692         71.6453         24.7185 
        1.05264         70.2813         23.8996 
        1.06832          68.142         23.1196 
        1.08405         67.3361         22.3727 
        1.09979          66.898         21.6589 
        1.11537         65.0638         20.9836 
        1.13105         63.6796         20.3335 
        1.14679         62.9307         19.7088 
        1.16256         61.9251         19.1094 
        1.17828         61.2444         18.5372 
        1.19395         59.6451         17.9907 
         1.2097         59.7918         17.4637 
        1.22537         58.3561         16.9607 
          1.241         57.7054         16.4791 
        1.25666         56.2556         16.0154 
        1.27241          56.137         15.5674 
        1.28819         55.0738         15.1361 
        1.30392         54.2783         14.7225 
        1.31957         53.9141         14.3265 
        1.33529         52.9694         13.9437 
        1.35108         52.0799         13.5735 
        1.36674         51.4477         13.2196 
         1.3824          50.659         12.8787 
        1.39811         49.8437         12.5489 
        1.41389          49.175         12.2295 
        1.42964         48.7954         11.9219 
        1.44531         47.7996         11.6265 
        1.46101         47.5062         11.3405 
        1.47667         46.8541         11.0652 
        1.49229         46.1935         10.7998 
        1.50793         45.6848         10.5429 
        1.52367         45.0562         10.2928 
        1.53953         44.6677         10.0493 
        1.55526          44.006         9.81563 
        1.57092         43.5073         9.59046 
        1.58662         42.8765         9.37188 
        1.60235         42.3929         9.15978 
        1.61809         41.8311          8.9542 
        1.63369          41.322         8.75682 
        1.64941          40.841         8.56404 
        1.66519         40.2005         8.37644 
        1.68085         39.7694         8.19584 
        1.69652         39.2227         8.02058 
        1.71228         39.0388         7.84949 
        1.72806         38.3649         7.68332 
        1.74368          37.907         7.52367 
        1.75933         37.6312         7.36829 
        1.77505         37.3685         7.21661 
        1.79081         36.8387         7.06898 
         1.8065         36.1946         6.92616 
        1.82218         35.7516         6.78744 
        1.83797         35.5368         6.65161 
        1.85367         35.0191         6.52029 
        1.86928         35.0313         6.39334 
        1.88497         34.2267          6.2691 
        1.90073         33.9859         6.14775 
        1.91647         33.7848         6.02974 
        1.93218         33.6346         5.91512 
        1.94787         33.1547         5.80367 
        1.96363         32.5516         5.69468 
        1.97935         32.3149         5.58874 
        1.99499         32.0584         5.48611 
        2.01064         31.5932         5.38595 
         2.0264         31.2702         5.28768 
        2.04216          31.113         5.19193 
        2.05781         30.7427         5.09918 
        2.07353         30.3909         5.00838 
        2.08928         30.0522         4.91962 
        2.10499         29.8197         4.83327 
        2.12065         29.4613         4.74927 
        2.13633         29.2317         4.66721 
        2.15211         28.7286         4.58658 
        2.16785         28.5614          4.5081 
        2.18349         28.2476         4.43197 
        2.19916         27.9815         4.35744 
        2.21489         27.6958         4.28441 
        2.23063         27.5737         4.21301 
         2.2463         27.2185         4.14357 
        2.26194         26.9229         4.07589 
        2.27765          26.631         4.00938 
        2.29341         26.3423          3.9442 
        2.30914         26.0876         3.88062 
        2.32486         25.8712         3.81849 
        2.34061         25.6622         3.75762 
        2.35635         25.3006         3.69815 
        2.37203         25.1447         3.64018 
        2.38768         24.9455         3.58359 
        2.40339         24.7623         3.52801 
        2.41914         24.4426         3.47348 
        2.43483         24.3235         3.42031 
         2.4505          23.895         3.36836 
        2.46622         23.7059         3.31731 
        2.48195         23.4855         3.26733 
        2.49759         23.1586         3.21865 
        2.51328         23.0671         3.17085 
        2.52906         22.8965         3.12372 
        2.54479         22.6215         3.07774 
        2.56049         22.5332         3.03277 
        2.57618         22.3598         2.98876 
        2.59189         21.9333         2.94556 
        2.60758          21.821         2.90329 
        2.62325         21.5927          2.8619 
        2.63898          21.417         2.82119 
        2.65468         21.2512         2.78136 
        2.67044         20.9661         2.74213 
        2.68618         20.7973         2.70376 
        2.70184         20.5956         2.66628 
        2.71755         20.4082         2.62943 
        2.73329         20.2194         2.59322 
        2.74897          20.081         2.55782 
        2.76462         19.9154         2.52316 
        2.78034         19.6192         2.48901 
        2.79607         19.4916         2.45545 
        2.81179         19.3219         2.42256 
        2.82749         19.1282         2.39032 
        2.84321         19.0353         2.35863 
        2.85893         18.7431         2.32753 
        2.87462         18.6413         2.29705 
        2.89033         18.4973         2.26709 
        2.90605         18.2761         2.23764 
        2.92176         18.0746         2.20874 
        2.93747         17.9423         2.18036 
        2.95318         17.8296         2.15249 
        2.96891          17.613         2.12509 
        2.98456         17.5522         2.09829 
        3.00023         17.3049         2.07192 
        3.01596         17.1728         2.04593 
        3.03164         17.0046         2.02045 
        3.04738         16.8611         1.99535 
         3.0631         16.7557         1.97068 
        3.07883         16.6188         1.94643 
        3.09456         16.4679         1.92259 
        3.11026         16.3439         1.89919 
        3.12596         16.1611         1.87619 
        3.14163         15.9997         1.85363 
        3.15734         15.8637         1.83139 
        3.17308         15.7843         1.80946 
        3.18879         15.5446         1.78795 
        3.20447         15.4957         1.76683 
         3.2202         15.3299         1.74599 
         3.2359         15.2185         1.72552 
        3.25157         15.1215         1.70543 
        3.26729          14.925          1.6856 
        3.28304         14.8359         1.66606 
        3.29877         14.7778         1.64685 
        3.31446         14.5891         1.62798 
        3.33014          14.486         1.60944 
        3.34585           14.31         1.59115 
        3.36158         14.2042         1.57312 
        3.37727         14.0975         1.55544 
        3.39294         13.9855         1.53804 
        3.40867         13.8227         1.52085 
        3.42439         13.7278         1.50393 
        3.44008         13.6436          1.4873 
        3.45578         13.4545         1.47092 
        3.47153         13.3772         1.45474 
        3.48724          13.307         1.43885 
        3.50292         13.1868         1.42322 
        3.51859         13.0752         1.40784 
        3.53431         12.9016         1.39264 
        3.55007         12.8501         1.37763 
        3.56577         12.7404         1.36291 
        3.58146         12.6008          1.3484 
        3.59719         12.5009         1.33407 
        3.61292         12.4194         1.31996 
        3.62859         12.2975         1.30611 
        3.64429         12.2188         1.29243 
        3.66003         12.0986         1.27891 
        3.67578         12.0035         1.26559 
        3.69146         11.9157         1.25251 
        3.70712          11.793         1.23964 
        3.72284         11.7153          1.2269 
        3.73853         11.6266         1.21436 
        3.75422         11.5078           1.202 
        3.76993         11.4074          1.1898 
        3.78564         11.3378         1.17778 
        3.80137         11.2353          1.1659 
        3.81707         11.1554         1.15422 
        3.83279         11.0631         1.14268 
        3.84853         10.9655         1.13129 
        3.86424         10.8748         1.12007 
        3.87992         10.8193         1.10903 
        3.89561         10.7189         1.09813 
        3.91134         10.6214         1.08736 
        3.92704         10.5431         1.07675 
        3.94273          10.448         1.06629 
        3.95845         10.3596         1.05595 
        3.97418         10.2738         1.04575 
        3.98988         10.2362          1.0357 
        4.00554         10.1322          1.0258 
        4.02125         10.0577         1.01601 
        4.03698          9.9736         1.00634 
        4.05268         9.90661        0.996808 
        4.06839         9.79879        0.987398 
         4.0841         9.71072        0.978113 
        4.09983         9.65437        0.968935 
        4.11555         9.53734        0.959879 
        4.13124         9.49091        0.950965 
        4.14693         9.39456        0.942157 
        4.16266         9.34696        0.933442 
        4.17839         9.24654        0.924843 
        4.19408         9.20744        0.916372 
        4.20977         9.08977        0.908005 
        4.22551         9.04556        0.899723 
        4.24123          9.0011        0.891553 
        4.25691         8.91872        0.883508 
        4.27259          8.8323         0.87556 
        4.28831         8.75217        0.867695 
        4.30404         8.73137         0.85992 
        4.31974         8.63606        0.852258 
        4.33543         8.58739        0.844694 
        4.35116          8.4773        0.837205 
        4.36688         8.43134        0.829809 
        4.38255          8.3881        0.822532 
        4.39825           8.282        0.815326 
        4.41398         8.24006        0.808193 
         4.4297         8.18159        0.801154 
        4.44541         8.11823        0.794201 
        4.46111          8.0561        0.787336 
        4.47683         8.01115        0.780547 
        4.49251         7.92532        0.773853 
        4.50819          7.8707         0.76724 
         4.5239         7.80688        0.760696 
        4.53962         7.74099         0.75422 
        4.55535          7.6907        0.747817 
        4.57106         7.64393        0.741498 
        4.58678         7.58535        0.735251 
         4.6025         7.52335        0.729075 
        4.61821         7.46961        0.722972 
        4.63391         7.41713        0.716947 
         4.6496           7.356        0.710994 
        4.66532          7.3084        0.705099 
        4.68103         7.23867        0.699275 
        4.69673          7.1864        0.693522 
        4.71241         7.13349         0.68784 
        4.72811         7.08896        0.682213 
        4.74384         7.06208        0.676643 
        4.75955         6.99419        0.671143 
        4.77525         6.94221        0.665708 
        4.79096         6.90624        0.660327 
        4.80669         6.82646        0.655003 
         4.8224         6.78467        0.649745 
        4.83809         6.73652         0.64455 
        4.85379         6.67756        0.639409 
         4.8695         6.65057        0.634321 
        4.88521         6.58973         0.62929 
        4.90093         6.54176        0.624314 
        4.91663         6.49168        0.619397 
        4.93234         6.44851        0.614527 
        4.94807         6.39474        0.609707 
        4.96377         6.35302        0.604948 
        4.97943         6.28962        0.600251 
        4.99514         6.26488        0.595591 
        5.01086         6.22715        0.590978 
        5.02654         6.17374        0.586426 
        5.04227         6.13838        0.581908 
          5.058         6.07538        0.577437 
        5.07371         6.05218        0.573021 
        5.08942         5.99465        0.568652 
        5.10513         5.96833        0.564328 
        5.12084         5.92184        0.560047 
        5.13656         5.86309        0.555811 
        5.15225         5.82787        0.551627 
        5.16796         5.78722         0.54748 
        5.18369         5.75018        0.543372 
         5.1994         5.70279        0.539313 
        5.21509         5.67072          0.5353 
        5.23079         5.63893        0.531324 
        5.24649         5.58949        0.527391 
        5.26217         5.56353        0.523501 
        5.27788         5.51358        0.519646 
        5.29359         5.47758        0.515828 
        5.30933         5.45039        0.512044 
        5.32504         5.39799        0.508304 
        5.34073         5.36848        0.504606 
        5.35646         5.33194        0.500938 
        5.37218         5.28734        0.497306 
        5.38789         5.25472        0.493715 
        5.40357         5.21388        0.490165 
        5.41929         5.18106        0.486642 
        5.43502         5.14235        0.483153 
         5.4507         5.12232        0.479708 
        5.46639          5.0824        0.476295 
        5.48212         5.05024        0.472908 
        5.49786         5.01732         0.46955 
        5.51353         4.98724        0.466242 
        5.52921         4.94808        0.462963 
        5.54495         4.91309        0.459705 
        5.56066         4.86924        0.456483 
        5.57637         4.83675        0.453292 
        5.59207         4.81476        0.450135 
        5.60778         4.78071        0.447007 
        5.62346         4.74554        0.443913 
        5.63916         4.70876        0.440846 
        5.65487         4.68878        0.437806 
         5.6706         4.66237        0.434792 
        5.68633         4.62969        0.431805 
        5.70203         4.59088        0.428853 
        5.71773         4.56828        0.425929 
        5.73344         4.52526         0.42303 
        5.74916         4.51342        0.420157 
        5.76486          4.4671        0.417314 
        5.78054         4.46011        0.414502 
        5.79626         4.42155        0.411708 
          5.812         4.39117        0.408937 
         5.8277         4.36955        0.406201 
        5.84339         4.33125        0.403489 
        5.85911         4.30366        0.400797 
        5.87484         4.28056         0.39813 
        5.89053         4.25291        0.395493 
        5.90623         4.22957        0.392879 
        5.92195         4.19893        0.390284 
        5.93767         4.16715        0.387715 
        5.95336         4.14886        0.385172 
        5.96905         4.12117        0.382654 
        5.98476         4.09644        0.380155 
        6.00048         4.07066        0.377677 
        6.01617         4.04095        0.375225 
        6.03185         4.01263        0.372798 
        6.04756         3.98727        0.370387 
        6.06331         3.96707        0.367992 
        6.07903         3.94246        0.365623 
        6.09473          3.9171        0.363278 
        6.11044         3.89185        0.360951 
        6.12616         3.87205        0.358645 
        6.14186         3.84807        0.356362 
        6.15755         3.82267        0.354099 
        6.17326         3.80118        0.351854 
        6.18898         3.77339        0.349627 
        6.20467         3.75155        0.347424 
        6.22036         3.72488         0.34524 
         6.2361         3.70868        0.343069 
         6.2518         3.69581        0.340921 
        6.26748         3.66405        0.338796 
        6.28319         3.63616        0.336683 
        6.29893         3.61764        0.334586 
        6.31463         3.58801        0.332511 
        6.33033         3.58138        0.330455 
        6.34604         3.55918        0.328414 
        6.36177         3.53237        0.326389 
        6.37747         3.51587        0.324385 
