# k  (h/Mpc)    Pcb(k)  (Mpc/h)^3    Pcb_linear(k) (Mpc/h)^3   ShotnoiseSubtracted = true
      0.0200456         16017.3         16290.9 
      0.0350414           12161         11811.9 
      0.0492313         8802.02         8961.24 
      0.0637834         7241.03         7618.09 
      0.0800726         5491.51         5774.95 
       0.096163         4378.02         4226.14 
       0.111083         3757.83         3614.76 
       0.126058         3108.39            3188 
       0.142273         2599.62         2534.35 
       0.158546         2168.04          2054.9 
        0.17375         1977.06         1849.17 
       0.188953         1839.37         1645.63 
       0.204907         1552.98         1383.31 
       0.220756         1406.76          1197.5 
        0.23588         1271.56         1093.05 
         0.2514         1143.29         983.132 
       0.267535         1102.95         860.256 
       0.283568         974.959         769.176 
       0.299022         935.231         705.867 
       0.314451         962.359         643.164 
       0.330372         834.692         579.705 
       0.346141         771.707         529.326 
       0.361624         740.939         489.084 
       0.377134         703.482         450.706 
       0.392932         678.361          413.94 
       0.408854         647.082         382.411 
       0.424564         630.217         355.553 
       0.440253         577.273         330.546 
       0.455999         553.285         307.371 
       0.471626         562.309         286.997 
        0.48727         531.393         268.731 
       0.502856         497.304         251.928 
       0.518488         493.804         236.362 
       0.534347         463.918         222.061 
       0.550082         446.404         209.121 
       0.565732         443.078         197.234 
       0.581496         430.677         186.147 
       0.597222         418.577         175.985 
       0.612804         409.323         166.695 
       0.628434         392.845         158.052 
       0.644267         378.514         149.923 
       0.660051         373.422         142.391 
       0.675724          367.48         135.426 
       0.691403         358.746         128.929 
       0.707174         345.115         122.827 
       0.722871         339.453          117.15 
        0.73838         336.197         111.898 
       0.754018         323.322         106.933 
       0.769845         321.516          102.22 
        0.78569         314.303         97.7895 
       0.801365         305.502         93.6686 
       0.817031         301.011         89.7909 
       0.832809         296.451         86.1107 
       0.848511         288.886         82.6557 
       0.864097         282.053         79.4163 
       0.879701         280.285         76.3494 
       0.895507         272.568         73.4102 
       0.911279         265.982         70.6336 
        0.92691         263.609         68.0254 
       0.942635         261.983          65.536 
       0.958396         254.552         63.1673 
       0.974128         250.965         60.9216 
       0.989692         242.014         58.8085 
        1.00528         241.585         56.7939 
        1.02113         237.977         54.8432 
        1.03692         232.592         52.9926 
        1.05264         228.963         51.2371 
        1.06832         228.378         49.5648 
        1.08405         222.102         47.9637 
        1.09979         220.623         46.4332 
        1.11537         215.848         44.9856 
        1.13105         212.339         43.5919 
        1.14679         210.358         42.2526 
        1.16256         207.223         40.9676 
        1.17828         204.849          39.741 
        1.19395         199.202         38.5693 
         1.2097         198.691         37.4396 
        1.22537         197.287          36.361 
          1.241         192.389         35.3287 
        1.25666         189.925         34.3344 
        1.27241         186.054         33.3742 
        1.28819         184.127         32.4494 
        1.30392         181.332         31.5629 
        1.31957         177.323         30.7137 
        1.33529         175.344         29.8931 
        1.35108         173.305         29.0995 
        1.36674         170.554         28.3407 
         1.3824         169.236           27.61 
        1.39811         165.758         26.9029 
        1.41389         163.336         26.2182 
        1.42964         161.152         25.5587 
        1.44531         159.429         24.9253 
        1.46101         156.266         24.3123 
        1.47667         155.602          23.722 
        1.49229         153.002         23.1531 
        1.50793         150.472         22.6024 
        1.52367         149.013         22.0663 
        1.53953         145.892         21.5441 
        1.55526         145.542         21.0432 
        1.57092          143.59         20.5605 
        1.58662         140.336         20.0919 
        1.60235          138.88         19.6371 
        1.61809         136.883         19.1964 
        1.63369         135.244         18.7733 
        1.64941         134.237           18.36 
        1.66519         132.062         17.9578 
        1.68085         129.923         17.5706 
        1.69652         128.743         17.1949 
        1.71228         127.541         16.8281 
        1.72806         125.713         16.4718 
        1.74368         123.846         16.1296 
        1.75933         122.786         15.7965 
        1.77505          120.45         15.4713 
        1.79081         119.236         15.1548 
         1.8065         117.005         14.8486 
        1.82218         115.796         14.5512 
        1.83797         115.466           14.26 
        1.85367         113.096         13.9785 
        1.86928          112.63         13.7063 
        1.88497         110.723           13.44 
        1.90073         109.845         13.1798 
        1.91647          107.87         12.9268 
        1.93218         106.642         12.6811 
        1.94787         105.111         12.4422 
        1.96363         104.365         12.2085 
        1.97935         103.139         11.9814 
        1.99499         102.135         11.7614 
        2.01064         99.9133         11.5466 
         2.0264          99.202          11.336 
        2.04216         97.2464         11.1307 
        2.05781         96.7886         10.9318 
        2.07353         95.3617         10.7372 
        2.08928         93.9926         10.5469 
        2.10499         92.9881         10.3618 
        2.12065         92.5784         10.1817 
        2.13633         91.2755         10.0058 
        2.15211         89.8658         9.83293 
        2.16785         88.5891         9.66467 
        2.18349         87.4556         9.50145 
        2.19916         86.5948         9.34169 
        2.21489         85.5031          9.1851 
        2.23063         84.3872         9.03204 
         2.2463         83.8637         8.88318 
        2.26194         82.6331         8.73807 
        2.27765         81.7857          8.5955 
        2.29341         80.9217         8.45576 
        2.30914         79.9286         8.31945 
        2.32486         78.2652         8.18624 
        2.34061         77.9005         8.05576 
        2.35635         76.8518         7.92826 
        2.37203         75.8664         7.80399 
        2.38768          75.076         7.68266 
        2.40339          74.251          7.5635 
        2.41914         73.1407         7.44661 
        2.43483         72.6201         7.33262 
         2.4505         71.5059         7.22123 
        2.46622           71.03          7.1118 
        2.48195         70.0413         7.00464 
        2.49759         69.1305         6.90029 
        2.51328         68.4294          6.7978 
        2.52906         67.4662         6.69677 
        2.54479         66.7972         6.59819 
        2.56049         66.0929          6.5018 
        2.57618         65.0875         6.40744 
        2.59189         64.7745         6.31482 
        2.60758         63.7932         6.22419 
        2.62325         63.1364         6.13547 
        2.63898         62.4207         6.04819 
        2.65468         61.8282          5.9628 
        2.67044         61.1849         5.87871 
        2.68618         60.5793         5.79644 
        2.70184         59.6996          5.7161 
        2.71755         58.9776         5.63709 
        2.73329          58.525         5.55946 
        2.74897         58.0361         5.48356 
        2.76462         57.5138         5.40926 
        2.78034          56.755         5.33604 
        2.79607         55.8464         5.26411 
        2.81179          55.312          5.1936 
        2.82749         54.8118         5.12448 
        2.84321         54.4482         5.05654 
        2.85893         53.7279         4.98986 
        2.87462         52.9852         4.92452 
        2.89033         52.4544         4.86029 
        2.90605         51.7981         4.79716 
        2.92176         51.3279         4.73519 
        2.93747          50.676         4.67436 
        2.95318         50.3215          4.6146 
        2.96891         49.6732         4.55586 
        2.98456         49.2102         4.49841 
        3.00023         48.5737         4.44188 
        3.01596         48.2005         4.38615 
        3.03164         47.7064         4.33154 
        3.04738         47.2063         4.27771 
         3.0631         46.7018         4.22482 
        3.07883         46.1917         4.17284 
        3.09456         45.6344         4.12174 
        3.11026         45.1139         4.07158 
        3.12596         44.7354         4.02227 
        3.14163         44.2984          3.9739 
        3.15734         43.7965         3.92621 
        3.17308         43.4932          3.8792 
        3.18879         43.0785          3.8331 
        3.20447          42.565         3.78781 
         3.2202         42.1108         3.74313 
         3.2359         41.7863         3.69925 
        3.25157         41.2405         3.65618 
        3.26729         40.8999         3.61367 
        3.28304         40.4989         3.57177 
        3.29877         39.9336         3.53058 
        3.31446         39.6745         3.49014 
        3.33014         39.2538         3.45038 
        3.34585         38.7407         3.41118 
        3.36158         38.4572         3.37253 
        3.37727          38.044         3.33461 
        3.39294         37.6372         3.29731 
        3.40867         37.3614         3.26046 
        3.42439         36.8903         3.22419 
        3.44008         36.6163         3.18854 
        3.45578         36.2206         3.15342 
        3.47153         35.9719         3.11875 
        3.48724         35.5184         3.08466 
        3.50292         35.2684         3.05117 
        3.51859         34.9896          3.0182 
        3.53431         34.6158         2.98561 
        3.55007         34.0894         2.95343 
        3.56577         33.9819         2.92186 
        3.58146         33.6175         2.89076 
        3.59719         33.2281         2.86005 
        3.61292         33.0285          2.8298 
        3.62859         32.5921          2.8001 
        3.64429         32.3343         2.77078 
        3.66003          32.078         2.74179 
        3.67578         31.7677         2.71322 
        3.69146         31.5432         2.68518 
        3.70712         31.0881         2.65759 
        3.72284         30.8981         2.63028 
        3.73853         30.7105         2.60341 
        3.75422          30.366         2.57691 
        3.76993         30.0328         2.55075 
        3.78564         29.7938         2.52497 
        3.80137         29.5864         2.49951 
        3.81707         29.2147         2.47446 
        3.83279           28.96         2.44973 
        3.84853         28.7373         2.42531 
        3.86424         28.3156         2.40126 
        3.87992         28.1125         2.37758 
        3.89561         27.9471         2.35422 
        3.91134         27.6885         2.33113 
        3.92704         27.3506         2.30838 
        3.94273           27.09         2.28596 
        3.95845         26.9383          2.2638 
        3.97418         26.6146         2.24192 
        3.98988         26.3876         2.22037 
        4.00554         26.1055         2.19916 
        4.02125         25.9337         2.17817 
        4.03698         25.7676         2.15743 
        4.05268         25.4747           2.137 
        4.06839         25.2257         2.11683 
         4.0841         25.0721         2.09692 
        4.09983         24.7403         2.07725 
        4.11555          24.564         2.05783 
        4.13124         24.4766         2.03872 
        4.14693          24.153         2.01984 
        4.16266         23.9449         2.00116 
        4.17839         23.8282         1.98272 
        4.19408         23.5218         1.96456 
        4.20977         23.3726         1.94662 
        4.22551          23.185         1.92887 
        4.24123         22.9585         1.91135 
        4.25691         22.7387          1.8941 
        4.27259         22.5797         1.87707 
        4.28831         22.3435          1.8602 
        4.30404         22.1633         1.84354 
        4.31974         21.9321         1.82711 
        4.33543         21.8262         1.81089 
        4.35116         21.5975         1.79484 
        4.36688         21.4512         1.77898 
        4.38255         21.2402         1.76338 
        4.39825         21.0958         1.74793 
        4.41398         20.9059         1.73264 
         4.4297         20.7296         1.71755 
        4.44541            20.5         1.70264 
        4.46111         20.3251         1.68793 
        4.47683         20.1825         1.67337 
        4.49251         20.0593         1.65902 
        4.50819         19.8932         1.64484 
         4.5239          19.702         1.63081 
        4.53962         19.5672         1.61693 
        4.55535         19.4046          1.6032 
        4.57106         19.2689         1.58966 
        4.58678          19.086         1.57626 
         4.6025         18.8538         1.56302 
        4.61821         18.7588         1.54994 
        4.63391         18.6079         1.53702 
         4.6496         18.4649         1.52426 
        4.66532          18.321         1.51162 
        4.68103         18.1578         1.49914 
        4.69673         18.0291          1.4868 
        4.71241         17.9269         1.47462 
        4.72811         17.7448         1.46256 
        4.74384         17.5682         1.45062 
        4.75955         17.4553         1.43883 
        4.77525         17.3149         1.42717 
        4.79096         17.1724         1.41564 
        4.80669         17.0147         1.40423 
         4.8224         16.8864         1.39295 
        4.83809           16.76         1.38182 
        4.85379         16.6338         1.37079 
         4.8695         16.5219         1.35989 
        4.88521         16.3562          1.3491 
        4.90093         16.2441         1.33843 
        4.91663          16.099         1.32789 
        4.93234         15.9507         1.31745 
        4.94807         15.8745         1.30712 
        4.96377         15.7516         1.29692 
        4.97943         15.6173         1.28684 
        4.99514         15.4864         1.27685 
        5.01086         15.4212         1.26696 
        5.02654         15.2455         1.25721 
        5.04227         15.1274         1.24752 
          5.058         15.0482         1.23793 
        5.07371         14.8902         1.22847 
        5.08942         14.8185          1.2191 
        5.10513         14.6955         1.20983 
        5.12084         14.5797         1.20065 
        5.13656          14.463         1.19157 
        5.15225         14.3483          1.1826 
        5.16796         14.2122         1.17371 
        5.18369         14.1215          1.1649 
         5.1994         14.0164          1.1562 
        5.21509         13.9202          1.1476 
        5.23079          13.823         1.13908 
        5.24649         13.7371         1.13065 
        5.26217         13.6082         1.12231 
        5.27788         13.4963         1.11404 
        5.29359         13.4014         1.10586 
        5.30933         13.3364         1.09774 
        5.32504         13.2227         1.08973 
        5.34073         13.1187          1.0818 
        5.35646         13.0228         1.07393 
        5.37218         12.9197         1.06615 
        5.38789         12.8108         1.05845 
        5.40357         12.7522         1.05084 
        5.41929          12.647         1.04329 
        5.43502         12.5559         1.03581 
         5.4507         12.4625         1.02842 
        5.46639         12.3478          1.0211 
        5.48212         12.2657         1.01384 
        5.49786         12.2141         1.00664 
        5.51353         12.0785        0.999551 
        5.52921          12.038         0.99252 
        5.54495          11.935        0.985537 
        5.56066         11.8501        0.978629 
        5.57637          11.758        0.971788 
        5.59207         11.6865         0.96502 
        5.60778         11.5825        0.958314 
        5.62346         11.4806        0.951681 
        5.63916         11.4045        0.945105 
        5.65487         11.3518        0.938589 
         5.6706         11.2586        0.932127 
        5.68633         11.1666        0.925723 
        5.70203         11.1051        0.919394 
        5.71773         11.0064        0.913125 
        5.73344         10.9517        0.906912 
        5.74916         10.8778        0.900751 
        5.76486         10.8125        0.894656 
        5.78054         10.7276        0.888628 
        5.79626         10.6634        0.882638 
          5.812         10.5658        0.876699 
         5.8277         10.4903        0.870831 
        5.84339         10.4006        0.865018 
        5.85911         10.3398        0.859247 
        5.87484         10.2748         0.85353 
        5.89053         10.1906        0.847876 
        5.90623          10.138        0.842272 
        5.92195         10.0771        0.836709 
        5.93767         10.0112          0.8312 
        5.95336         9.91825         0.82575 
        5.96905         9.86505        0.820351 
        5.98476         9.78939        0.814993 
        6.00048          9.7305        0.809681 
        6.01617         9.63653        0.804425 
        6.03185         9.60831        0.799221 
        6.04756          9.5223        0.794052 
        6.06331         9.48207        0.788918 
        6.07903         9.40367         0.78384 
        6.09473         9.33938        0.778811 
        6.11044         9.27708        0.773823 
        6.12616         9.22452         0.76888 
        6.14186         9.15171        0.763985 
        6.15755         9.10408        0.759133 
        6.17326          9.0392         0.75432 
        6.18898         8.97544        0.749547 
        6.20467         8.91103        0.744823 
        6.22036         8.84888        0.740142 
         6.2361         8.78696        0.735488 
         6.2518         8.75104        0.730882 
        6.26748         8.67689        0.726326 
        6.28319         8.64039        0.721796 
        6.29893         8.58301        0.717301 
        6.31463         8.50063        0.712853 
        6.33033         8.44735        0.708444 
        6.34604         8.41183        0.704069 
        6.36177         8.35339        0.699728 
        6.37747         8.29039        0.695431 
