# k  (h/Mpc)    Pcb(k)  (Mpc/h)^3    Pcb_linear(k) (Mpc/h)^3   ShotnoiseSubtracted = true
      0.0200456         2660.02         2696.84 
      0.0350414         1989.57         1955.37 
      0.0492313         1483.53         1483.46 
      0.0637834         1236.51         1261.12 
      0.0800726         940.875         955.999 
       0.096163         715.443         699.605 
       0.111083         613.105         598.396 
       0.126058         522.182          527.75 
       0.142273         419.881         419.543 
       0.158546         346.678         340.172 
        0.17375         313.785         306.116 
       0.188953         279.478         272.421 
       0.204907         229.757         228.996 
       0.220756         205.711         198.236 
        0.23588         186.571         180.946 
         0.2514         167.835          162.75 
       0.267535         152.566         142.409 
       0.283568         134.944         127.331 
       0.299022         125.965         116.851 
       0.314451         119.094         106.471 
       0.330372         105.083         95.9657 
       0.346141         96.6841         87.6259 
       0.361624         89.8699         80.9641 
       0.377134         82.2733          74.611 
       0.392932         79.4927         68.5247 
       0.408854         73.0345         63.3052 
       0.424564         69.9496         58.8591 
       0.440253         63.9634         54.7193 
       0.455999         58.5829         50.8829 
       0.471626         55.6779         47.5101 
        0.48727         54.1973         44.4863 
       0.502856         50.5319         41.7048 
       0.518488         47.5952         39.1279 
       0.534347         44.8977         36.7605 
       0.550082         43.2583         34.6184 
       0.565732         41.7025         32.6506 
       0.581496          39.154         30.8153 
       0.597222         37.1455         29.1329 
       0.612804         35.5787          27.595 
       0.628434         34.8921         26.1643 
       0.644267         33.0399         24.8186 
       0.660051          31.489         23.5717 
       0.675724         30.1143         22.4188 
       0.691403         29.5522         21.3431 
       0.707174         28.4306         20.3331 
       0.722871         27.4907         19.3933 
        0.73838         26.0978         18.5239 
       0.754018         24.8285          17.702 
       0.769845         24.2464         16.9217 
        0.78569         23.4894         16.1883 
       0.801365         22.6746         15.5061 
       0.817031         21.8719         14.8642 
       0.832809         21.2701          14.255 
       0.848511         20.6262          13.683 
       0.864097         19.9854         13.1468 
       0.879701           19.66         12.6391 
       0.895507         18.9371         12.1525 
       0.911279         18.2044         11.6929 
        0.92691         17.8656         11.2611 
       0.942635         17.4551          10.849 
       0.958396         16.8657         10.4569 
       0.974128         16.4698         10.0851 
       0.989692          15.771         9.73531 
        1.00528         15.6819          9.4018 
        1.02113          15.166         9.07888 
        1.03692         14.8367         8.77253 
        1.05264         14.5154         8.48191 
        1.06832         14.2074         8.20507 
        1.08405         13.8357         7.94002 
        1.09979         13.5134         7.68667 
        1.11537         13.1826         7.44703 
        1.13105         12.9656          7.2163 
        1.14679         12.6754         6.99459 
        1.16256         12.4003         6.78187 
        1.17828         12.1562         6.57882 
        1.19395         11.9459         6.38486 
         1.2097         11.5726         6.19783 
        1.22537         11.3933         6.01929 
          1.241         11.1191          5.8484 
        1.25666         11.0708          5.6838 
        1.27241         10.8297         5.52484 
        1.28819         10.4064         5.37176 
        1.30392         10.3807         5.22499 
        1.31957         10.1357         5.08442 
        1.33529         10.0057         4.94857 
        1.35108         9.80666          4.8172 
        1.36674         9.57981         4.69159 
         1.3824         9.47296         4.57063 
        1.39811         9.30623         4.45357 
        1.41389         9.10234         4.34022 
        1.42964         8.99476         4.23104 
        1.44531         8.83151          4.1262 
        1.46101         8.72903         4.02472 
        1.47667         8.55612           3.927 
        1.49229         8.35525         3.83282 
        1.50793         8.26544         3.74166 
        1.52367         8.12687          3.6529 
        1.53953         7.98553         3.56646 
        1.55526         7.91255         3.48354 
        1.57092         7.77568         3.40363 
        1.58662         7.65378         3.32606 
        1.60235         7.56379         3.25078 
        1.61809         7.45964         3.17782 
        1.63369         7.30963         3.10777 
        1.64941         7.20631         3.03936 
        1.66519         7.11634         2.97277 
        1.68085         7.00258         2.90868 
        1.69652         6.94143         2.84648 
        1.71228         6.86452         2.78576 
        1.72806          6.7284         2.72679 
        1.74368         6.67473         2.67013 
        1.75933         6.57742         2.61499 
        1.77505         6.45125         2.56116 
        1.79081         6.41354         2.50876 
         1.8065         6.35183         2.45807 
        1.82218         6.24873         2.40884 
        1.83797         6.14272         2.36064 
        1.85367         6.06441         2.31403 
        1.86928          6.0306         2.26898 
        1.88497         5.91673         2.22489 
        1.90073         5.85895         2.18182 
        1.91647         5.76604         2.13994 
        1.93218         5.71132         2.09926 
        1.94787         5.64073         2.05971 
        1.96363         5.58586         2.02103 
        1.97935         5.53885         1.98343 
        1.99499         5.46368         1.94701 
        2.01064          5.4055         1.91146 
         2.0264         5.33936         1.87658 
        2.04216         5.28586          1.8426 
        2.05781         5.21933         1.80968 
        2.07353         5.17828         1.77746 
        2.08928         5.08071         1.74596 
        2.10499         5.04389         1.71531 
        2.12065         5.05165          1.6855 
        2.13633         4.96999         1.65638 
        2.15211         4.88837         1.62777 
        2.16785         4.83493         1.59991 
        2.18349         4.81317         1.57289 
        2.19916         4.75808         1.54645 
        2.21489         4.70229         1.52052 
        2.23063         4.65033         1.49518 
         2.2463         4.60171         1.47054 
        2.26194         4.54658         1.44652 
        2.27765         4.48294         1.42292 
        2.29341         4.44166         1.39979 
        2.30914         4.41078         1.37722 
        2.32486         4.37612         1.35517 
        2.34061         4.33391         1.33357 
        2.35635         4.29461         1.31246 
        2.37203         4.26818         1.29189 
        2.38768         4.23459         1.27181 
        2.40339         4.16622         1.25208 
        2.41914         4.12967         1.23273 
        2.43483         4.08662         1.21386 
         2.4505         4.06031         1.19542 
        2.46622         4.02076          1.1773 
        2.48195         4.00022         1.15957 
        2.49759          3.9459         1.14229 
        2.51328         3.91558         1.12532 
        2.52906         3.87603          1.1086 
        2.54479         3.84675         1.09228 
        2.56049         3.81086         1.07632 
        2.57618         3.77908          1.0607 
        2.59189         3.77854         1.04537 
        2.60758         3.73191         1.03037 
        2.62325         3.67047         1.01568 
        2.63898         3.64648         1.00123 
        2.65468         3.61657        0.987096 
        2.67044         3.60977        0.973175 
        2.68618         3.57594        0.959557 
        2.70184         3.54206        0.946256 
        2.71755         3.50009        0.933177 
        2.73329         3.47768        0.920327 
        2.74897         3.44748        0.907762 
        2.76462         3.41422        0.895462 
        2.78034         3.40134        0.883341 
        2.79607         3.36561        0.871434 
        2.81179         3.33931        0.859762 
        2.82749          3.3053        0.848318 
        2.84321         3.28893        0.837072 
        2.85893          3.2538        0.826034 
        2.87462         3.23991        0.815216 
        2.89033         3.22147        0.804584 
        2.90605          3.1938        0.794133 
        2.92176         3.15871        0.783875 
        2.93747         3.13653        0.773805 
        2.95318         3.11383        0.763912 
        2.96891         3.10135        0.754188 
        2.98456           3.078        0.744678 
        3.00023         3.05798        0.735319 
        3.01596         3.02114        0.726093 
        3.03164         2.99961        0.717054 
        3.04738         2.98704        0.708143 
         3.0631         2.96444        0.699388 
        3.07883         2.94379        0.690781 
        3.09456         2.91223        0.682322 
        3.11026          2.8978        0.674019 
        3.12596         2.87811        0.665856 
        3.14163         2.86411        0.657848 
        3.15734         2.83814        0.649954 
        3.17308         2.82434        0.642172 
        3.18879         2.80536         0.63454 
        3.20447         2.77507        0.627043 
         3.2202         2.77384        0.619646 
         3.2359         2.75041        0.612382 
        3.25157         2.72486        0.605253 
        3.26729         2.70559        0.598216 
        3.28304         2.68901        0.591279 
        3.29877         2.66742        0.584461 
        3.31446          2.6543        0.577767 
        3.33014         2.63675        0.571184 
        3.34585         2.62116        0.564695 
        3.36158         2.59622        0.558297 
        3.37727         2.59142         0.55202 
        3.39294         2.56855        0.545845 
        3.40867         2.55887        0.539744 
        3.42439         2.53562         0.53374 
        3.44008         2.51923        0.527839 
        3.45578         2.50126        0.522024 
        3.47153         2.49253        0.516285 
        3.48724         2.47499        0.510643 
        3.50292         2.45257        0.505098 
        3.51859         2.44634         0.49964 
        3.53431           2.421        0.494246 
        3.55007         2.42029        0.488918 
        3.56577         2.39677        0.483691 
        3.58146         2.38661        0.478544 
        3.59719         2.37003        0.473459 
        3.61292          2.3557        0.468452 
        3.62859         2.34099        0.463535 
        3.64429         2.32696        0.458681 
        3.66003         2.31094        0.453882 
        3.67578         2.29897        0.449154 
        3.69146         2.27854        0.444511 
        3.70712         2.26573        0.439943 
        3.72284         2.25272        0.435423 
        3.73853         2.24563        0.430975 
        3.75422         2.22677        0.426587 
        3.76993         2.21052        0.422258 
        3.78564         2.19817         0.41799 
        3.80137         2.18519        0.413776 
        3.81707          2.1737        0.409628 
        3.83279         2.16792        0.405535 
        3.84853         2.14973        0.401491 
        3.86424         2.13373        0.397511 
        3.87992         2.12197        0.393591 
        3.89561          2.1071        0.389724 
        3.91134         2.10059        0.385902 
        3.92704          2.0847        0.382135 
        3.94273         2.07426        0.378423 
        3.95845         2.05842        0.374754 
        3.97418         2.05165        0.371133 
        3.98988         2.04264        0.367566 
        4.00554         2.02873        0.364055 
        4.02125         2.01503         0.36058 
        4.03698         2.00331        0.357146 
        4.05268         1.98847        0.353765 
        4.06839         1.97757        0.350425 
         4.0841         1.96166         0.34713 
        4.09983         1.94785        0.343872 
        4.11555         1.93937        0.340659 
        4.13124         1.92412        0.337495 
        4.14693         1.91257        0.334369 
        4.16266         1.90529        0.331276 
        4.17839         1.89156        0.328224 
        4.19408         1.88055        0.325218 
        4.20977         1.86842        0.322248 
        4.22551         1.86315        0.319309 
        4.24123         1.84525         0.31641 
        4.25691          1.8344        0.313555 
        4.27259         1.82144        0.310734 
        4.28831         1.81848        0.307943 
        4.30404         1.80115        0.305183 
        4.31974         1.78976        0.302464 
        4.33543         1.78156         0.29978 
        4.35116         1.77314        0.297122 
        4.36688         1.76131        0.294497 
        4.38255         1.75291        0.291914 
        4.39825         1.74235        0.289357 
        4.41398         1.73236        0.286826 
         4.4297         1.72113        0.284327 
        4.44541         1.70953         0.28186 
        4.46111         1.70138        0.279423 
        4.47683         1.69583        0.277014 
        4.49251         1.68409        0.274638 
        4.50819         1.67612        0.272292 
         4.5239          1.6651        0.269969 
        4.53962         1.65607        0.267671 
        4.55535         1.64902        0.265398 
        4.57106         1.64036        0.263156 
        4.58678         1.63368        0.260939 
         4.6025         1.62441        0.258747 
        4.61821         1.61906        0.256581 
        4.63391         1.60821        0.254443 
         4.6496         1.59687         0.25233 
        4.66532         1.59328        0.250238 
        4.68103         1.58259        0.248171 
        4.69673         1.57882        0.246129 
        4.71241         1.56836        0.244113 
        4.72811          1.5652        0.242116 
        4.74384         1.55497        0.240139 
        4.75955         1.55208        0.238187 
        4.77525          1.5381        0.236258 
        4.79096         1.52881        0.234348 
        4.80669         1.52692        0.232459 
         4.8224         1.52014        0.230593 
        4.83809         1.51313        0.228749 
        4.85379         1.50702        0.226925 
         4.8695         1.49464        0.225119 
        4.88521         1.49411        0.223333 
        4.90093         1.48791        0.221567 
        4.91663         1.47848        0.219822 
        4.93234         1.47418        0.218094 
        4.94807         1.46349        0.216383 
        4.96377         1.45952        0.214694 
        4.97943         1.45371        0.213027 
        4.99514         1.44928        0.211374 
        5.01086         1.43801        0.209736 
        5.02654         1.43291        0.208121 
        5.04227         1.42891        0.206518 
          5.058         1.42362        0.204931 
        5.07371         1.41748        0.203364 
        5.08942         1.41269        0.201813 
        5.10513         1.40834        0.200278 
        5.12084         1.39884        0.198759 
        5.13656         1.39323        0.197256 
        5.15225          1.3867        0.195771 
        5.16796         1.38274        0.194299 
        5.18369         1.37882        0.192841 
         5.1994         1.37374        0.191401 
        5.21509         1.36497        0.189977 
        5.23079         1.36149        0.188565 
        5.24649          1.3556         0.18717 
        5.26217         1.35223        0.185789 
        5.27788         1.34306        0.184421 
        5.29359         1.33861        0.183066 
        5.30933         1.33577        0.181723 
        5.32504         1.32864        0.180396 
        5.34073         1.32657        0.179083 
        5.35646          1.3193        0.177781 
        5.37218         1.31498        0.176492 
        5.38789         1.31196        0.175218 
        5.40357         1.30714        0.173958 
        5.41929         1.30532        0.172708 
        5.43502         1.29651         0.17147 
         5.4507         1.29094        0.170247 
        5.46639         1.28768        0.169036 
        5.48212         1.28173        0.167834 
        5.49786         1.27795        0.166642 
        5.51353         1.27489        0.165468 
        5.52921         1.26705        0.164304 
        5.54495          1.2656        0.163148 
        5.56066         1.26173        0.162005 
        5.57637         1.25807        0.160872 
        5.59207          1.2521        0.159752 
        5.60778         1.24825        0.158642 
        5.62346         1.24327        0.157544 
        5.63916         1.24117        0.156455 
        5.65487         1.23385        0.155376 
         5.6706         1.23252        0.154306 
        5.68633         1.22554        0.153246 
        5.70203         1.22651        0.152199 
        5.71773         1.21887        0.151161 
        5.73344         1.21388        0.150132 
        5.74916         1.21235        0.149112 
        5.76486         1.20488        0.148104 
        5.78054         1.20397        0.147106 
        5.79626         1.19981        0.146114 
          5.812         1.19583        0.145131 
         5.8277         1.19065        0.144159 
        5.84339         1.19087        0.143197 
        5.85911          1.1841        0.142242 
        5.87484         1.18159        0.141295 
        5.89053         1.17532        0.140359 
        5.90623         1.17421        0.139432 
        5.92195         1.17058        0.138511 
        5.93767         1.16594        0.137599 
        5.95336         1.15956        0.136697 
        5.96905         1.15733        0.135803 
        5.98476         1.15504        0.134916 
        6.00048         1.15175        0.134037 
        6.01617          1.1478        0.133166 
        6.03185         1.14465        0.132305 
        6.04756         1.14361        0.131449 
        6.06331         1.13749        0.130599 
        6.07903         1.13754        0.129759 
        6.09473         1.13161        0.128926 
        6.11044         1.12851        0.128101 
        6.12616          1.1246        0.127282 
        6.14186         1.12008        0.126472 
        6.15755         1.11697        0.125669 
        6.17326         1.11546        0.124872 
        6.18898         1.11238        0.124082 
        6.20467         1.10818          0.1233 
        6.22036         1.10446        0.122525 
         6.2361         1.10187        0.121754 
         6.2518         1.10059        0.120992 
        6.26748         1.09666        0.120238 
        6.28319         1.09372        0.119488 
        6.29893         1.08897        0.118744 
        6.31463         1.08636        0.118007 
        6.33033         1.08384        0.117277 
        6.34604         1.08094        0.116553 
        6.36177         1.07805        0.115835 
        6.37747         1.07439        0.115123 
