# k  (h/Mpc)    Pcb(k)  (Mpc/h)^3    Pcb_linear(k) (Mpc/h)^3   ShotnoiseSubtracted = true
      0.0200456         15928.4         16290.9 
      0.0350414         11373.2         11811.9 
      0.0492313         8799.12         8961.24 
      0.0637834         7710.24         7618.09 
      0.0800726         5878.51         5774.95 
       0.096163         4112.61         4226.14 
       0.111083         3458.95         3614.76 
       0.126058         3187.28            3188 
       0.142273         2649.73         2534.35 
       0.158546         2304.12          2054.9 
        0.17375         1904.34         1849.17 
       0.188953         1840.85         1645.63 
       0.204907         1701.12         1383.31 
       0.220756         1474.87          1197.5 
        0.23588         1322.39         1093.05 
         0.2514         1151.96         983.132 
       0.267535         1134.56         860.256 
       0.283568         1032.85         769.176 
       0.299022         974.359         705.867 
       0.314451         926.416         643.164 
       0.330372         853.388         579.705 
       0.346141         795.769         529.326 
       0.361624         765.718         489.084 
       0.377134         711.449         450.706 
       0.392932         685.186          413.94 
       0.408854         664.158         382.411 
       0.424564         622.727         355.553 
       0.440253         611.278         330.546 
       0.455999          579.42         307.371 
       0.471626         551.001         286.997 
        0.48727         532.554         268.731 
       0.502856         517.727         251.928 
       0.518488          512.12         236.362 
       0.534347         478.404         222.061 
       0.550082         459.783         209.121 
       0.565732         459.987         197.234 
       0.581496         432.545         186.147 
       0.597222         426.408         175.985 
       0.612804         414.496         166.695 
       0.628434         399.718         158.052 
       0.644267         389.228         149.923 
       0.660051         378.384         142.391 
       0.675724         374.796         135.426 
       0.691403         363.013         128.929 
       0.707174          350.38         122.827 
       0.722871         346.622          117.15 
        0.73838         341.541         111.898 
       0.754018         331.487         106.933 
       0.769845         321.544          102.22 
        0.78569         320.761         97.7895 
       0.801365         310.327         93.6686 
       0.817031          301.17         89.7909 
       0.832809         298.563         86.1107 
       0.848511         290.521         82.6557 
       0.864097         285.823         79.4163 
       0.879701         281.558         76.3494 
       0.895507         275.663         73.4102 
       0.911279         266.731         70.6336 
        0.92691          266.35         68.0254 
       0.942635         259.788          65.536 
       0.958396         256.138         63.1673 
       0.974128         251.194         60.9216 
       0.989692         246.316         58.8085 
        1.00528         243.157         56.7939 
        1.02113         240.838         54.8432 
        1.03692         234.992         52.9926 
        1.05264         230.867         51.2371 
        1.06832         226.478         49.5648 
        1.08405         222.652         47.9637 
        1.09979         220.186         46.4332 
        1.11537         215.595         44.9856 
        1.13105         211.123         43.5919 
        1.14679         211.285         42.2526 
        1.16256         207.147         40.9676 
        1.17828         202.979          39.741 
        1.19395         200.076         38.5693 
         1.2097         199.548         37.4396 
        1.22537         194.458          36.361 
          1.241         193.123         35.3287 
        1.25666         188.902         34.3344 
        1.27241         186.226         33.3742 
        1.28819         183.874         32.4494 
        1.30392         180.677         31.5629 
        1.31957         180.193         30.7137 
        1.33529         175.425         29.8931 
        1.35108         173.331         29.0995 
        1.36674         172.212         28.3407 
         1.3824         169.128           27.61 
        1.39811         168.874         26.9029 
        1.41389         165.029         26.2182 
        1.42964         161.961         25.5587 
        1.44531         159.851         24.9253 
        1.46101          158.27         24.3123 
        1.47667         154.934          23.722 
        1.49229          153.43         23.1531 
        1.50793         151.956         22.6024 
        1.52367         150.385         22.0663 
        1.53953         147.193         21.5441 
        1.55526         145.478         21.0432 
        1.57092         143.875         20.5605 
        1.58662          141.54         20.0919 
        1.60235         140.187         19.6371 
        1.61809         138.312         19.1964 
        1.63369         136.301         18.7733 
        1.64941         134.328           18.36 
        1.66519           132.7         17.9578 
        1.68085         131.637         17.5706 
        1.69652          128.59         17.1949 
        1.71228         128.052         16.8281 
        1.72806         126.254         16.4718 
        1.74368         125.241         16.1296 
        1.75933         123.175         15.7965 
        1.77505          121.45         15.4713 
        1.79081         120.429         15.1548 
         1.8065         118.732         14.8486 
        1.82218         116.596         14.5512 
        1.83797         115.101           14.26 
        1.85367         114.106         13.9785 
        1.86928         112.662         13.7063 
        1.88497         110.298           13.44 
        1.90073         109.792         13.1798 
        1.91647         108.179         12.9268 
        1.93218         107.078         12.6811 
        1.94787         105.748         12.4422 
        1.96363         104.468         12.2085 
        1.97935         102.546         11.9814 
        1.99499         101.904         11.7614 
        2.01064         100.621         11.5466 
         2.0264         99.1042          11.336 
        2.04216         98.4224         11.1307 
        2.05781         96.9027         10.9318 
        2.07353          95.671         10.7372 
        2.08928         94.4263         10.5469 
        2.10499         92.9474         10.3618 
        2.12065         92.5439         10.1817 
        2.13633         91.4133         10.0058 
        2.15211         90.2664         9.83293 
        2.16785         88.6238         9.66467 
        2.18349         87.5657         9.50145 
        2.19916         86.8469         9.34169 
        2.21489         85.7397          9.1851 
        2.23063         84.4168         9.03204 
         2.2463         83.7809         8.88318 
        2.26194         83.3857         8.73807 
        2.27765         81.7093          8.5955 
        2.29341          80.938         8.45576 
        2.30914         79.6232         8.31945 
        2.32486         79.0311         8.18624 
        2.34061         78.1511         8.05576 
        2.35635         76.9566         7.92826 
        2.37203         75.8082         7.80399 
        2.38768         75.1644         7.68266 
        2.40339         74.4488          7.5635 
        2.41914         73.3476         7.44661 
        2.43483         73.1265         7.33262 
         2.4505         71.9053         7.22123 
        2.46622         71.1669          7.1118 
        2.48195         70.2463         7.00464 
        2.49759         69.4795         6.90029 
        2.51328         68.7702          6.7978 
        2.52906         68.0548         6.69677 
        2.54479         67.3129         6.59819 
        2.56049         66.2701          6.5018 
        2.57618         65.7085         6.40744 
        2.59189         64.7019         6.31482 
        2.60758         64.1183         6.22419 
        2.62325         63.5194         6.13547 
        2.63898         62.7731         6.04819 
        2.65468         62.1499          5.9628 
        2.67044         61.2641         5.87871 
        2.68618         60.9802         5.79644 
        2.70184         60.2903          5.7161 
        2.71755         59.7395         5.63709 
        2.73329         58.7398         5.55946 
        2.74897         58.1842         5.48356 
        2.76462          57.532         5.40926 
        2.78034         56.8775         5.33604 
        2.79607         56.2855         5.26411 
        2.81179         55.5457          5.1936 
        2.82749         55.0823         5.12448 
        2.84321         54.4717         5.05654 
        2.85893         53.8332         4.98986 
        2.87462         53.1925         4.92452 
        2.89033         52.6909         4.86029 
        2.90605         52.0407         4.79716 
        2.92176         51.5984         4.73519 
        2.93747         51.0855         4.67436 
        2.95318         50.3142          4.6146 
        2.96891         49.6689         4.55586 
        2.98456         49.4057         4.49841 
        3.00023         48.6571         4.44188 
        3.01596         48.3744         4.38615 
        3.03164         47.7257         4.33154 
        3.04738         47.3448         4.27771 
         3.0631         46.8825         4.22482 
        3.07883         46.3998         4.17284 
        3.09456          46.029         4.12174 
        3.11026         45.3864         4.07158 
        3.12596          44.973         4.02227 
        3.14163         44.4472          3.9739 
        3.15734         43.8882         3.92621 
        3.17308         43.6451          3.8792 
        3.18879         43.2439          3.8331 
        3.20447         42.5058         3.78781 
         3.2202         42.2359         3.74313 
         3.2359         41.7998         3.69925 
        3.25157         41.4541         3.65618 
        3.26729         40.9295         3.61367 
        3.28304         40.3843         3.57177 
        3.29877         40.0896         3.53058 
        3.31446         39.7315         3.49014 
        3.33014         39.3843         3.45038 
        3.34585         39.0253         3.41118 
        3.36158         38.6359         3.37253 
        3.37727         38.1281         3.33461 
        3.39294         37.7976         3.29731 
        3.40867         37.3568         3.26046 
        3.42439         37.0286         3.22419 
        3.44008         36.7769         3.18854 
        3.45578         36.2654         3.15342 
        3.47153         35.9305         3.11875 
        3.48724         35.6628         3.08466 
        3.50292          35.396         3.05117 
        3.51859         34.8437          3.0182 
        3.53431         34.5877         2.98561 
        3.55007         34.2864         2.95343 
        3.56577         33.9732         2.92186 
        3.58146         33.5437         2.89076 
        3.59719         33.3306         2.86005 
        3.61292         33.0402          2.8298 
        3.62859         32.6533          2.8001 
        3.64429         32.3307         2.77078 
        3.66003         32.0599         2.74179 
        3.67578         31.7412         2.71322 
        3.69146         31.5432         2.68518 
        3.70712         31.1488         2.65759 
        3.72284          30.929         2.63028 
        3.73853          30.687         2.60341 
        3.75422         30.3406         2.57691 
        3.76993         30.1625         2.55075 
        3.78564         29.8214         2.52497 
        3.80137         29.5063         2.49951 
        3.81707         29.2384         2.47446 
        3.83279         29.0183         2.44973 
        3.84853          28.814         2.42531 
        3.86424         28.4938         2.40126 
        3.87992          28.249         2.37758 
        3.89561          27.963         2.35422 
        3.91134         27.6882         2.33113 
        3.92704         27.4328         2.30838 
        3.94273         27.2344         2.28596 
        3.95845         26.8241          2.2638 
        3.97418         26.7825         2.24192 
        3.98988         26.4606         2.22037 
        4.00554          26.209         2.19916 
        4.02125         26.0813         2.17817 
        4.03698         25.6787         2.15743 
        4.05268          25.592           2.137 
        4.06839         25.2979         2.11683 
         4.0841         25.1388         2.09692 
        4.09983         24.9328         2.07725 
        4.11555         24.7098         2.05783 
        4.13124         24.4682         2.03872 
        4.14693         24.2295         2.01984 
        4.16266         23.9749         2.00116 
        4.17839         23.8228         1.98272 
        4.19408         23.6286         1.96456 
        4.20977         23.3671         1.94662 
        4.22551          23.198         1.92887 
        4.24123         22.9441         1.91135 
        4.25691          22.758          1.8941 
        4.27259         22.5603         1.87707 
        4.28831         22.4062          1.8602 
        4.30404         22.1519         1.84354 
        4.31974         22.0658         1.82711 
        4.33543         21.8012         1.81089 
        4.35116         21.6746         1.79484 
        4.36688         21.4597         1.77898 
        4.38255         21.3145         1.76338 
        4.39825         21.1526         1.74793 
        4.41398         20.9523         1.73264 
         4.4297         20.7738         1.71755 
        4.44541         20.6227         1.70264 
        4.46111         20.4265         1.68793 
        4.47683          20.238         1.67337 
        4.49251         20.0891         1.65902 
        4.50819         19.9505         1.64484 
         4.5239         19.7576         1.63081 
        4.53962         19.6153         1.61693 
        4.55535         19.4413          1.6032 
        4.57106         19.2727         1.58966 
        4.58678         19.0874         1.57626 
         4.6025         18.9256         1.56302 
        4.61821         18.8176         1.54994 
        4.63391         18.6532         1.53702 
         4.6496         18.4878         1.52426 
        4.66532         18.3376         1.51162 
        4.68103         18.2005         1.49914 
        4.69673         18.0556          1.4868 
        4.71241         17.9369         1.47462 
        4.72811         17.7626         1.46256 
        4.74384         17.6268         1.45062 
        4.75955         17.4674         1.43883 
        4.77525         17.3436         1.42717 
        4.79096         17.2094         1.41564 
        4.80669         17.0963         1.40423 
         4.8224         16.9346         1.39295 
        4.83809         16.7689         1.38182 
        4.85379         16.6682         1.37079 
         4.8695         16.5689         1.35989 
        4.88521         16.4336          1.3491 
        4.90093         16.2747         1.33843 
        4.91663         16.1443         1.32789 
        4.93234         16.0267         1.31745 
        4.94807         15.9069         1.30712 
        4.96377          15.802         1.29692 
        4.97943         15.6739         1.28684 
        4.99514         15.5521         1.27685 
        5.01086          15.417         1.26696 
        5.02654         15.2925         1.25721 
        5.04227         15.1965         1.24752 
          5.058         15.0621         1.23793 
        5.07371         14.9608         1.22847 
        5.08942         14.8658          1.2191 
        5.10513         14.7375         1.20983 
        5.12084         14.6105         1.20065 
        5.13656         14.5129         1.19157 
        5.15225         14.3791          1.1826 
        5.16796         14.2479         1.17371 
        5.18369         14.1824          1.1649 
         5.1994         14.0913          1.1562 
        5.21509         13.9537          1.1476 
        5.23079         13.8549         1.13908 
        5.24649         13.7601         1.13065 
        5.26217         13.6649         1.12231 
        5.27788         13.5465         1.11404 
        5.29359         13.4524         1.10586 
        5.30933          13.333         1.09774 
        5.32504         13.2696         1.08973 
        5.34073         13.1556          1.0818 
        5.35646         13.0855         1.07393 
        5.37218         12.9621         1.06615 
        5.38789         12.8837         1.05845 
        5.40357         12.7955         1.05084 
        5.41929         12.6827         1.04329 
        5.43502         12.6049         1.03581 
         5.4507         12.4986         1.02842 
        5.46639         12.4086          1.0211 
        5.48212         12.3237         1.01384 
        5.49786         12.2346         1.00664 
        5.51353         12.1652        0.999551 
        5.52921         12.0602         0.99252 
        5.54495         11.9761        0.985537 
        5.56066         11.9005        0.978629 
        5.57637         11.7832        0.971788 
        5.59207         11.7173         0.96502 
        5.60778         11.6307        0.958314 
        5.62346         11.5635        0.951681 
        5.63916         11.4784        0.945105 
        5.65487         11.3782        0.938589 
         5.6706         11.3336        0.932127 
        5.68633         11.2188        0.925723 
        5.70203         11.1539        0.919394 
        5.71773         11.0683        0.913125 
        5.73344          10.999        0.906912 
        5.74916         10.9361        0.900751 
        5.76486         10.8509        0.894656 
        5.78054         10.7671        0.888628 
        5.79626         10.6755        0.882638 
          5.812         10.6133        0.876699 
         5.8277         10.5434        0.870831 
        5.84339         10.4702        0.865018 
        5.85911         10.3969        0.859247 
        5.87484         10.3298         0.85353 
        5.89053         10.2464        0.847876 
        5.90623         10.1879        0.842272 
        5.92195         10.1167        0.836709 
        5.93767         10.0304          0.8312 
        5.95336         9.95002         0.82575 
        5.96905         9.91375        0.820351 
        5.98476         9.84287        0.814993 
        6.00048         9.76052        0.809681 
        6.01617          9.7085        0.804425 
        6.03185         9.61892        0.799221 
        6.04756         9.57056        0.794052 
        6.06331         9.49642        0.788918 
        6.07903         9.44364         0.78384 
        6.09473         9.37119        0.778811 
        6.11044         9.31686        0.773823 
        6.12616         9.24928         0.76888 
        6.14186         9.18443        0.763985 
        6.15755         9.14978        0.759133 
        6.17326         9.07028         0.75432 
        6.18898         9.00035        0.749547 
        6.20467         8.94874        0.744823 
        6.22036         8.87831        0.740142 
         6.2361         8.82709        0.735488 
         6.2518         8.76221        0.730882 
        6.26748         8.72164        0.726326 
        6.28319         8.65601        0.721796 
        6.29893          8.5938        0.717301 
        6.31463         8.52863        0.712853 
        6.33033         8.49797        0.708444 
        6.34604          8.4263        0.704069 
        6.36177         8.37589        0.699728 
        6.37747         8.32942        0.695431 
