# k  (h/Mpc)    Pcb(k)  (Mpc/h)^3    Pcb_linear(k) (Mpc/h)^3   ShotnoiseSubtracted = true
      0.0200456         22512.8         22935.4 
      0.0350414         17165.3         16629.6 
      0.0492313         12290.5         12616.2 
      0.0637834         10087.5         10725.2 
      0.0800726         7643.22         8130.35 
       0.096163         6180.57         5949.83 
       0.111083         5289.79          5089.1 
       0.126058         4360.51         4488.28 
       0.142273         3701.22         3568.03 
       0.158546         3078.24         2893.01 
        0.17375         2828.04         2603.38 
       0.188953         2673.42         2316.82 
       0.204907         2279.25         1947.51 
       0.220756         2072.34         1685.91 
        0.23588         1870.05         1538.86 
         0.2514          1697.9         1384.12 
       0.267535         1632.27         1211.12 
       0.283568         1462.23         1082.89 
       0.299022         1399.28         993.765 
       0.314451         1457.43         905.487 
       0.330372         1296.85         816.146 
       0.346141         1193.12          745.22 
       0.361624         1146.57         688.564 
       0.377134         1101.15         634.533 
       0.392932         1050.54         582.772 
       0.408854         1009.21         538.382 
       0.424564         990.066          500.57 
       0.440253         922.175         465.363 
       0.455999         883.302         432.736 
       0.471626          897.22         404.053 
        0.48727         848.996         378.336 
       0.502856         818.358         354.681 
       0.518488          793.96         332.765 
       0.534347         763.988         312.631 
       0.550082         730.314         294.414 
       0.565732         719.303         277.679 
       0.581496         704.419          262.07 
       0.597222         691.448         247.763 
       0.612804         675.825         234.683 
       0.628434         649.133         222.516 
       0.644267          631.79         211.071 
       0.660051         625.537         200.467 
       0.675724          613.22         190.662 
       0.691403         595.224         181.514 
       0.707174         578.293         172.924 
       0.722871         572.503         164.932 
        0.73838         560.963         157.538 
       0.754018         548.786         150.548 
       0.769845         541.084         143.911 
        0.78569         529.621         137.674 
       0.801365         512.847         131.873 
       0.817031           508.3         126.413 
       0.832809         501.047         121.232 
       0.848511         492.532         116.368 
       0.864097          483.46         111.807 
       0.879701         482.645          107.49 
       0.895507          463.58         103.352 
       0.911279         458.745         99.4425 
        0.92691         452.635         95.7705 
       0.942635         448.161         92.2657 
       0.958396         434.184          88.931 
       0.974128         428.708         85.7693 
       0.989692          416.63         82.7944 
        1.00528         413.293         79.9581 
        1.02113         406.213         77.2119 
        1.03692         400.734         74.6065 
        1.05264         394.582         72.1348 
        1.06832         386.362         69.7805 
        1.08405         385.436         67.5263 
        1.09979         377.019         65.3717 
        1.11537         366.985         63.3337 
        1.13105          364.11         61.3714 
        1.14679         357.476         59.4859 
        1.16256         355.521         57.6768 
        1.17828         349.768         55.9499 
        1.19395         341.309         54.3004 
         1.2097         339.142         52.7098 
        1.22537         333.501         51.1914 
          1.241         327.612         49.7381 
        1.25666         323.819         48.3382 
        1.27241         319.726         46.9863 
        1.28819         311.982         45.6844 
        1.30392         312.109         44.4362 
        1.31957         303.907         43.2408 
        1.33529         299.791         42.0854 
        1.35108         298.172         40.9681 
        1.36674         290.593         39.8999 
         1.3824         287.972         38.8711 
        1.39811         284.127         37.8757 
        1.41389         277.988         36.9116 
        1.42964         274.861         35.9831 
        1.44531         270.926         35.0915 
        1.46101         266.465         34.2285 
        1.47667         263.847         33.3974 
        1.49229         260.038         32.5964 
        1.50793         256.178         31.8211 
        1.52367          252.73         31.0663 
        1.53953         248.086         30.3312 
        1.55526         245.929          29.626 
        1.57092         243.567         28.9463 
        1.58662         238.456         28.2866 
        1.60235         235.667         27.6464 
        1.61809           233.6         27.0259 
        1.63369         229.308         26.4302 
        1.64941           226.4         25.8484 
        1.66519         223.093         25.2821 
        1.68085          219.32          24.737 
        1.69652         217.185          24.208 
        1.71228         214.078         23.6917 
        1.72806         211.277         23.1901 
        1.74368         208.924         22.7083 
        1.75933          207.62         22.2393 
        1.77505         204.301         21.7815 
        1.79081         200.889         21.3359 
         1.8065         199.407         20.9048 
        1.82218         194.942         20.4861 
        1.83797         193.294         20.0762 
        1.85367         190.754         19.6798 
        1.86928         187.633         19.2966 
        1.88497         185.977         18.9217 
        1.90073         184.358         18.5554 
        1.91647         180.489         18.1992 
        1.93218         178.519         17.8533 
        1.94787         175.985         17.5169 
        1.96363         174.865         17.1879 
        1.97935         173.071         16.8682 
        1.99499         170.536         16.5584 
        2.01064         166.712         16.2561 
         2.0264         166.312         15.9595 
        2.04216         163.537         15.6705 
        2.05781         161.106         15.3906 
        2.07353         160.215         15.1165 
        2.08928         158.042         14.8486 
        2.10499         156.078          14.588 
        2.12065         154.296         14.3345 
        2.13633         152.173         14.0868 
        2.15211         149.878         13.8434 
        2.16785         148.555         13.6066 
        2.18349           146.8         13.3768 
        2.19916         144.625         13.1518 
        2.21489         143.201         12.9314 
        2.23063         141.554         12.7159 
         2.2463         139.531         12.5063 
        2.26194         138.198          12.302 
        2.27765         136.019         12.1013 
        2.29341         135.059         11.9046 
        2.30914          133.56         11.7127 
        2.32486         131.089         11.5251 
        2.34061         129.667         11.3414 
        2.35635         128.907         11.1619 
        2.37203         126.942          10.987 
        2.38768         125.925         10.8161 
        2.40339         123.529         10.6484 
        2.41914         122.341         10.4838 
        2.43483         121.153         10.3233 
         2.4505         119.822         10.1665 
        2.46622         117.952         10.0124 
        2.48195          116.98         9.86159 
        2.49759         115.005         9.71467 
        2.51328          113.91         9.57039 
        2.52906         112.965         9.42815 
        2.54479          111.55         9.28936 
        2.56049         110.233         9.15365 
        2.57618         108.835          9.0208 
        2.59189         108.152         8.89041 
        2.60758         106.466         8.76282 
        2.62325          105.66         8.63791 
        2.63898         104.455         8.51503 
        2.65468         103.162         8.39481 
        2.67044          102.27         8.27642 
        2.68618         100.686         8.16061 
        2.70184         99.7015         8.04749 
        2.71755         98.9057         7.93625 
        2.73329         97.2749         7.82697 
        2.74897         96.4562         7.72011 
        2.76462         95.9297         7.61551 
        2.78034         94.4107         7.51242 
        2.79607         93.2195         7.41116 
        2.81179         92.5373         7.31189 
        2.82749         91.6383         7.21457 
        2.84321          90.285         7.11892 
        2.85893          88.877         7.02505 
        2.87462         88.5084         6.93305 
        2.89033         87.3493         6.84263 
        2.90605         86.4381         6.75375 
        2.92176         85.7843         6.66651 
        2.93747         84.8907         6.58087 
        2.95318         83.5556         6.49673 
        2.96891         83.0665         6.41403 
        2.98456         81.9634         6.33315 
        3.00023         81.1507         6.25356 
        3.01596         80.4924          6.1751 
        3.03164         79.4758         6.09822 
        3.04738         79.0875         6.02244 
         3.0631         77.9168         5.94798 
        3.07883         77.2341         5.87479 
        3.09456         76.2657         5.80285 
        3.11026          75.691         5.73223 
        3.12596         74.7429         5.66281 
        3.14163         74.0723         5.59471 
        3.15734          73.163         5.52757 
        3.17308         72.6517         5.46139 
        3.18879         71.7916         5.39648 
        3.20447         71.0926         5.33273 
         3.2202         70.0251         5.26981 
         3.2359         69.5374         5.20804 
        3.25157         68.9301         5.14741 
        3.26729         68.1753         5.08756 
        3.28304         67.2792         5.02856 
        3.29877         66.7745         4.97058 
        3.31446         65.9344         4.91365 
        3.33014         65.4603         4.85767 
        3.34585         64.8322         4.80248 
        3.36158         64.4111         4.74807 
        3.37727         63.6813         4.69468 
        3.39294         63.0587         4.64217 
        3.40867         62.4421         4.59028 
        3.42439         61.7849         4.53922 
        3.44008         61.1202         4.48904 
        3.45578         60.6488         4.43958 
        3.47153         60.0677         4.39077 
        3.48724         59.6206         4.34279 
        3.50292         58.8692         4.29564 
        3.51859         58.5244         4.24921 
        3.53431         57.7533         4.20334 
        3.55007          57.107         4.15803 
        3.56577          56.488         4.11358 
        3.58146         55.9563          4.0698 
        3.59719         55.4962         4.02656 
        3.61292         54.8477         3.98397 
        3.62859          54.439         3.94216 
        3.64429         54.0722         3.90088 
        3.66003         53.4593         3.86006 
        3.67578         52.8456         3.81985 
        3.69146         52.4554         3.78037 
        3.70712           52.04         3.74152 
        3.72284         51.5451         3.70308 
        3.73853         51.1285         3.66525 
        3.75422         50.6024         3.62793 
        3.76993         50.2807         3.59111 
        3.78564         49.7404         3.55482 
        3.80137         49.2398         3.51898 
        3.81707         48.7464         3.48371 
        3.83279         48.2863         3.44889 
        3.84853         47.8296          3.4145 
        3.86424         47.3689         3.38065 
        3.87992          46.956         3.34731 
        3.89561         46.6511         3.31443 
        3.91134         46.1256         3.28192 
        3.92704         45.7454         3.24989 
        3.94273         45.3238         3.21832 
        3.95845         44.8749         3.18712 
        3.97418         44.5309         3.15632 
        3.98988         44.1117         3.12598 
        4.00554         43.5755         3.09612 
        4.02125         43.3999         3.06657 
        4.03698         42.8744         3.03737 
        4.05268         42.6617         3.00861 
        4.06839         42.2182         2.98021 
         4.0841         41.8924         2.95218 
        4.09983         41.4817         2.92448 
        4.11555         41.1601         2.89715 
        4.13124         40.7102         2.87024 
        4.14693         40.4565         2.84366 
        4.16266         40.0809         2.81735 
        4.17839         39.6203          2.7914 
        4.19408         39.3631         2.76583 
        4.20977         39.0043         2.74058 
        4.22551         38.7422         2.71558 
        4.24123         38.4307         2.69092 
        4.25691         37.9946         2.66664 
        4.27259         37.7465         2.64265 
        4.28831         37.4128         2.61892 
        4.30404         37.1601         2.59545 
        4.31974         36.8196         2.57232 
        4.33543         36.3896         2.54949 
        4.35116         36.0891         2.52689 
        4.36688         35.7851         2.50457 
        4.38255          35.626          2.4826 
        4.39825         35.2864         2.46085 
        4.41398         34.9551         2.43932 
         4.4297         34.6637         2.41808 
        4.44541         34.4352         2.39709 
        4.46111         34.0728         2.37637 
        4.47683         33.8834         2.35588 
        4.49251         33.5988         2.33568 
        4.50819         33.2539         2.31572 
         4.5239         32.9273         2.29596 
        4.53962         32.6886         2.27642 
        4.55535         32.3741         2.25709 
        4.57106         32.0987         2.23802 
        4.58678          31.941         2.21917 
         4.6025         31.6684         2.20053 
        4.61821         31.4115         2.18211 
        4.63391         31.1475         2.16392 
         4.6496         30.8708         2.14595 
        4.66532         30.6807         2.12816 
        4.68103         30.3291         2.11058 
        4.69673         30.2027         2.09322 
        4.71241         29.8917         2.07607 
        4.72811         29.7158         2.05909 
        4.74384         29.5578         2.04227 
        4.75955         29.2947         2.02567 
        4.77525         28.9476         2.00927 
        4.79096         28.7653         1.99303 
        4.80669         28.5395         1.97696 
         4.8224         28.3697         1.96109 
        4.83809         28.0472         1.94541 
        4.85379         27.9447         1.92989 
         4.8695         27.6895         1.91453 
        4.88521         27.3998         1.89935 
        4.90093         27.2269         1.88433 
        4.91663         27.0664         1.86949 
        4.93234         26.7594         1.85479 
        4.94807         26.5502         1.84024 
        4.96377         26.3678         1.82588 
        4.97943         26.2362          1.8117 
        4.99514          26.037         1.79764 
        5.01086         25.8218         1.78371 
        5.02654          25.575         1.76997 
        5.04227         25.4013         1.75634 
          5.058         25.2014         1.74284 
        5.07371         24.9857         1.72952 
        5.08942         24.8236         1.71633 
        5.10513          24.656         1.70328 
        5.12084         24.4606         1.69036 
        5.13656         24.2704         1.67757 
        5.15225         24.1108         1.66494 
        5.16796         23.9168         1.65243 
        5.18369          23.692         1.64003 
         5.1994         23.5307         1.62778 
        5.21509         23.3489         1.61567 
        5.23079         23.1819         1.60366 
        5.24649         23.0139          1.5918 
        5.26217          22.811         1.58005 
        5.27788         22.7029         1.56842 
        5.29359         22.4787         1.55689 
        5.30933         22.3239         1.54547 
        5.32504         22.1602         1.53419 
        5.34073         21.9967         1.52302 
        5.35646         21.8175         1.51195 
        5.37218          21.693         1.50099 
        5.38789         21.5115         1.49015 
        5.40357         21.3392         1.47944 
        5.41929         21.2349          1.4688 
        5.43502         21.0723         1.45827 
         5.4507         20.9017         1.44787 
        5.46639         20.7241         1.43757 
        5.48212         20.5976         1.42735 
        5.49786         20.4557         1.41722 
        5.51353         20.2869         1.40723 
        5.52921         20.1495         1.39733 
        5.54495         20.0415          1.3875 
        5.56066          19.847         1.37778 
        5.57637         19.7004         1.36815 
        5.59207         19.6024         1.35862 
        5.60778          19.495         1.34918 
        5.62346         19.3151         1.33984 
        5.63916          19.151         1.33058 
        5.65487         18.9923         1.32141 
         5.6706         18.8922         1.31231 
        5.68633         18.7965         1.30329 
        5.70203         18.6308         1.29438 
        5.71773         18.5147         1.28556 
        5.73344         18.3609         1.27681 
        5.74916         18.2481         1.26814 
        5.76486         18.1146         1.25955 
        5.78054         17.9663         1.25107 
        5.79626         17.8872         1.24263 
          5.812         17.7258         1.23427 
         5.8277         17.6088         1.22601 
        5.84339         17.4768         1.21783 
        5.85911          17.386          1.2097 
        5.87484         17.2371         1.20165 
        5.89053         17.1142         1.19369 
        5.90623         16.9929          1.1858 
        5.92195         16.8898         1.17797 
        5.93767         16.7853         1.17022 
        5.95336         16.6369         1.16254 
        5.96905         16.5293         1.15494 
        5.98476         16.4427          1.1474 
        6.00048         16.2794         1.13992 
        6.01617         16.2159         1.13252 
        6.03185          16.095          1.1252 
        6.04756         16.0026         1.11792 
        6.06331         15.8922         1.11069 
        6.07903         15.7507         1.10354 
        6.09473         15.6269         1.09646 
        6.11044         15.5563         1.08944 
        6.12616          15.458         1.08248 
        6.14186         15.3444         1.07559 
        6.15755         15.2424         1.06876 
        6.17326         15.1369         1.06198 
        6.18898          15.024         1.05526 
        6.20467         14.9211         1.04861 
        6.22036         14.8233         1.04202 
         6.2361          14.722         1.03547 
         6.2518         14.6164         1.02898 
        6.26748          14.537         1.02257 
        6.28319         14.4521         1.01619 
        6.29893         14.3613         1.00986 
        6.31463         14.2458          1.0036 
        6.33033         14.1771        0.997393 
        6.34604         14.0562        0.991234 
        6.36177         13.9793        0.985122 
        6.37747         13.8646        0.979073 
