# k  (h/Mpc)    Pcb(k)  (Mpc/h)^3    Pcb_linear(k) (Mpc/h)^3   ShotnoiseSubtracted = true
      0.0200456         18276.1         18548.1 
      0.0350414         12038.4         11565.9 
      0.0492313         7530.14         7570.41 
      0.0637834         5978.69         6170.76 
      0.0800726         4662.39         4877.93 
       0.096163         3528.41         3311.38 
       0.111083          2723.6         2490.93 
       0.126058         2265.85         2227.62 
       0.142273         1985.59         1921.64 
       0.158546         1587.26         1461.64 
        0.17375         1359.16         1175.77 
       0.188953         1270.56         1066.02 
       0.204907         1087.57         963.627 
       0.220756         972.028         804.166 
        0.23588          853.21         675.916 
         0.2514         757.695         607.991 
       0.267535         734.775         557.916 
       0.283568         641.836         491.337 
       0.299022           607.9         428.848 
       0.314451          621.05         387.021 
       0.330372         530.642         356.649 
       0.346141         488.338         324.507 
       0.361624         465.094         292.002 
       0.377134         438.819         265.749 
       0.392932         419.093         245.517 
       0.408854         400.132         226.651 
       0.424564         387.006          208.02 
       0.440253         350.851         191.427 
       0.455999          333.92         177.686 
       0.471626         337.819         165.629 
        0.48727         316.957         154.077 
       0.502856         295.166          143.41 
       0.518488         292.157         133.987 
       0.534347         274.598         125.499 
       0.550082         262.355         117.693 
       0.565732         260.792         110.439 
       0.581496         249.379         103.783 
       0.597222         242.042         97.7722 
       0.612804         234.044         92.2864 
       0.628434         226.543         87.1632 
       0.644267         216.392         82.3485 
       0.660051         213.872         77.9368 
       0.675724         208.648         73.8884 
       0.691403         204.522          70.122 
       0.707174          196.73         66.5942 
       0.722871         193.174         63.3204 
        0.73838         190.253         60.2995 
       0.754018         182.366         57.4512 
       0.769845         182.517         54.7545 
        0.78569         176.356         52.2272 
       0.801365         170.797         49.8834 
       0.817031         169.329         47.6846 
       0.832809         165.219         45.6044 
       0.848511         161.369         43.6577 
       0.864097         156.738         41.8381 
       0.879701         156.421         40.1206 
       0.895507         152.814         38.4795 
       0.911279         148.725         36.9336 
        0.92691         145.675         35.4854 
       0.942635         144.307          34.107 
       0.958396         141.016         32.7989 
       0.974128         139.146         31.5618 
       0.989692         134.311         30.4007 
        1.00528         134.153         29.2963 
        1.02113         131.346         28.2294 
        1.03692         128.782         27.2195 
        1.05264         126.366         26.2636 
        1.06832          125.73         25.3551 
        1.08405         122.583          24.487 
        1.09979         121.318         23.6591 
        1.11537         119.762         22.8775 
        1.13105         117.431         22.1266 
        1.14679         116.195         21.4064 
        1.16256         113.601         20.7168 
        1.17828         112.774         20.0599 
        1.19395          110.41         19.4336 
         1.2097         109.397         18.8308 
        1.22537         108.325         18.2565 
          1.241          105.35         17.7078 
        1.25666         104.473         17.1802 
        1.27241         102.206         16.6717 
        1.28819         101.456         16.1828 
        1.30392         100.332          15.715 
        1.31957         98.4848         15.2677 
        1.33529         96.6685         14.8362 
        1.35108         95.9358         14.4196 
        1.36674         94.4432         14.0219 
         1.3824         93.5757         13.6396 
        1.39811         92.4076         13.2703 
        1.41389         90.7401         12.9131 
        1.42964         89.3492         12.5698 
        1.44531         88.6747         12.2405 
        1.46101         87.0113         11.9223 
        1.47667         86.7997         11.6164 
        1.49229         85.7246          11.322 
        1.50793         84.3119         11.0374 
        1.52367         83.1933         10.7608 
        1.53953         82.4781         10.4918 
        1.55526         81.4006         10.2341 
        1.57092         80.7707         9.98611 
        1.58662         79.4932         9.74573 
        1.60235         78.6729         9.51278 
        1.61809         77.7236          9.2873 
        1.63369         76.5345         9.07112 
        1.64941          76.483         8.86026 
        1.66519         75.2142         8.65533 
        1.68085         73.9298         8.45831 
        1.69652         73.1019         8.26736 
        1.71228         72.0505          8.0812 
        1.72806         71.9993         7.90062 
        1.74368         70.5386         7.72735 
        1.75933         69.8642         7.55891 
        1.77505         69.4087          7.3947 
        1.79081         68.2196         7.23506 
         1.8065         67.4169         7.08081 
        1.82218         66.8953         6.93117 
        1.83797         66.3869         6.78483 
        1.85367         65.1738          6.6435 
        1.86928         64.7486         6.50704 
        1.88497         63.9037         6.37366 
        1.90073         63.2848         6.24351 
        1.91647         62.5993         6.11711 
        1.93218         61.8047         5.99446 
        1.94787         61.0485         5.87534 
        1.96363         60.3144         5.75898 
        1.97935         59.8612         5.64601 
        1.99499         59.2542         5.53669 
        2.01064         58.4586          5.4301 
         2.0264         57.7692         5.32564 
        2.04216         57.1096         5.22397 
        2.05781         56.5132         5.12559 
        2.07353         55.9668         5.02938 
        2.08928         55.6132         4.93542 
        2.10499         54.6456         4.84411 
        2.12065         54.4789         4.75538 
        2.13633         53.6021         4.66879 
        2.15211         53.0139         4.58378 
        2.16785         52.2037         4.50113 
        2.18349         51.8938         4.42102 
        2.19916          51.388         4.34269 
        2.21489         50.7641         4.26599 
        2.23063         50.1047         4.19109 
         2.2463         49.9073         4.11831 
        2.26194         49.4543         4.04744 
        2.27765         48.7504         3.97787 
        2.29341         48.3166         3.90974 
        2.30914         47.5679         3.84335 
        2.32486         47.3716         3.77853 
        2.34061         46.6794         3.71509 
        2.35635         46.3915         3.65316 
        2.37203         45.6031         3.59285 
        2.38768         45.4107         3.53403 
        2.40339         44.8775          3.4763 
        2.41914         44.1398         3.41972 
        2.43483         44.0938          3.3646 
         2.4505         43.7104         3.31078 
        2.46622         43.0813         3.25795 
        2.48195         42.5806         3.20627 
        2.49759         42.1814         3.15597 
        2.51328         41.7902         3.10662 
        2.52906         41.5316         3.05801 
        2.54479         41.0209         3.01062 
        2.56049         40.3366         2.96432 
        2.57618         40.0925         2.91903 
        2.59189         39.8056         2.87462 
        2.60758         39.2901         2.83119 
        2.62325         39.0091         2.78872 
        2.63898         38.6316         2.74696 
        2.65468         38.3151         2.70614 
        2.67044          37.958         2.66597 
        2.68618         37.6216         2.62671 
        2.70184         37.0285          2.5884 
        2.71755         36.7256         2.55074 
        2.73329         36.3916         2.51378 
        2.74897         36.1015         2.47767 
        2.76462         35.8525         2.44234 
        2.78034         35.3938         2.40756 
        2.79607         34.8796         2.37341 
        2.81179         34.5252         2.33996 
        2.82749         34.3257         2.30719 
        2.84321          34.069         2.27501 
        2.85893         33.5977         2.24345 
        2.87462         33.2537         2.21254 
        2.89033         32.9048         2.18218 
        2.90605         32.6746         2.15237 
        2.92176         32.3495         2.12312 
        2.93747         32.0544         2.09443 
        2.95318         31.7951         2.06626 
        2.96891         31.4441          2.0386 
        2.98456         31.2639         2.01156 
        3.00023         30.9899         1.98497 
        3.01596          30.602         1.95878 
        3.03164         30.3172         1.93313 
        3.04738         30.0197         1.90787 
         3.0631         29.8175         1.88306 
        3.07883         29.4692         1.85869 
        3.09456         29.1555         1.83476 
        3.11026          28.774         1.81128 
        3.12596         28.6364         1.78821 
        3.14163         28.4074          1.7656 
        3.15734         28.1201         1.74332 
        3.17308         27.8833         1.72137 
        3.18879         27.6106         1.69986 
        3.20447         27.2458         1.67875 
         3.2202          27.093         1.65793 
         3.2359         26.9066         1.63749 
        3.25157         26.5583         1.61745 
        3.26729         26.3167         1.59768 
        3.28304         26.0626          1.5782 
        3.29877         25.8174         1.55907 
        3.31446         25.5294          1.5403 
        3.33014         25.3505         1.52185 
        3.34585          25.159         1.50368 
        3.36158         24.9047         1.48577 
        3.37727         24.7349         1.46821 
        3.39294         24.4573         1.45095 
        3.40867         24.2501          1.4339 
        3.42439         24.0648         1.41714 
        3.44008         23.8538         1.40067 
        3.45578         23.6241         1.38446 
        3.47153         23.4534         1.36846 
        3.48724         23.1855         1.35274 
        3.50292         23.0061         1.33731 
        3.51859         22.8046         1.32212 
        3.53431         22.5409         1.30712 
        3.55007         22.3158         1.29232 
        3.56577         22.1893          1.2778 
        3.58146         21.9112         1.26351 
        3.59719         21.7933          1.2494 
        3.61292         21.6159         1.23552 
        3.62859         21.3846         1.22189 
        3.64429         21.1538         1.20845 
        3.66003         21.0357         1.19516 
        3.67578         20.8254         1.18208 
        3.69146         20.6755         1.16924 
        3.70712         20.4649         1.15662 
        3.72284         20.3327         1.14413 
        3.73853         20.1684         1.13185 
        3.75422         19.9557         1.11975 
        3.76993         19.8029         1.10781 
        3.78564          19.572         1.09605 
        3.80137         19.4443         1.08444 
        3.81707         19.2472         1.07302 
        3.83279         19.0315         1.06176 
        3.84853         18.9731         1.05064 
        3.86424         18.7638          1.0397 
        3.87992         18.5685         1.02893 
        3.89561         18.4686         1.01831 
        3.91134         18.3202         1.00782 
        3.92704         18.1472        0.997486 
        3.94273         17.9616        0.987309 
        3.95845         17.8096        0.977255 
        3.97418          17.694        0.967338 
        3.98988         17.5124        0.957572 
        4.00554         17.4053        0.947966 
        4.02125         17.2152        0.938465 
        4.03698         17.0797        0.929078 
        4.05268         16.8829         0.91984 
        4.06839         16.7936         0.91072 
         4.0841         16.6785        0.901727 
        4.09983         16.5306        0.892841 
        4.11555         16.3999        0.884079 
        4.13124         16.2289        0.875457 
        4.14693         16.1348        0.866943 
        4.16266         15.9809        0.858522 
        4.17839         15.8613        0.850217 
        4.19408         15.7196         0.84204 
        4.20977         15.5918        0.833967 
        4.22551         15.4406         0.82598 
        4.24123           15.32        0.818106 
        4.25691         15.1747        0.810355 
        4.27259         15.0755        0.802701 
        4.28831         14.9281        0.795131 
        4.30404         14.8605         0.78765 
        4.31974         14.7005        0.780282 
        4.33543         14.6171        0.773011 
        4.35116         14.4872        0.765816 
        4.36688         14.3769        0.758714 
        4.38255         14.2459        0.751729 
        4.39825         14.1408        0.744815 
        4.41398          14.037        0.737975 
         4.4297          13.899        0.731228 
        4.44541          13.777        0.724565 
        4.46111         13.6796        0.717991 
        4.47683         13.5483        0.711492 
        4.49251         13.4867        0.705088 
        4.50819          13.361        0.698763 
         4.5239         13.2541        0.692506 
        4.53962         13.1522        0.686318 
        4.55535         13.0745        0.680202 
        4.57106         12.9368         0.67417 
        4.58678         12.8561        0.668208 
         4.6025         12.7618        0.662317 
        4.61821         12.6577        0.656498 
        4.63391         12.5155        0.650756 
         4.6496          12.434        0.645085 
        4.66532         12.3599        0.639472 
        4.68103         12.2639        0.633928 
        4.69673         12.1695        0.628455 
        4.71241         12.0869        0.623051 
        4.72811         11.9813        0.617702 
        4.74384         11.8908        0.612409 
        4.75955          11.783        0.607186 
        4.77525         11.6757        0.602026 
        4.79096         11.6159        0.596919 
        4.80669         11.5132        0.591869 
         4.8224         11.4536        0.586883 
        4.83809         11.3423        0.581959 
        4.85379         11.2928        0.577088 
         4.8695         11.1729        0.572269 
        4.88521         11.1046        0.567507 
        4.90093         11.0062        0.562798 
        4.91663         10.9454        0.558147 
        4.93234         10.8714        0.553543 
        4.94807         10.7716        0.548987 
        4.96377         10.6917        0.544491 
        4.97943         10.6238        0.540055 
        4.99514         10.5001        0.535657 
        5.01086         10.4381        0.531303 
        5.02654         10.3733         0.52701 
        5.04227         10.3144         0.52275 
          5.058         10.2178        0.518536 
        5.07371         10.1338        0.514376 
        5.08942         10.0993        0.510261 
        5.10513         9.99463         0.50619 
        5.12084         9.94645        0.502162 
        5.13656         9.85603        0.498178 
        5.15225         9.77873        0.494244 
        5.16796         9.71992        0.490346 
        5.18369         9.66323        0.486486 
         5.1994         9.56816        0.482674 
        5.21509         9.47989        0.478907 
        5.23079         9.42864        0.475175 
        5.24649         9.35958        0.471485 
        5.26217         9.31032        0.467837 
        5.27788          9.2238        0.464223 
        5.29359         9.17229        0.460646 
        5.30933         9.10122        0.457101 
        5.32504         9.02732        0.453599 
        5.34073         8.96087        0.450138 
        5.35646          8.8874        0.446705 
        5.37218         8.83591        0.443308 
        5.38789         8.78731        0.439951 
        5.40357         8.74468        0.436633 
        5.41929         8.67012        0.433341 
        5.43502         8.63226        0.430083 
         5.4507         8.53501        0.426866 
        5.46639         8.47059        0.423681 
        5.48212         8.43815        0.420521 
        5.49786         8.35884         0.41739 
        5.51353         8.30326        0.414305 
        5.52921         8.26031        0.411249 
        5.54495         8.19667        0.408214 
        5.56066         8.14398        0.405214 
        5.57637         8.08317        0.402243 
        5.59207         8.01684        0.399305 
        5.60778         7.96891        0.396395 
        5.62346         7.90997        0.393518 
        5.63916           7.859        0.390666 
        5.65487         7.81443        0.387842 
         5.6706         7.76645        0.385041 
        5.68633         7.69497        0.382268 
        5.70203         7.65997        0.379527 
        5.71773         7.59362        0.376813 
        5.73344         7.55608        0.374124 
        5.74916         7.48649        0.371459 
        5.76486         7.44505        0.368824 
        5.78054         7.40466        0.366218 
        5.79626         7.34448        0.363629 
          5.812         7.29409        0.361063 
         5.8277         7.26558         0.35853 
        5.84339         7.20683         0.35602 
        5.85911          7.1632        0.353529 
        5.87484         7.09379        0.351063 
        5.89053         7.04773        0.348625 
        5.90623         7.02324        0.346209 
        5.92195         6.96442        0.343811 
        5.93767          6.9163        0.341438 
        5.95336          6.8816         0.33909 
        5.96905         6.82999        0.336766 
        5.98476         6.78837         0.33446 
        6.00048         6.73549        0.332174 
        6.01617         6.68825        0.329913 
        6.03185         6.64781        0.327676 
        6.04756         6.61039        0.325454 
        6.06331         6.55894        0.323247 
        6.07903         6.52012        0.321066 
        6.09473         6.47174        0.318907 
        6.11044         6.43994        0.316765 
        6.12616         6.41159        0.314644 
        6.14186         6.35999        0.312544 
        6.15755         6.32586        0.310463 
        6.17326         6.28593        0.308399 
        6.18898         6.23423        0.306353 
        6.20467         6.19821         0.30433 
        6.22036         6.14995        0.302324 
         6.2361         6.12194        0.300331 
         6.2518         6.08106         0.29836 
        6.26748         6.03496         0.29641 
        6.28319         5.99278        0.294472 
        6.29893          5.9651         0.29255 
        6.31463         5.92152        0.290648 
        6.33033         5.88767        0.288764 
        6.34604         5.85604        0.286894 
        6.36177         5.80438         0.28504 
        6.37747         5.77353        0.283205 
