# k  (h/Mpc)    Pcb(k)  (Mpc/h)^3    Pcb_linear(k) (Mpc/h)^3   ShotnoiseSubtracted = true
      0.0200456         2993.28         3033.42 
      0.0350414         1879.76         1891.53 
      0.0492313          1245.4         1238.09 
      0.0637834         1026.44         1009.19 
      0.0800726         807.003         797.753 
       0.096163         539.562         541.554 
       0.111083         406.171         407.375 
       0.126058         368.791         364.312 
       0.142273         320.259         314.271 
       0.158546         247.918         239.041 
        0.17375         195.055         192.289 
       0.188953         180.958         174.341 
       0.204907         168.728         157.595 
       0.220756         138.933         131.516 
        0.23588         117.773         110.542 
         0.2514          104.04         99.4328 
       0.267535         96.7775         91.2435 
       0.283568         86.2012         80.3548 
       0.299022         77.0716         70.1352 
       0.314451         68.2395         63.2947 
       0.330372         63.4935         58.3275 
       0.346141         57.3736          53.071 
       0.361624         52.8197         47.7551 
       0.377134         49.1141         43.4614 
       0.392932         43.4555         40.1526 
       0.408854         41.7361         37.0673 
       0.424564         38.9795         34.0202 
       0.440253         35.7921         31.3066 
       0.455999         33.4301         29.0594 
       0.471626         31.2743         27.0876 
        0.48727         29.5284         25.1983 
       0.502856         27.6082         23.4538 
       0.518488         26.2155         21.9127 
       0.534347         25.1141         20.5246 
       0.550082         22.8011         19.2479 
       0.565732         21.1564         18.0615 
       0.581496         20.6366         16.9731 
       0.597222         19.8334           15.99 
       0.612804          18.432         15.0928 
       0.628434         17.7062          14.255 
       0.644267         17.1051         13.4676 
       0.660051         16.1345         12.7461 
       0.675724         15.2441          12.084 
       0.691403         14.7262          11.468 
       0.707174         14.0784          10.891 
       0.722871         13.5151         10.3556 
        0.73838         12.8922         9.86159 
       0.754018         12.4272         9.39577 
       0.769845         11.9192         8.95473 
        0.78569         11.4871         8.54141 
       0.801365         11.0062         8.15809 
       0.817031          10.636          7.7985 
       0.832809         10.3771         7.45829 
       0.848511         9.71489         7.13992 
       0.864097         9.48251         6.84234 
       0.879701          9.1771         6.56146 
       0.895507         8.74778         6.29306 
       0.911279         8.56821         6.04024 
        0.92691         8.29048         5.80341 
       0.942635         7.90767         5.57798 
       0.958396          7.6886         5.36405 
       0.974128         7.46149         5.16173 
       0.989692         7.33043         4.97183 
        1.00528         7.08415         4.79121 
        1.02113         6.77617         4.61673 
        1.03692         6.58968         4.45157 
        1.05264         6.45175         4.29524 
        1.06832         6.25427         4.14666 
        1.08405         6.02873         4.00469 
        1.09979         5.87721         3.86928 
        1.11537         5.76961         3.74147 
        1.13105         5.59096         3.61865 
        1.14679         5.47381         3.50088 
        1.16256         5.26599          3.3881 
        1.17828         5.20605         3.28066 
        1.19395         4.98979         3.17823 
         1.2097         4.89626         3.07965 
        1.22537         4.74868         2.98572 
          1.241         4.66192         2.89599 
        1.25666         4.57753         2.80971 
        1.27241         4.43126         2.72654 
        1.28819         4.32046          2.6466 
        1.30392         4.25371         2.57008 
        1.31957         4.15219         2.49693 
        1.33529         4.05458         2.42636 
        1.35108         3.95131         2.35822 
        1.36674         3.90831         2.29319 
         1.3824          3.7577         2.23067 
        1.39811         3.69655         2.17026 
        1.41389         3.62884         2.11186 
        1.42964         3.55759          2.0557 
        1.44531         3.48016         2.00185 
        1.46101         3.40086         1.94982 
        1.47667         3.33413         1.89978 
        1.49229         3.29033         1.85164 
        1.50793          3.1953          1.8051 
        1.52367         3.14705         1.75986 
        1.53953          3.0687         1.71586 
        1.55526         3.02354         1.67372 
        1.57092         2.96512         1.63316 
        1.58662         2.89736         1.59385 
        1.60235         2.85569         1.55575 
        1.61809          2.7988         1.51888 
        1.63369         2.74598         1.48352 
        1.64941         2.69293         1.44904 
        1.66519         2.66102         1.41552 
        1.68085         2.59917          1.3833 
        1.69652         2.54747         1.35207 
        1.71228         2.51225         1.32163 
        1.72806         2.46378         1.29209 
        1.74368         2.41502         1.26376 
        1.75933         2.38251         1.23621 
        1.77505         2.34888         1.20935 
        1.79081          2.2982         1.18325 
         1.8065         2.26743         1.15802 
        1.82218         2.23737         1.13355 
        1.83797         2.20945         1.10961 
        1.85367          2.1542          1.0865 
        1.86928         2.13046         1.06418 
        1.88497         2.09707         1.04237 
        1.90073         2.05488         1.02108 
        1.91647         2.02319         1.00041 
        1.93218         2.00149        0.980354 
        1.94787         1.97992        0.960873 
        1.96363         1.93446        0.941843 
        1.97935         1.90634        0.923367 
        1.99499         1.87274        0.905488 
        2.01064         1.85481        0.888056 
         2.0264         1.82125        0.870973 
        2.04216         1.80196        0.854345 
        2.05781         1.76744        0.838255 
        2.07353         1.75619        0.822521 
        2.08928         1.72994        0.807156 
        2.10499         1.69859        0.792223 
        2.12065         1.68643        0.777711 
        2.13633         1.65602        0.763549 
        2.15211         1.63351        0.749647 
        2.16785         1.61448        0.736129 
        2.18349         1.58896        0.723028 
        2.19916         1.56339        0.710218 
        2.21489         1.55072        0.697674 
        2.23063         1.51906        0.685424 
         2.2463         1.50476        0.673522 
        2.26194         1.48239        0.661932 
        2.27765         1.47071        0.650553 
        2.29341         1.44784        0.639412 
        2.30914         1.42362        0.628554 
        2.32486         1.41777        0.617953 
        2.34061          1.3937        0.607579 
        2.35635         1.37774         0.59745 
        2.37203         1.36588        0.587587 
        2.38768         1.34738        0.577967 
        2.40339         1.32836        0.568526 
        2.41914         1.31225        0.559273 
        2.43483         1.30093        0.550258 
         2.4505         1.28214        0.541456 
        2.46622         1.27256        0.532816 
        2.48195         1.25131        0.524363 
        2.49759         1.23758        0.516138 
        2.51328         1.22267        0.508068 
        2.52906         1.21422        0.500118 
        2.54479          1.1961        0.492367 
        2.56049         1.18382        0.484795 
        2.57618         1.17332        0.477388 
        2.59189         1.16126        0.470125 
        2.60758         1.14456        0.463023 
        2.62325         1.13021        0.456076 
        2.63898         1.12031        0.449247 
        2.65468         1.10827        0.442571 
        2.67044         1.10043        0.436002 
        2.68618         1.08316        0.429581 
        2.70184         1.07528        0.423315 
        2.71755         1.06258        0.417157 
        2.73329          1.0509        0.411112 
        2.74897         1.04167        0.405206 
        2.76462         1.03214        0.399429 
        2.78034         1.01965         0.39374 
        2.79607         1.00801        0.388155 
        2.81179         1.00252        0.382685 
        2.82749        0.986556        0.377326 
        2.84321        0.982049        0.372063 
        2.85893        0.971546        0.366901 
        2.87462        0.959774        0.361846 
        2.89033        0.949804        0.356882 
        2.90605        0.940307        0.352005 
        2.92176        0.932227        0.347222 
        2.93747        0.922381         0.34253 
        2.95318        0.914886        0.337924 
        2.96891        0.908315        0.333399 
        2.98456        0.899742        0.328977 
        3.00023        0.890372        0.324629 
        3.01596        0.882935        0.320345 
        3.03164        0.878996        0.316151 
        3.04738         0.86492        0.312019 
         3.0631         0.85957        0.307962 
        3.07883        0.851358        0.303976 
        3.09456        0.843895        0.300062 
        3.11026        0.839512        0.296222 
        3.12596         0.82806         0.29245 
        3.14163        0.823932        0.288752 
        3.15734         0.81445        0.285108 
        3.17308        0.807026        0.281519 
        3.18879         0.80349        0.278001 
        3.20447        0.797135        0.274548 
         3.2202        0.787812        0.271143 
         3.2359        0.781167        0.267801 
        3.25157        0.777082        0.264523 
        3.26729        0.767487         0.26129 
        3.28304         0.76545        0.258105 
        3.29877        0.755652        0.254976 
        3.31446        0.750467        0.251906 
        3.33014        0.748209        0.248889 
        3.34585         0.74019        0.245917 
        3.36158        0.733162        0.242988 
        3.37727        0.728896        0.240116 
        3.39294        0.722135        0.237294 
        3.40867        0.714514        0.234506 
        3.42439        0.712629        0.231764 
        3.44008         0.70743        0.229071 
        3.45578        0.701743        0.226419 
        3.47153        0.697686        0.223803 
        3.48724        0.690415        0.221232 
        3.50292        0.685801        0.218708 
        3.51859        0.683601        0.216224 
        3.53431        0.676243        0.213771 
        3.55007        0.672156         0.21135 
        3.56577        0.667301        0.208975 
        3.58146        0.664662        0.206638 
        3.59719        0.656785        0.204331 
        3.61292        0.654921         0.20206 
        3.62859        0.649725        0.199832 
        3.64429        0.643124        0.197633 
        3.66003        0.639897        0.195461 
        3.67578        0.636124        0.193321 
        3.69146        0.632143        0.191222 
        3.70712        0.626779        0.189157 
        3.72284        0.622952        0.187116 
        3.73853        0.618875        0.185107 
        3.75422        0.614981        0.183128 
        3.76993         0.61088        0.181175 
        3.78564        0.607319        0.179252 
        3.80137        0.604082        0.177353 
        3.81707        0.599307        0.175485 
        3.83279        0.594568        0.173643 
        3.84853        0.591182        0.171825 
        3.86424         0.58574        0.170035 
        3.87992        0.585109        0.168274 
        3.89561        0.578698        0.166537 
        3.91134        0.576802        0.164822 
        3.92704        0.572101        0.163132 
        3.94273        0.568484        0.161468 
        3.95845        0.565598        0.159824 
        3.97418        0.560534        0.158202 
        3.98988        0.556927        0.156605 
        4.00554        0.552704        0.155034 
        4.02125        0.548271         0.15348 
        4.03698        0.544692        0.151944 
        4.05268        0.539945        0.150434 
        4.06839        0.534388        0.148942 
         4.0841        0.531225        0.147471 
        4.09983         0.52581        0.146018 
        4.11555        0.523205        0.144585 
        4.13124        0.518774        0.143175 
        4.14693        0.514752        0.141783 
        4.16266        0.510052        0.140406 
        4.17839         0.50711        0.139047 
        4.19408          0.5047         0.13771 
        4.20977        0.498961         0.13639 
        4.22551         0.49669        0.135084 
        4.24123        0.492834        0.133796 
        4.25691        0.489277        0.132528 
        4.27259        0.487623        0.131276 
        4.28831        0.483668        0.130038 
        4.30404        0.478977        0.128815 
        4.31974        0.477545         0.12761 
        4.33543        0.472748        0.126421 
        4.35116        0.471056        0.125244 
        4.36688         0.46853        0.124083 
        4.38255        0.465053         0.12294 
        4.39825        0.462758         0.12181 
        4.41398        0.460717        0.120691 
         4.4297        0.456836        0.119587 
        4.44541        0.454574        0.118498 
        4.46111        0.453849        0.117423 
        4.47683        0.450798         0.11636 
        4.49251        0.449363        0.115312 
        4.50819        0.446698        0.114278 
         4.5239        0.444197        0.113255 
        4.53962        0.443297        0.112243 
        4.55535        0.438954        0.111243 
        4.57106        0.439112        0.110256 
        4.58678        0.435767        0.109281 
         4.6025        0.435388        0.108318 
        4.61821        0.432675        0.107366 
        4.63391        0.431073        0.106427 
         4.6496        0.428462        0.105499 
        4.66532        0.428106        0.104581 
        4.68103        0.425055        0.103675 
        4.69673        0.424573         0.10278 
        4.71241        0.423696        0.101896 
        4.72811        0.421873        0.101021 
        4.74384        0.419909        0.100155 
        4.75955        0.419283       0.0993012 
        4.77525        0.417905       0.0984573 
        4.79096        0.416368       0.0976221 
        4.80669          0.4167       0.0967962 
         4.8224        0.415477       0.0959808 
        4.83809        0.414333       0.0951755 
        4.85379        0.413462        0.094379 
         4.8695        0.412277       0.0935908 
        4.88521        0.409569        0.092812 
        4.90093        0.411241       0.0920419 
        4.91663        0.410289       0.0912812 
        4.93234          0.4087       0.0905282 
        4.94807        0.408596       0.0897832 
        4.96377        0.406563       0.0890479 
        4.97943        0.407767       0.0883224 
        4.99514         0.40719       0.0876031 
        5.01086        0.406346       0.0868911 
        5.02654        0.407009       0.0861889 
        5.04227        0.406133       0.0854923 
          5.058        0.405692       0.0848031 
        5.07371        0.404677       0.0841228 
        5.08942        0.405379       0.0834498 
        5.10513        0.404139       0.0827841 
        5.12084        0.404494       0.0821253 
        5.13656         0.40563       0.0814737 
        5.15225         0.40421       0.0808303 
        5.16796        0.405467       0.0801927 
        5.18369        0.404491       0.0795615 
         5.1994        0.405501       0.0789381 
        5.21509        0.405724        0.078322 
        5.23079        0.404785       0.0777117 
        5.24649        0.405712       0.0771083 
        5.26217        0.405057       0.0765117 
        5.27788        0.407065       0.0759206 
        5.29359         0.40659       0.0753355 
        5.30933         0.40579       0.0747558 
        5.32504        0.408497       0.0741831 
        5.34073         0.40812        0.073617 
        5.35646        0.407315       0.0730557 
        5.37218        0.408646       0.0725001 
        5.38789        0.410434       0.0719511 
        5.40357        0.410579       0.0714084 
        5.41929        0.410729       0.0708701 
        5.43502        0.411189       0.0703372 
         5.4507        0.413068       0.0698111 
        5.46639        0.412686       0.0692902 
        5.48212        0.413523       0.0687735 
        5.49786        0.414982       0.0682613 
        5.51353        0.415783       0.0677569 
        5.52921        0.415299        0.067257 
        5.54495        0.416736       0.0667608 
        5.56066         0.41711         0.06627 
        5.57637        0.419505       0.0657842 
        5.59207        0.420299       0.0653037 
        5.60778        0.421055       0.0648278 
        5.62346        0.422272       0.0643572 
        5.63916         0.42299       0.0638909 
        5.65487        0.424183       0.0634289 
         5.6706        0.424911       0.0629709 
        5.68633         0.42738       0.0625173 
        5.70203        0.428404       0.0620691 
        5.71773        0.429726       0.0616253 
        5.73344        0.429808       0.0611855 
        5.74916        0.430037       0.0607497 
        5.76486        0.433088       0.0603187 
        5.78054           0.433       0.0598925 
        5.79626        0.434892       0.0594692 
          5.812        0.435588       0.0590495 
         5.8277        0.437229       0.0586351 
        5.84339        0.438737       0.0582247 
        5.85911        0.440052       0.0578174 
        5.87484        0.440254        0.057414 
        5.89053        0.442743       0.0570153 
        5.90623        0.443716       0.0566201 
        5.92195        0.444668        0.056228 
        5.93767        0.445031       0.0558399 
        5.95336        0.447157        0.055456 
        5.96905        0.449035       0.0550758 
        5.98476         0.44951       0.0546986 
        6.00048        0.451617       0.0543249 
        6.01617        0.453935       0.0539551 
        6.03185         0.45411       0.0535892 
        6.04756        0.455967       0.0532258 
        6.06331        0.457292        0.052865 
        6.07903        0.459188       0.0525082 
        6.09473        0.459397       0.0521551 
        6.11044        0.461134       0.0518049 
        6.12616        0.462916       0.0514579 
        6.14186        0.462237       0.0511145 
        6.15755        0.464965       0.0507741 
        6.17326        0.467433       0.0504367 
        6.18898        0.468046       0.0501021 
        6.20467        0.469627       0.0497711 
        6.22036        0.470812       0.0494431 
         6.2361        0.471523       0.0491172 
         6.2518        0.474684       0.0487947 
        6.26748        0.473467       0.0484759 
        6.28319        0.475182       0.0481589 
        6.29893        0.478302       0.0478446 
        6.31463        0.478295       0.0475335 
        6.33033        0.479398       0.0472254 
        6.34604        0.480428       0.0469197 
        6.36177        0.481795       0.0466164 
        6.37747         0.48425       0.0463163 
