# k  (h/Mpc)    Pcb(k)  (Mpc/h)^3    Pcb_linear(k) (Mpc/h)^3   ShotnoiseSubtracted = true
      0.0200456         11387.6         11541.3 
      0.0350414         7450.08         7196.74 
      0.0492313         4707.97         4710.58 
      0.0637834         3745.14         3839.67 
      0.0800726         2926.94         3035.22 
       0.096163         2168.52         2060.46 
       0.111083         1665.49         1549.95 
       0.126058          1397.6          1386.1 
       0.142273         1214.14         1195.71 
       0.158546         966.514         909.484 
        0.17375         813.065         731.604 
       0.188953         749.172         663.317 
       0.204907         641.394         599.603 
       0.220756         568.624         500.381 
        0.23588         494.594         420.579 
         0.2514         437.594         378.313 
       0.267535         422.541         347.155 
       0.283568         366.228         305.727 
       0.299022         344.472         266.844 
       0.314451         340.031         240.818 
       0.330372         290.909         221.919 
       0.346141         268.156          201.92 
       0.361624          253.02         181.694 
       0.377134         233.177         165.358 
       0.392932         224.703         152.769 
       0.408854         213.081         141.031 
       0.424564         203.591         129.437 
       0.440253         183.263         119.113 
       0.455999         172.035         110.563 
       0.471626         170.001          103.06 
        0.48727         161.218         95.8724 
       0.502856         146.861          89.235 
       0.518488         146.063         83.3717 
       0.534347         135.535         78.0901 
       0.550082         131.707         73.2326 
       0.565732         129.829         68.7189 
       0.581496         119.504         64.5776 
       0.597222         116.596         60.8373 
       0.612804           111.9         57.4238 
       0.628434         109.136          54.236 
       0.644267         102.953         51.2402 
       0.660051         100.511         48.4951 
       0.675724         98.2492          45.976 
       0.691403          95.975         43.6324 
       0.707174         92.1109         41.4372 
       0.722871         90.3156         39.4002 
        0.73838           88.38         37.5205 
       0.754018         82.9081         35.7482 
       0.769845         82.5715         34.0702 
        0.78569         80.0434         32.4976 
       0.801365         76.9661         31.0392 
       0.817031         74.7327          29.671 
       0.832809         73.2126         28.3766 
       0.848511         71.4751         27.1653 
       0.864097         70.0327         26.0331 
       0.879701         68.6383         24.9645 
       0.895507          66.183         23.9433 
       0.911279         64.5605         22.9814 
        0.92691         63.2954         22.0803 
       0.942635         61.4619         21.2226 
       0.958396          61.426         20.4087 
       0.974128         59.9294         19.6389 
       0.989692         58.2489         18.9164 
        1.00528         57.1919         18.2292 
        1.02113         55.7335         17.5653 
        1.03692         55.5654          16.937 
        1.05264         54.5814         16.3422 
        1.06832         52.8702         15.7768 
        1.08405         52.0587         15.2367 
        1.09979         51.4538         14.7215 
        1.11537         50.1866         14.2352 
        1.13105         49.1139         13.7679 
        1.14679         48.6003         13.3198 
        1.16256         47.6626         12.8908 
        1.17828         47.2468          12.482 
        1.19395         46.0871         12.0923 
         1.2097         45.7855         11.7172 
        1.22537          44.624         11.3598 
          1.241         44.5869         11.0184 
        1.25666         42.9246         10.6901 
        1.27241         42.8063         10.3737 
        1.28819         42.2806         10.0695 
        1.30392         41.3259         9.77843 
        1.31957          41.141         9.50011 
        1.33529         40.4861         9.23158 
        1.35108         40.0111         8.97236 
        1.36674         39.1076         8.72493 
         1.3824         38.5568         8.48704 
        1.39811         37.8953         8.25722 
        1.41389          37.456         8.03501 
        1.42964         37.1043         7.82135 
        1.44531         36.5154         7.61648 
        1.46101         36.1719          7.4185 
        1.47667         35.6547         7.22813 
        1.49229          34.969         7.04495 
        1.50793         34.6871         6.86789 
        1.52367         34.4125         6.69576 
        1.53953         33.9678         6.52837 
        1.55526         33.1981         6.36802 
        1.57092          33.102         6.21371 
        1.58662         32.6925         6.06414 
        1.60235         32.2027         5.91919 
        1.61809          31.772         5.77889 
        1.63369         31.2721         5.64437 
        1.64941         30.9383         5.51317 
        1.66519         30.5524         5.38565 
        1.68085         30.1147         5.26306 
        1.69652         29.7744         5.14424 
        1.71228         29.5539         5.02841 
        1.72806         29.2345         4.91604 
        1.74368         28.7097         4.80823 
        1.75933         28.6558         4.70342 
        1.77505          28.141         4.60124 
        1.79081         27.9279         4.50191 
         1.8065         27.6935         4.40593 
        1.82218         27.0883         4.31282 
        1.83797         26.8314         4.22176 
        1.85367         26.6323         4.13382 
        1.86928         26.4696         4.04891 
        1.88497         26.0403         3.96592 
        1.90073         25.9111         3.88493 
        1.91647         25.6768         3.80628 
        1.93218         25.3964         3.72996 
        1.94787         25.0719         3.65585 
        1.96363         24.7275         3.58344 
        1.97935         24.5052         3.51314 
        1.99499         24.3465         3.44512 
        2.01064         23.8974          3.3788 
         2.0264         23.8163          3.3138 
        2.04216         23.6206         3.25054 
        2.05781         23.3695         3.18932 
        2.07353         23.0395         3.12946 
        2.08928         22.9622           3.071 
        2.10499         22.6325         3.01418 
        2.12065         22.3498         2.95897 
        2.13633         22.2479         2.90508 
        2.15211         21.9223         2.85219 
        2.16785         21.7135         2.80076 
        2.18349         21.5366         2.75092 
        2.19916         21.3496         2.70217 
        2.21489         21.1637         2.65445 
        2.23063         20.9196         2.60784 
         2.2463         20.8006         2.56256 
        2.26194         20.4972         2.51846 
        2.27765          20.312         2.47517 
        2.29341         20.0557         2.43278 
        2.30914         19.8742         2.39147 
        2.32486         19.7768         2.35113 
        2.34061         19.5289         2.31166 
        2.35635         19.2812         2.27313 
        2.37203         19.2167          2.2356 
        2.38768         19.0007           2.199 
        2.40339         18.8055         2.16308 
        2.41914         18.7048         2.12787 
        2.43483         18.5394         2.09357 
         2.4505         18.2962         2.06009 
        2.46622         18.1208         2.02721 
        2.48195         17.9712         1.99505 
        2.49759         17.7763         1.96376 
        2.51328         17.5809         1.93305 
        2.52906         17.4354          1.9028 
        2.54479         17.3728         1.87332 
        2.56049         17.1853         1.84451 
        2.57618         17.0295         1.81633 
        2.59189         16.8438         1.78869 
        2.60758         16.6804         1.76167 
        2.62325         16.4881         1.73524 
        2.63898         16.4603         1.70925 
        2.65468         16.2901         1.68386 
        2.67044         16.1275         1.65886 
        2.68618         15.8948         1.63443 
        2.70184          15.789         1.61059 
        2.71755         15.5908         1.58716 
        2.73329         15.4931         1.56416 
        2.74897         15.3983         1.54169 
        2.76462         15.2623         1.51971 
        2.78034         15.0693         1.49807 
        2.79607         14.9709         1.47682 
        2.81179         14.8496         1.45601 
        2.82749         14.6512         1.43562 
        2.84321          14.594         1.41559 
        2.85893         14.4559         1.39595 
        2.87462         14.3041         1.37672 
        2.89033         14.1871         1.35783 
        2.90605         14.0506         1.33928 
        2.92176         13.8962         1.32108 
        2.93747         13.8542         1.30323 
        2.95318         13.7485          1.2857 
        2.96891         13.5567         1.26849 
        2.98456         13.4861         1.25166 
        3.00023         13.3758         1.23512 
        3.01596          13.208         1.21882 
        3.03164         13.1553         1.20286 
        3.04738          13.058         1.18714 
         3.0631         12.9406         1.17171 
        3.07883         12.8019         1.15654 
        3.09456         12.6897         1.14165 
        3.11026         12.6063         1.12704 
        3.12596         12.4627         1.11269 
        3.14163         12.3524         1.09862 
        3.15734         12.2933         1.08476 
        3.17308         12.1616          1.0711 
        3.18879         12.0642         1.05771 
        3.20447          11.995         1.04458 
         3.2202         11.8701         1.03162 
         3.2359         11.7828         1.01891 
        3.25157         11.6677         1.00643 
        3.26729            11.6        0.994134 
        3.28304         11.5102        0.982014 
        3.29877         11.4243        0.970111 
        3.31446         11.3237         0.95843 
        3.33014         11.1965        0.946952 
        3.34585         11.1822        0.935643 
        3.36158         11.0732        0.924501 
        3.37727         10.9662        0.913574 
        3.39294         10.8777        0.902834 
        3.40867         10.7693        0.892226 
        3.42439         10.6984        0.881795 
        3.44008          10.605        0.871549 
        3.45578         10.5205        0.861458 
        3.47153         10.4449        0.851504 
        3.48724         10.3625        0.841724 
        3.50292          10.291         0.83212 
        3.51859         10.1766         0.82267 
        3.53431         10.1188        0.813336 
        3.55007         10.0301        0.804124 
        3.56577         9.93849         0.79509 
        3.58146          9.8613        0.786198 
        3.59719         9.79971        0.777421 
        3.61292         9.73006        0.768781 
        3.62859         9.61554        0.760304 
        3.64429         9.58363        0.751938 
        3.66003         9.44614        0.743672 
        3.67578         9.43355        0.735532 
        3.69146         9.34497        0.727544 
        3.70712          9.2352        0.719689 
        3.72284           9.185        0.711921 
        3.73853         9.10965         0.70428 
        3.75422          9.0345        0.696748 
        3.76993         8.95816        0.689319 
        3.78564         8.89761        0.682001 
        3.80137         8.83273        0.674777 
        3.81707         8.75423        0.667672 
        3.83279         8.69231        0.660663 
        3.84853         8.62722        0.653743 
        3.86424         8.54027        0.646935 
        3.87992         8.48352        0.640234 
        3.89561         8.40971        0.633627 
        3.91134         8.35172          0.6271 
        3.92704         8.29637        0.620671 
        3.94273         8.24046        0.614339 
        3.95845         8.16101        0.608083 
        3.97418         8.10749        0.601912 
        3.98988         8.03341        0.595835 
        4.00554         7.98165        0.589858 
        4.02125         7.93635        0.583946 
        4.03698         7.84182        0.578105 
        4.05268         7.82368        0.572357 
        4.06839         7.73881        0.566682 
         4.0841         7.68546        0.561086 
        4.09983         7.61251        0.555557 
        4.11555         7.57928        0.550105 
        4.13124         7.48712        0.544741 
        4.14693         7.44919        0.539443 
        4.16266         7.36818        0.534203 
        4.17839         7.33772        0.529035 
        4.19408         7.28117        0.523947 
        4.20977         7.20234        0.518924 
        4.22551         7.16991        0.513954 
        4.24123         7.11444        0.509054 
        4.25691         7.04718        0.504231 
        4.27259         7.00316        0.499469 
        4.28831         6.94572        0.494758 
        4.30404         6.90287        0.490104 
        4.31974         6.85014        0.485519 
        4.33543         6.78026        0.480995 
        4.35116         6.74029        0.476518 
        4.36688         6.69981        0.472099 
        4.38255         6.63578        0.467752 
        4.39825         6.58054         0.46345 
        4.41398         6.54662        0.459194 
         4.4297         6.49671        0.454996 
        4.44541         6.44127         0.45085 
        4.46111             6.4        0.446759 
        4.47683         6.35405        0.442716 
        4.49251         6.32087         0.43873 
        4.50819         6.24881        0.434795 
         4.5239         6.19866        0.430902 
        4.53962         6.17233        0.427051 
        4.55535         6.12798        0.423246 
        4.57106         6.08836        0.419492 
        4.58678         6.03681        0.415783 
         4.6025         5.98925        0.412117 
        4.61821         5.93547        0.408496 
        4.63391         5.91021        0.404924 
         4.6496         5.87566        0.401395 
        4.66532          5.8351        0.397902 
        4.68103         5.78071        0.394453 
        4.69673         5.74478        0.391047 
        4.71241         5.71341        0.387685 
        4.72811         5.65879        0.384356 
        4.74384         5.62129        0.381063 
        4.75955         5.59727        0.377812 
        4.77525         5.55273        0.374602 
        4.79096         5.51594        0.371424 
        4.80669          5.4858        0.368282 
         4.8224         5.43477        0.365179 
        4.83809          5.4009        0.362115 
        4.85379         5.36483        0.359085 
         4.8695         5.32673        0.356086 
        4.88521         5.28702        0.353123 
        4.90093         5.24578        0.350193 
        4.91663         5.20934        0.347299 
        4.93234         5.17025        0.344434 
        4.94807         5.14448        0.341599 
        4.96377         5.09966        0.338802 
        4.97943         5.07064        0.336041 
        4.99514         5.03932        0.333304 
        5.01086         4.99803        0.330596 
        5.02654         4.96348        0.327924 
        5.04227           4.937        0.325274 
          5.058         4.89211        0.322651 
        5.07371         4.86077        0.320063 
        5.08942         4.82902        0.317502 
        5.10513         4.79635         0.31497 
        5.12084         4.76345        0.312463 
        5.13656         4.73211        0.309984 
        5.15225         4.69578        0.307536 
        5.16796         4.66894         0.30511 
        5.18369         4.62763        0.302709 
         5.1994          4.6187        0.300337 
        5.21509         4.57532        0.297993 
        5.23079         4.54561         0.29567 
        5.24649         4.51035        0.293375 
        5.26217         4.48441        0.291105 
        5.27788         4.45465        0.288856 
        5.29359         4.42494         0.28663 
        5.30933         4.39482        0.284424 
        5.32504         4.37182        0.282245 
        5.34073         4.34182        0.280092 
        5.35646         4.31083        0.277956 
        5.37218          4.2899        0.275842 
        5.38789         4.25904        0.273753 
        5.40357         4.23292        0.271688 
        5.41929         4.20108         0.26964 
        5.43502         4.17017        0.267613 
         5.4507         4.14517        0.265611 
        5.46639         4.11336        0.263629 
        5.48212         4.10041        0.261663 
        5.49786         4.07234        0.259715 
        5.51353         4.04853        0.257796 
        5.52921         4.01535        0.255894 
        5.54495         3.99433        0.254005 
        5.56066         3.97024        0.252138 
        5.57637         3.94594         0.25029 
        5.59207         3.90914        0.248462 
        5.60778         3.89168        0.246651 
        5.62346          3.8692        0.244861 
        5.63916         3.85291        0.243086 
        5.65487         3.82165        0.241329 
         5.6706         3.79285        0.239586 
        5.68633           3.767         0.23786 
        5.70203         3.75623        0.236155 
        5.71773         3.72777        0.234466 
        5.73344          3.7027        0.232793 
        5.74916         3.68321        0.231135 
        5.76486         3.65215        0.229495 
        5.78054         3.63632        0.227874 
        5.79626         3.61551        0.226263 
          5.812         3.59603        0.224666 
         5.8277         3.56273         0.22309 
        5.84339         3.55335        0.221528 
        5.85911         3.51808        0.219978 
        5.87484         3.50155        0.218444 
        5.89053         3.48464        0.216927 
        5.90623         3.46257        0.215423 
        5.92195         3.44519        0.213932 
        5.93767         3.42186        0.212455 
        5.95336         3.40368        0.210994 
        5.96905         3.38089        0.209548 
        5.98476         3.36074        0.208113 
        6.00048         3.33745        0.206691 
        6.01617         3.31549        0.205284 
        6.03185         3.29584        0.203891 
        6.04756          3.2734        0.202509 
        6.06331         3.25886        0.201136 
        6.07903         3.23902        0.199779 
        6.09473         3.21924        0.198435 
        6.11044         3.19983        0.197103 
        6.12616         3.18592        0.195783 
        6.14186         3.16899        0.194476 
        6.15755           3.141        0.193181 
        6.17326         3.13043        0.191897 
        6.18898         3.10749        0.190624 
        6.20467         3.09054        0.189365 
        6.22036         3.08091        0.188117 
         6.2361         3.05196        0.186877 
         6.2518         3.04291         0.18565 
        6.26748         3.02235        0.184437 
        6.28319         3.00281        0.183231 
        6.29893         2.98681        0.182035 
        6.31463         2.97623        0.180851 
        6.33033         2.95424        0.179679 
        6.34604         2.93703        0.178516 
        6.36177         2.92068        0.177362 
        6.37747         2.90692         0.17622 
