# k  (h/Mpc)    Pcb(k)  (Mpc/h)^3    Pcb_linear(k) (Mpc/h)^3   ShotnoiseSubtracted = true
      0.0200456         194.002         196.373 
      0.0350414         123.122         122.451 
      0.0492313         80.7371         80.1497 
      0.0637834         65.7158         65.3312 
      0.0800726         51.6304         51.6437 
       0.096163         35.1863         35.0583 
       0.111083         26.4856         26.3721 
       0.126058         23.6033         23.5843 
       0.142273          20.323         20.3448 
       0.158546          15.578         15.4747 
        0.17375         12.4736         12.4481 
       0.188953         11.2963         11.2862 
       0.204907         10.2829         10.2021 
       0.220756         8.55386         8.51389 
        0.23588         7.20537         7.15608 
         0.2514         6.44589         6.43694 
       0.267535         5.90417         5.90679 
       0.283568         5.21082         5.20189 
       0.299022         4.56911         4.54031 
       0.314451         4.08247         4.09748 
       0.330372         3.77196         3.77592 
       0.346141         3.43238         3.43563 
       0.361624         3.09904          3.0915 
       0.377134         2.83007         2.81354 
       0.392932         2.57127         2.59934 
       0.408854         2.40704         2.39961 
       0.424564         2.19674         2.20235 
       0.440253         2.02579         2.02668 
       0.455999          1.8875          1.8812 
       0.471626         1.76136         1.75355 
        0.48727         1.62974         1.63125 
       0.502856          1.5124         1.51832 
       0.518488         1.42677         1.41855 
       0.534347         1.34426         1.32869 
       0.550082         1.24223         1.24604 
       0.565732         1.15301         1.16924 
       0.581496         1.09901         1.09878 
       0.597222         1.03711         1.03514 
       0.612804        0.974742        0.977057 
       0.628434        0.926927        0.922816 
       0.644267        0.871217        0.871842 
       0.660051        0.821056        0.825135 
       0.675724        0.781133        0.782273 
       0.691403         0.74344        0.742398 
       0.707174        0.703288        0.705047 
       0.722871        0.665177        0.670388 
        0.73838        0.637396        0.638405 
       0.754018        0.610478        0.608249 
       0.769845        0.579841        0.579698 
        0.78569        0.552072        0.552941 
       0.801365        0.525492        0.528126 
       0.817031        0.503302        0.504848 
       0.832809        0.481126        0.482824 
       0.848511        0.459085        0.462214 
       0.864097        0.438262        0.442949 
       0.879701        0.419242        0.424766 
       0.895507        0.405218        0.407391 
       0.911279         0.38924        0.391024 
        0.92691        0.372431        0.375692 
       0.942635        0.358232        0.361099 
       0.958396        0.343036         0.34725 
       0.974128        0.329746        0.334152 
       0.989692        0.318644        0.321859 
        1.00528        0.307285        0.310166 
        1.02113        0.293453        0.298871 
        1.03692        0.284338        0.288179 
        1.05264        0.274198        0.278059 
        1.06832         0.26483         0.26844 
        1.08405        0.254111         0.25925 
        1.09979        0.245515        0.250484 
        1.11537         0.23899         0.24221 
        1.13105        0.230599        0.234259 
        1.14679        0.223906        0.226634 
        1.16256         0.21437        0.219334 
        1.17828        0.207482        0.212379 
        1.19395        0.200656        0.205748 
         1.2097        0.193956        0.199366 
        1.22537        0.189519        0.193285 
          1.241        0.182988        0.187476 
        1.25666        0.178544        0.181891 
        1.27241        0.171942        0.176507 
        1.28819        0.166849        0.171331 
        1.30392        0.161807        0.166378 
        1.31957        0.157467        0.161643 
        1.33529        0.152397        0.157074 
        1.35108        0.147894        0.152663 
        1.36674        0.142715        0.148453 
         1.3824        0.140453        0.144406 
        1.39811        0.135797        0.140495 
        1.41389        0.132146        0.136714 
        1.42964        0.129077        0.133079 
        1.44531         0.12451        0.129593 
        1.46101        0.121476        0.126224 
        1.47667        0.117787        0.122985 
        1.49229        0.115286        0.119869 
        1.50793        0.111676        0.116856 
        1.52367        0.109158        0.113927 
        1.53953        0.106552        0.111079 
        1.55526         0.10372        0.108351 
        1.57092        0.100316        0.105725 
        1.58662       0.0984317         0.10318 
        1.60235         0.09644        0.100714 
        1.61809       0.0929056       0.0983268 
        1.63369       0.0916846        0.096038 
        1.64941       0.0892638       0.0938056 
        1.66519        0.086769       0.0916359 
        1.68085       0.0845514       0.0895501 
        1.69652       0.0825476       0.0875284 
        1.71228       0.0810683       0.0855575 
        1.72806       0.0784779       0.0836456 
        1.74368       0.0771465       0.0818112 
        1.75933       0.0753743       0.0800279 
        1.77505       0.0735259       0.0782894 
        1.79081        0.072092       0.0765992 
         1.8065       0.0699785       0.0749661 
        1.82218       0.0687065       0.0733819 
        1.83797       0.0669932       0.0718325 
        1.85367       0.0655384       0.0703363 
        1.86928       0.0643161       0.0688915 
        1.88497       0.0630358       0.0674794 
        1.90073       0.0613947       0.0661015 
        1.91647       0.0599246       0.0647632 
        1.93218       0.0587642       0.0634647 
        1.94787       0.0574402       0.0622036 
        1.96363       0.0563823       0.0609717 
        1.97935       0.0549447       0.0597755 
        1.99499       0.0539887       0.0586182 
        2.01064        0.053007       0.0574897 
         2.0264       0.0518759       0.0563837 
        2.04216       0.0508043       0.0553073 
        2.05781       0.0498061       0.0542657 
        2.07353       0.0484789       0.0532472 
        2.08928       0.0476665       0.0522524 
        2.10499       0.0465416       0.0512857 
        2.12065       0.0459723       0.0503463 
        2.13633       0.0447335       0.0494295 
        2.15211       0.0442485       0.0485295 
        2.16785        0.043236       0.0476544 
        2.18349       0.0421198       0.0468063 
        2.19916       0.0416899        0.045977 
        2.21489       0.0409001        0.045165 
        2.23063       0.0401052        0.044372 
         2.2463       0.0391589       0.0436015 
        2.26194        0.038396       0.0428511 
        2.27765       0.0377002       0.0421146 
        2.29341       0.0372054       0.0413933 
        2.30914       0.0363218       0.0406904 
        2.32486       0.0356992       0.0400041 
        2.34061       0.0351193       0.0393325 
        2.35635       0.0343751       0.0386769 
        2.37203       0.0337957       0.0380384 
        2.38768       0.0331648       0.0374155 
        2.40339       0.0325484       0.0368044 
        2.41914       0.0320945       0.0362054 
        2.43483       0.0314228       0.0356218 
         2.4505       0.0308025        0.035052 
        2.46622       0.0303274       0.0344927 
        2.48195       0.0297265       0.0339455 
        2.49759       0.0293761        0.033413 
        2.51328       0.0289033       0.0328905 
        2.52906       0.0283785       0.0323759 
        2.54479       0.0278609       0.0318741 
        2.56049       0.0274134        0.031384 
        2.57618       0.0269637       0.0309045 
        2.59189       0.0265183       0.0304342 
        2.60758       0.0261298       0.0299745 
        2.62325       0.0256267       0.0295248 
        2.63898       0.0252007       0.0290827 
        2.65468       0.0247113       0.0286505 
        2.67044       0.0244814       0.0282253 
        2.68618       0.0239945       0.0278096 
        2.70184       0.0236017       0.0274039 
        2.71755       0.0231294       0.0270053 
        2.73329       0.0228491        0.026614 
        2.74897        0.022523       0.0262316 
        2.76462       0.0221003       0.0258576 
        2.78034       0.0218126       0.0254893 
        2.79607       0.0214783       0.0251278 
        2.81179       0.0211827       0.0247737 
        2.82749       0.0207698       0.0244268 
        2.84321       0.0204885        0.024086 
        2.85893       0.0201768       0.0237519 
        2.87462       0.0198845       0.0234247 
        2.89033       0.0196179       0.0231033 
        2.90605        0.019222       0.0227876 
        2.92176       0.0190345        0.022478 
        2.93747       0.0187296       0.0221742 
        2.95318       0.0183969        0.021876 
        2.96891       0.0182104       0.0215831 
        2.98456       0.0179814       0.0212968 
        3.00023         0.01765       0.0210153 
        3.01596        0.017354        0.020738 
        3.03164       0.0172018       0.0204665 
        3.04738       0.0169264        0.020199 
         3.0631       0.0165927       0.0199364 
        3.07883       0.0163779       0.0196784 
        3.09456       0.0162593        0.019425 
        3.11026        0.015959       0.0191764 
        3.12596       0.0157947       0.0189322 
        3.14163       0.0155757       0.0186928 
        3.15734       0.0153374       0.0184569 
        3.17308       0.0151397       0.0182246 
        3.18879       0.0149336       0.0179968 
        3.20447       0.0147588       0.0177733 
         3.2202       0.0145769       0.0175528 
         3.2359       0.0143771       0.0173365 
        3.25157       0.0141521       0.0171243 
        3.26729       0.0140091        0.016915 
        3.28304       0.0138048       0.0167088 
        3.29877       0.0136652       0.0165063 
        3.31446       0.0134606       0.0163075 
        3.33014       0.0132938       0.0161122 
        3.34585       0.0131498       0.0159198 
        3.36158       0.0129273       0.0157302 
        3.37727        0.012811       0.0155443 
        3.39294       0.0126676       0.0153616 
        3.40867       0.0125392       0.0151811 
        3.42439         0.01238       0.0150036 
        3.44008       0.0122223       0.0148293 
        3.45578       0.0121201       0.0146576 
        3.47153       0.0119371       0.0144882 
        3.48724       0.0118815       0.0143218 
        3.50292       0.0116597       0.0141584 
        3.51859       0.0115266       0.0139976 
        3.53431       0.0114546       0.0138388 
        3.55007       0.0113152        0.013682 
        3.56577       0.0112239       0.0135283 
        3.58146       0.0110364        0.013377 
        3.59719       0.0109613       0.0132277 
        3.61292       0.0107781       0.0130807 
        3.62859       0.0106903       0.0129364 
        3.64429       0.0106124       0.0127941 
        3.66003       0.0104943       0.0126534 
        3.67578       0.0103859       0.0125149 
        3.69146       0.0103111        0.012379 
        3.70712       0.0102131       0.0122454 
        3.72284       0.0100888       0.0121132 
        3.73853      0.00998182       0.0119832 
        3.75422      0.00994777        0.011855 
        3.76993      0.00980612       0.0117286 
        3.78564      0.00976333       0.0116041 
        3.80137      0.00966369       0.0114812 
        3.81707      0.00953938       0.0113603 
        3.83279      0.00947593       0.0112411 
        3.84853      0.00939679       0.0111233 
        3.86424      0.00927692       0.0110075 
        3.87992       0.0092216       0.0108935 
        3.89561      0.00915118       0.0107811 
        3.91134      0.00909719         0.01067 
        3.92704      0.00896586       0.0105606 
        3.94273      0.00890619       0.0104529 
        3.95845      0.00879807       0.0103464 
        3.97418      0.00874874       0.0102414 
        3.98988      0.00865442        0.010138 
        4.00554      0.00855276       0.0100363 
        4.02125      0.00843549      0.00993574 
        4.03698      0.00832882      0.00983636 
        4.05268      0.00820434      0.00973855 
        4.06839      0.00807464        0.009642 
         4.0841      0.00794289      0.00954678 
        4.09983      0.00781311      0.00945271 
        4.11555       0.0077089      0.00935994 
        4.13124      0.00758579      0.00926866 
        4.14693      0.00748188      0.00917852 
        4.16266      0.00734743      0.00908936 
        4.17839       0.0072633      0.00900144 
        4.19408      0.00718203      0.00891487 
        4.20977      0.00707551       0.0088294 
        4.22551      0.00697419      0.00874484 
        4.24123      0.00688326      0.00866147 
        4.25691      0.00680756      0.00857941 
        4.27259      0.00672611      0.00849838 
        4.28831      0.00668225      0.00841823 
        4.30404      0.00659564      0.00833903 
        4.31974      0.00651466      0.00826102 
        4.33543      0.00645538      0.00818405 
        4.35116      0.00641097      0.00810786 
        4.36688      0.00634473      0.00803268 
        4.38255      0.00630052      0.00795872 
        4.39825      0.00627487      0.00788553 
        4.41398      0.00622817      0.00781311 
         4.4297      0.00618887      0.00774167 
        4.44541      0.00614615      0.00767114 
        4.46111      0.00610837      0.00760153 
        4.47683      0.00609644      0.00753273 
        4.49251      0.00604728      0.00746492 
        4.50819      0.00602615      0.00739796 
         4.5239      0.00602832      0.00733172 
        4.53962      0.00601177      0.00726621 
        4.55535      0.00599333      0.00720146 
        4.57106      0.00601276      0.00713759 
        4.58678      0.00596714      0.00707447 
         4.6025      0.00598138       0.0070121 
        4.61821      0.00599121       0.0069505 
        4.63391      0.00600293       0.0068897 
         4.6496      0.00600366      0.00682966 
        4.66532      0.00600523      0.00677023 
        4.68103      0.00604112      0.00671154 
        4.69673       0.0060485      0.00665359 
        4.71241      0.00608026      0.00659639 
        4.72811      0.00608637      0.00653975 
        4.74384       0.0061213      0.00648371 
        4.75955      0.00614804      0.00642841 
        4.77525      0.00618799      0.00637378 
        4.79096      0.00624546      0.00631972 
        4.80669      0.00624448      0.00626625 
         4.8224      0.00631745      0.00621346 
        4.83809      0.00635038      0.00616133 
        4.85379       0.0064147      0.00610977 
         4.8695      0.00645704      0.00605875 
        4.88521      0.00650169      0.00600833 
        4.90093      0.00657735      0.00595847 
        4.91663      0.00666155      0.00590923 
        4.93234      0.00670635      0.00586048 
        4.94807      0.00678445      0.00581225 
        4.96377      0.00686786      0.00576465 
        4.97943       0.0069697      0.00571769 
        4.99514      0.00700126      0.00567112 
        5.01086      0.00710239      0.00562503 
        5.02654      0.00721227      0.00557957 
        5.04227      0.00730139      0.00553448 
          5.058      0.00740037      0.00548986 
        5.07371      0.00751621      0.00544582 
        5.08942      0.00765473      0.00540225 
        5.10513      0.00772055      0.00535915 
        5.12084      0.00780571       0.0053165 
        5.13656      0.00796668      0.00527432 
        5.15225      0.00807974      0.00523267 
        5.16796      0.00822975       0.0051914 
        5.18369      0.00832915      0.00515053 
         5.1994      0.00848702      0.00511018 
        5.21509      0.00863816      0.00507029 
        5.23079      0.00873657      0.00503078 
        5.24649      0.00892798      0.00499172 
        5.26217      0.00905753       0.0049531 
        5.27788      0.00925381      0.00491483 
        5.29359      0.00940392      0.00487696 
        5.30933      0.00962219      0.00483943 
        5.32504      0.00973382      0.00480236 
        5.34073       0.0100052      0.00476571 
        5.35646       0.0101421      0.00472937 
        5.37218       0.0103301       0.0046934 
        5.38789       0.0105792      0.00465786 
        5.40357       0.0107386      0.00462273 
        5.41929       0.0108958      0.00458788 
        5.43502       0.0111714      0.00455339 
         5.4507       0.0114088      0.00451933 
        5.46639       0.0116773      0.00448561 
        5.48212       0.0117833      0.00445215 
        5.49786       0.0120952        0.004419 
        5.51353       0.0124204      0.00438635 
        5.52921       0.0126788      0.00435399 
        5.54495       0.0129729      0.00432186 
        5.56066       0.0132232      0.00429009 
        5.57637         0.01354      0.00425864 
        5.59207       0.0137965      0.00422753 
        5.60778       0.0141158      0.00419672 
        5.62346       0.0144467      0.00416626 
        5.63916       0.0147385      0.00413607 
        5.65487       0.0151231      0.00410617 
         5.6706       0.0154091      0.00407652 
        5.68633       0.0158219      0.00404715 
        5.70203       0.0161446      0.00401813 
        5.71773       0.0166042       0.0039894 
        5.73344       0.0169515      0.00396094 
        5.74916       0.0174008      0.00393272 
        5.76486       0.0177557      0.00390482 
        5.78054       0.0180931      0.00387723 
        5.79626        0.018658      0.00384983 
          5.812       0.0190496      0.00382266 
         5.8277       0.0196026      0.00379583 
        5.84339       0.0199209      0.00376926 
        5.85911       0.0205715       0.0037429 
        5.87484       0.0210891      0.00371678 
        5.89053       0.0215527      0.00369097 
        5.90623       0.0220877      0.00366539 
        5.92195       0.0227611      0.00364001 
        5.93767       0.0232861      0.00361488 
        5.95336       0.0238469      0.00359002 
        5.96905        0.024492      0.00356541 
        5.98476       0.0249364        0.003541 
        6.00048       0.0256706       0.0035168 
        6.01617       0.0262691      0.00349286 
        6.03185       0.0270243      0.00346918 
        6.04756       0.0276667      0.00344565 
        6.06331       0.0285319      0.00342229 
        6.07903        0.029263       0.0033992 
        6.09473       0.0299224      0.00337634 
        6.11044       0.0309153      0.00335367 
        6.12616       0.0318333      0.00333121 
        6.14186       0.0326435      0.00330897 
        6.15755       0.0334156      0.00328694 
        6.17326       0.0340825      0.00326509 
        6.18898       0.0352811      0.00324343 
        6.20467       0.0365041      0.00322201 
        6.22036       0.0373416      0.00320077 
         6.2361       0.0383153      0.00317968 
         6.2518       0.0395743       0.0031588 
        6.26748        0.040253      0.00313816 
        6.28319       0.0417469      0.00311764 
        6.29893       0.0428697      0.00309729 
        6.31463       0.0441194      0.00307716 
        6.33033       0.0453093      0.00305721 
        6.34604       0.0467012      0.00303742 
        6.36177       0.0481705      0.00301778 
        6.37747       0.0494001      0.00299836 
