# k  (h/Mpc)    Pcb(k)  (Mpc/h)^3    Pcb_linear(k) (Mpc/h)^3   ShotnoiseSubtracted = true
      0.0200456         16117.4         16402.5 
      0.0350414         9931.32           10228 
      0.0492313         6677.75         6694.68 
      0.0637834         5641.01         5456.94 
      0.0800726         4429.54         4313.66 
       0.096163         2911.19         2928.32 
       0.111083         2222.48         2202.78 
       0.126058          2047.4         1969.93 
       0.142273          1796.8         1699.35 
       0.158546         1478.98         1292.56 
        0.17375         1145.08         1039.76 
       0.188953         1108.73         942.706 
       0.204907         1043.83         852.156 
       0.220756         882.299         711.141 
        0.23588         770.607         597.727 
         0.2514         663.961         537.659 
       0.267535         648.508         493.377 
       0.283568         585.837         434.499 
       0.299022         545.875         379.239 
       0.314451         511.586         342.251 
       0.330372          469.42         315.392 
       0.346141         424.546         286.969 
       0.361624         410.138         258.224 
       0.377134         377.265         235.007 
       0.392932         357.208         217.115 
       0.408854         342.821         200.433 
       0.424564         321.823         183.956 
       0.440253          313.43         169.283 
       0.455999          293.36         157.132 
       0.471626         276.914         146.469 
        0.48727          264.68         136.254 
       0.502856         256.055         126.821 
       0.518488         252.957         118.488 
       0.534347         237.177         110.982 
       0.550082         223.536         104.078 
       0.565732         219.387         97.6634 
       0.581496         207.012         91.7778 
       0.597222         202.317          86.462 
       0.612804         196.131         81.6108 
       0.628434         187.934         77.0802 
       0.644267         181.884         72.8225 
       0.660051         179.349         68.9212 
       0.675724         174.737         65.3411 
       0.691403         169.612         62.0104 
       0.707174         163.407         58.8906 
       0.722871         160.489         55.9956 
        0.73838         157.424         53.3242 
       0.754018         153.553         50.8053 
       0.769845         148.258         48.4205 
        0.78569         146.675         46.1856 
       0.801365         141.041         44.1129 
       0.817031         136.872         42.1685 
       0.832809         135.795         40.3289 
       0.848511         131.136         38.6074 
       0.864097         129.802         36.9983 
       0.879701         126.808         35.4795 
       0.895507         123.304         34.0282 
       0.911279         120.005         32.6611 
        0.92691         119.743         31.3805 
       0.942635         116.049         30.1616 
       0.958396         115.785         29.0048 
       0.974128         112.641         27.9108 
       0.989692         110.341          26.884 
        1.00528         108.257         25.9073 
        1.02113         107.022         24.9638 
        1.03692          104.16         24.0708 
        1.05264          102.17         23.2255 
        1.06832         100.297          22.422 
        1.08405         98.7975         21.6544 
        1.09979         98.0796         20.9222 
        1.11537         95.4956         20.2311 
        1.13105         94.4891          19.567 
        1.14679          93.581         18.9301 
        1.16256         92.2644         18.3203 
        1.17828         90.5692         17.7394 
        1.19395         88.6328         17.1855 
         1.2097         87.3739         16.6525 
        1.22537         86.7778         16.1446 
          1.241         85.2211         15.6594 
        1.25666         83.6552         15.1928 
        1.27241         82.0899         14.7431 
        1.28819         81.3578         14.3108 
        1.30392         79.5844         13.8971 
        1.31957         79.2477         13.5016 
        1.33529         77.2959         13.1199 
        1.35108         76.5752         12.7515 
        1.36674         76.0045         12.3999 
         1.3824         74.4322         12.0618 
        1.39811         73.3979         11.7352 
        1.41389         72.6086         11.4194 
        1.42964          71.054         11.1157 
        1.44531         69.9786         10.8245 
        1.46101         69.0414         10.5432 
        1.47667         69.0231         10.2726 
        1.49229         67.8338         10.0123 
        1.50793         67.2233         9.76064 
        1.52367         65.9772         9.51602 
        1.53953           65.04         9.27812 
        1.55526         64.5737         9.05024 
        1.57092         64.2288         8.83093 
        1.58662         62.4082         8.61836 
        1.60235         62.3891         8.41235 
        1.61809         61.3942         8.21296 
        1.63369         60.7268         8.02178 
        1.64941         60.4039         7.83532 
        1.66519         58.7917         7.65409 
        1.68085          58.756         7.47987 
        1.69652          57.453           7.311 
        1.71228         57.1672         7.14638 
        1.72806         56.7474         6.98668 
        1.74368         55.9448         6.83346 
        1.75933         54.9459         6.68451 
        1.77505         54.7651         6.53929 
        1.79081         53.9091         6.39812 
         1.8065         53.1833         6.26171 
        1.82218         52.7166         6.12938 
        1.83797         52.0845         5.99997 
        1.85367         51.7964         5.87499 
        1.86928         50.9827         5.75432 
        1.88497         50.4853         5.63636 
        1.90073         49.7153         5.52127 
        1.91647         49.5088         5.40949 
        1.93218         49.0455         5.30103 
        1.94787         48.3459         5.19569 
        1.96363         47.8012         5.09279 
        1.97935         47.4555         4.99288 
        1.99499         46.8615         4.89621 
        2.01064         46.3022         4.80195 
         2.0264         45.4743         4.70957 
        2.04216         45.3273         4.61967 
        2.05781         44.7664         4.53266 
        2.07353         43.9996         4.44759 
        2.08928         43.8743          4.3645 
        2.10499         43.1857         4.28375 
        2.12065          42.885         4.20528 
        2.13633         42.4413         4.12871 
        2.15211          42.209         4.05354 
        2.16785         41.7396         3.98044 
        2.18349         41.3823          3.9096 
        2.19916         40.7064         3.84033 
        2.21489         40.4818         3.77251 
        2.23063          40.089         3.70627 
         2.2463         39.5384         3.64191 
        2.26194           38.96         3.57924 
        2.27765          38.963         3.51771 
        2.29341         38.3279         3.45747 
        2.30914         37.8359         3.39876 
        2.32486         37.2486         3.34143 
        2.34061         37.2293         3.28533 
        2.35635         36.5669         3.23057 
        2.37203         36.3532         3.17724 
        2.38768         35.9081         3.12522 
        2.40339         35.6105         3.07417 
        2.41914         35.2663         3.02413 
        2.43483         35.0115         2.97539 
         2.4505         34.7941         2.92779 
        2.46622         34.1734         2.88108 
        2.48195         33.9491         2.83537 
        2.49759         33.4819         2.79089 
        2.51328         33.2543         2.74725 
        2.52906          32.871         2.70427 
        2.54479         32.5461         2.66236 
        2.56049          32.074         2.62141 
        2.57618         31.9528         2.58136 
        2.59189         31.4645         2.54209 
        2.60758         31.4096         2.50369 
        2.62325         30.9269         2.46612 
        2.63898         30.6492         2.42919 
        2.65468          30.156          2.3931 
        2.67044         30.0162         2.35758 
        2.68618         29.7456         2.32286 
        2.70184         29.4871         2.28897 
        2.71755          29.214         2.25568 
        2.73329         28.9834         2.22299 
        2.74897         28.5861         2.19105 
        2.76462         28.2885         2.15981 
        2.78034         28.1584         2.12905 
        2.79607         27.8508         2.09886 
        2.81179         27.5999         2.06928 
        2.82749         27.2478          2.0403 
        2.84321         27.0741         2.01184 
        2.85893         26.8535         1.98393 
        2.87462         26.5388          1.9566 
        2.89033         26.2288         1.92975 
        2.90605         26.1006         1.90338 
        2.92176         25.8648         1.87752 
        2.93747         25.6016         1.85215 
        2.95318          25.333         1.82724 
        2.96891         25.1245         1.80278 
        2.98456         24.8818         1.77887 
        3.00023         24.5866         1.75535 
        3.01596         24.3658         1.73219 
        3.03164         24.2131         1.70951 
        3.04738         23.9602         1.68717 
         3.0631         23.6933         1.66523 
        3.07883         23.5503         1.64368 
        3.09456         23.3142         1.62251 
        3.11026         23.1357         1.60175 
        3.12596         22.9068         1.58135 
        3.14163           22.68         1.56135 
        3.15734         22.4939         1.54165 
        3.17308         22.2572         1.52225 
        3.18879         22.1026         1.50322 
        3.20447         21.9284         1.48455 
         3.2202         21.6559         1.46614 
         3.2359         21.4712         1.44807 
        3.25157         21.2685         1.43035 
        3.26729         21.1643         1.41286 
        3.28304         20.8823         1.39564 
        3.29877         20.7514         1.37872 
        3.31446         20.4621         1.36212 
        3.33014         20.3437         1.34581 
        3.34585         20.1639         1.32974 
        3.36158         19.9593          1.3139 
        3.37727         19.8109         1.29837 
        3.39294         19.6438         1.28311 
        3.40867          19.478         1.26803 
        3.42439         19.2699         1.25321 
        3.44008         19.1842         1.23865 
        3.45578         18.9167          1.2243 
        3.47153          18.745         1.21016 
        3.48724         18.6082         1.19626 
        3.50292         18.5373         1.18261 
        3.51859         18.2831         1.16918 
        3.53431         18.1387         1.15591 
        3.55007          17.963         1.14282 
        3.56577         17.8015         1.12998 
        3.58146         17.6362         1.11735 
        3.59719         17.4735         1.10487 
        3.61292         17.3443         1.09259 
        3.62859         17.2111         1.08054 
        3.64429         17.0498         1.06865 
        3.66003         16.9274         1.05691 
        3.67578          16.812         1.04534 
        3.69146         16.6775         1.03399 
        3.70712         16.4417         1.02282 
        3.72284          16.338         1.01178 
        3.73853         16.2107         1.00092 
        3.75422         16.1069        0.990218 
        3.76993         15.9327         0.97966 
        3.78564         15.7608         0.96926 
        3.80137         15.6713        0.958993 
        3.81707         15.5634        0.948895 
        3.83279         15.3664        0.938934 
        3.84853         15.2153          0.9291 
        3.86424         15.1188        0.919425 
        3.87992         14.9812        0.909901 
        3.89561         14.8607        0.900511 
        3.91134         14.7683        0.891234 
        3.92704         14.6052        0.882098 
        3.94273         14.5276        0.873099 
        3.95845         14.3695        0.864208 
        3.97418         14.2899        0.855438 
        3.98988         14.1797        0.846801 
        4.00554         14.0192        0.838307 
        4.02125         13.9231        0.829904 
        4.03698         13.8084        0.821603 
        4.05268         13.6678        0.813434 
        4.06839         13.5494        0.805369 
         4.0841          13.468        0.797416 
        4.09983          13.361        0.789559 
        4.11555         13.2299         0.78181 
        4.13124         13.1495        0.774186 
        4.14693         13.0373        0.766656 
        4.16266         12.9238        0.759209 
        4.17839         12.8228        0.751865 
        4.19408         12.7262        0.744634 
        4.20977         12.6039        0.737495 
        4.22551         12.4802        0.730432 
        4.24123         12.3842        0.723468 
        4.25691         12.2753        0.716614 
        4.27259         12.2112        0.709846 
        4.28831         12.0948        0.703151 
        4.30404              12        0.696536 
        4.31974         11.9005         0.69002 
        4.33543         11.8122         0.68359 
        4.35116         11.6944        0.677227 
        4.36688         11.6431        0.670947 
        4.38255         11.5316         0.66477 
        4.39825         11.4623        0.658656 
        4.41398          11.331        0.652607 
         4.4297         11.2533         0.64664 
        4.44541         11.1678        0.640748 
        4.46111         11.0767        0.634934 
        4.47683         10.9711        0.629188 
        4.49251         10.9112        0.623524 
        4.50819         10.8527        0.617931 
         4.5239         10.7405        0.612398 
        4.53962         10.6442        0.606926 
        4.55535         10.5992        0.601517 
        4.57106         10.5153        0.596183 
        4.58678         10.3891        0.590911 
         4.6025         10.3326        0.585701 
        4.61821         10.2609        0.580555 
        4.63391          10.177        0.575478 
         4.6496         10.0993        0.570462 
        4.66532         10.0126        0.565499 
        4.68103         9.92597        0.560596 
        4.69673          9.8726        0.555756 
        4.71241         9.77696        0.550978 
        4.72811          9.7103        0.546247 
        4.74384         9.64215        0.541566 
        4.75955         9.55338        0.536947 
        4.77525         9.47539        0.532384 
        4.79096         9.41225        0.527868 
        4.80669         9.33145        0.523402 
         4.8224         9.29213        0.518993 
        4.83809         9.21103        0.514639 
        4.85379         9.12663        0.510332 
         4.8695         9.08012         0.50607 
        4.88521          9.0154        0.501859 
        4.90093         8.93685        0.497695 
        4.91663          8.8747        0.493581 
        4.93234         8.80523         0.48951 
        4.94807         8.74734        0.485481 
        4.96377         8.66827        0.481505 
        4.97943         8.62356        0.477582 
        4.99514         8.55082        0.473692 
        5.01086         8.48877        0.469843 
        5.02654         8.41543        0.466046 
        5.04227         8.35887        0.462279 
          5.058         8.31305        0.458552 
        5.07371         8.24775        0.454874 
        5.08942         8.17232        0.451235 
        5.10513         8.12862        0.447635 
        5.12084         8.05614        0.444073 
        5.13656         8.01381        0.440549 
        5.15225         7.94607         0.43707 
        5.16796         7.88164        0.433623 
        5.18369         7.82418         0.43021 
         5.1994         7.78527        0.426839 
        5.21509         7.73245        0.423507 
        5.23079         7.65892        0.420207 
        5.24649         7.59953        0.416944 
        5.26217         7.54887        0.413719 
        5.27788         7.49663        0.410522 
        5.29359         7.43985        0.407359 
        5.30933          7.3914        0.404224 
        5.32504         7.34128        0.401127 
        5.34073         7.28658        0.398066 
        5.35646         7.21933        0.395031 
        5.37218         7.18703        0.392027 
        5.38789         7.12279        0.389058 
        5.40357         7.09888        0.386124 
        5.41929         7.04076        0.383213 
        5.43502         6.99349        0.380332 
         5.4507         6.94384        0.377487 
        5.46639         6.88864         0.37467 
        5.48212         6.83687        0.371876 
        5.49786         6.80895        0.369107 
        5.51353         6.74138        0.366379 
        5.52921          6.7057        0.363676 
        5.54495         6.66978        0.360993 
        5.56066         6.62146        0.358339 
        5.57637          6.5741        0.355712 
        5.59207         6.52765        0.353114 
        5.60778         6.49073         0.35054 
        5.62346         6.44485        0.347996 
        5.63916         6.39139        0.345475 
        5.65487         6.36146        0.342977 
         5.6706         6.30601          0.3405 
        5.68633         6.27103        0.338047 
        5.70203         6.22412        0.335623 
        5.71773          6.1816        0.333224 
        5.73344         6.15146        0.330846 
        5.74916         6.10257        0.328489 
        5.76486         6.06103        0.326159 
        5.78054         6.03204        0.323854 
        5.79626         5.98895        0.321565 
          5.812         5.95733        0.319296 
         5.8277         5.90085        0.317055 
        5.84339         5.86472        0.314836 
        5.85911         5.83068        0.312634 
        5.87484         5.79357        0.310452 
        5.89053         5.74601        0.308296 
        5.90623          5.7032         0.30616 
        5.92195         5.67725         0.30404 
        5.93767         5.63458        0.301941 
        5.95336         5.59305        0.299865 
        5.96905         5.55086        0.297809 
        5.98476         5.52797         0.29577 
        6.00048         5.50284        0.293749 
        6.01617         5.46204        0.291749 
        6.03185         5.43063        0.289771 
        6.04756         5.39277        0.287806 
        6.06331         5.36284        0.285855 
        6.07903         5.33037        0.283926 
        6.09473         5.28509        0.282016 
        6.11044         5.25528        0.280122 
        6.12616         5.21389        0.278246 
        6.14186         5.18739        0.276389 
        6.15755         5.15711        0.274549 
        6.17326         5.11977        0.272724 
        6.18898         5.09114        0.270915 
        6.20467         5.06255        0.269125 
        6.22036         5.02523        0.267352 
         6.2361         4.99204        0.265589 
         6.2518         4.96715        0.263846 
        6.26748         4.93502        0.262122 
        6.28319         4.90787        0.260408 
        6.29893         4.86714        0.258708 
        6.31463         4.83245        0.257026 
        6.33033         4.81439         0.25536 
        6.34604         4.78261        0.253707 
        6.36177         4.75872        0.252067 
        6.37747         4.72758        0.250444 
