# k  (h/Mpc)    Pcb(k)  (Mpc/h)^3    Pcb_linear(k) (Mpc/h)^3   ShotnoiseSubtracted = true
      0.0200456         49.3169          49.913 
      0.0350414          31.355          31.124 
      0.0492313         20.5236          20.372 
      0.0637834         16.6738         16.6055 
      0.0800726         13.0987         13.1265 
       0.096163         8.96217         8.91093 
       0.111083         6.74991         6.70311 
       0.126058         5.99445         5.99453 
       0.142273         5.15618         5.17114 
       0.158546         3.95407         3.93328 
        0.17375         3.17595         3.16399 
       0.188953         2.86877         2.86867 
       0.204907         2.59834         2.59312 
       0.220756         2.16981         2.16401 
        0.23588         1.82752         1.81889 
         0.2514         1.63758          1.6361 
       0.267535          1.4988         1.50135 
       0.283568         1.32235         1.32219 
       0.299022         1.15759         1.15403 
       0.314451         1.03914         1.04147 
       0.330372        0.958061        0.959743 
       0.346141        0.872017         0.87325 
       0.361624        0.786417         0.78578 
       0.377134        0.716603         0.71513 
       0.392932         0.65636        0.660686 
       0.408854        0.610063         0.60992 
       0.424564        0.557976        0.559781 
       0.440253        0.514505        0.515131 
       0.455999        0.478651        0.478154 
       0.471626        0.446059        0.445709 
        0.48727        0.413619        0.414623 
       0.502856        0.384463        0.385918 
       0.518488        0.361195        0.360561 
       0.534347        0.339295        0.337719 
       0.550082        0.315789        0.316712 
       0.565732        0.294763        0.297191 
       0.581496        0.278809        0.279281 
       0.597222        0.262843        0.263105 
       0.612804        0.247766        0.248343 
       0.628434        0.234726        0.234556 
       0.644267        0.221092          0.2216 
       0.660051        0.208721        0.209728 
       0.675724        0.198467        0.198834 
       0.691403        0.188492        0.188699 
       0.707174         0.17875        0.179205 
       0.722871         0.16927        0.170395 
        0.73838        0.161928        0.162266 
       0.754018        0.154598        0.154601 
       0.769845        0.147268        0.147344 
        0.78569        0.140201        0.140543 
       0.801365        0.133648        0.134236 
       0.817031        0.127883        0.128319 
       0.832809         0.12235        0.122721 
       0.848511        0.116993        0.117483 
       0.864097          0.1119        0.112586 
       0.879701        0.107039        0.107965 
       0.895507        0.103277        0.103548 
       0.911279       0.0990185       0.0993884 
        0.92691       0.0948811       0.0954914 
       0.942635        0.091373       0.0917821 
       0.958396       0.0876614        0.088262 
       0.974128       0.0843071        0.084933 
       0.989692       0.0813211       0.0818084 
        1.00528        0.078498       0.0788363 
        1.02113       0.0752174       0.0759654 
        1.03692        0.072637       0.0732478 
        1.05264        0.070161       0.0706755 
        1.06832       0.0677176       0.0682306 
        1.08405       0.0653003       0.0658947 
        1.09979        0.063031       0.0636666 
        1.11537       0.0612348       0.0615635 
        1.13105       0.0591286       0.0595427 
        1.14679       0.0572722       0.0576047 
        1.16256       0.0551466       0.0557491 
        1.17828       0.0533782       0.0539812 
        1.19395       0.0516771       0.0522958 
         1.2097        0.050069       0.0506737 
        1.22537        0.048751       0.0491282 
          1.241       0.0471617       0.0476517 
        1.25666       0.0458463       0.0462321 
        1.27241       0.0443705       0.0448636 
        1.28819       0.0431087       0.0435481 
        1.30392       0.0417492       0.0422891 
        1.31957         0.04063       0.0410854 
        1.33529       0.0393864       0.0399242 
        1.35108       0.0383238       0.0388031 
        1.36674       0.0370876        0.037733 
         1.3824       0.0363157       0.0367042 
        1.39811       0.0352398       0.0357103 
        1.41389       0.0342564       0.0347493 
        1.42964       0.0334475       0.0338253 
        1.44531         0.03244       0.0329393 
        1.46101       0.0315801       0.0320831 
        1.47667       0.0307608       0.0312598 
        1.49229       0.0299937       0.0304675 
        1.50793       0.0291752       0.0297018 
        1.52367       0.0284869       0.0289574 
        1.53953       0.0278469       0.0282335 
        1.55526       0.0271025         0.02754 
        1.57092       0.0263047       0.0268727 
        1.58662       0.0257712       0.0262258 
        1.60235       0.0252279       0.0255989 
        1.61809       0.0244545       0.0249922 
        1.63369       0.0239725       0.0244104 
        1.64941        0.023466        0.023843 
        1.66519       0.0228389       0.0232915 
        1.68085       0.0222965       0.0227613 
        1.69652       0.0217436       0.0222475 
        1.71228       0.0213499       0.0217465 
        1.72806       0.0207621       0.0212606 
        1.74368       0.0203471       0.0207943 
        1.75933       0.0199207       0.0203411 
        1.77505       0.0194508       0.0198992 
        1.79081       0.0190459       0.0194696 
         1.8065       0.0185719       0.0190545 
        1.82218       0.0182224       0.0186518 
        1.83797       0.0178202        0.018258 
        1.85367       0.0174122       0.0178777 
        1.86928       0.0171208       0.0175105 
        1.88497       0.0167606       0.0171515 
        1.90073       0.0163984       0.0168013 
        1.91647       0.0159871       0.0164612 
        1.93218       0.0156933       0.0161311 
        1.94787       0.0153589       0.0158106 
        1.96363       0.0150955       0.0154974 
        1.97935        0.014744       0.0151934 
        1.99499       0.0144709       0.0148992 
        2.01064       0.0142243       0.0146124 
         2.0264       0.0139518       0.0143313 
        2.04216       0.0136294       0.0140577 
        2.05781       0.0133904        0.013793 
        2.07353       0.0130792       0.0135341 
        2.08928       0.0128808       0.0132812 
        2.10499       0.0125701       0.0130355 
        2.12065       0.0124079       0.0127967 
        2.13633       0.0121284       0.0125637 
        2.15211       0.0119562        0.012335 
        2.16785       0.0117263       0.0121125 
        2.18349       0.0114596        0.011897 
        2.19916       0.0113128       0.0116862 
        2.21489       0.0111153       0.0114798 
        2.23063       0.0108964       0.0112782 
         2.2463       0.0106669       0.0110824 
        2.26194       0.0104784       0.0108917 
        2.27765       0.0103087       0.0107044 
        2.29341       0.0101459       0.0105211 
        2.30914      0.00995764       0.0103425 
        2.32486      0.00978012        0.010168 
        2.34061      0.00962894      0.00999732 
        2.35635      0.00943533      0.00983067 
        2.37203      0.00927302      0.00966838 
        2.38768      0.00910826      0.00951008 
        2.40339      0.00895891      0.00935473 
        2.41914      0.00882262      0.00920249 
        2.43483      0.00864848      0.00905415 
         2.4505      0.00852334      0.00890932 
        2.46622      0.00838963      0.00876716 
        2.48195      0.00824692      0.00862807 
        2.49759      0.00811375      0.00849273 
        2.51328      0.00799571      0.00835993 
        2.52906      0.00787896      0.00822913 
        2.54479      0.00775026      0.00810159 
        2.56049      0.00761677        0.007977 
        2.57618       0.0075025      0.00785513 
        2.59189      0.00737707      0.00773561 
        2.60758      0.00725885      0.00761875 
        2.62325      0.00715577      0.00750444 
        2.63898      0.00703731      0.00739207 
        2.65468      0.00692535      0.00728223 
        2.67044      0.00683494      0.00717414 
        2.68618      0.00672421      0.00706849 
        2.70184      0.00661333      0.00696538 
        2.71755      0.00649761      0.00686406 
        2.73329      0.00640221      0.00676459 
        2.74897      0.00632825      0.00666741 
        2.76462      0.00622135      0.00657235 
        2.78034      0.00613139      0.00647874 
        2.79607      0.00604578      0.00638685 
        2.81179      0.00595853      0.00629684 
        2.82749      0.00586617      0.00620866 
        2.84321      0.00578919      0.00612206 
        2.85893      0.00569175      0.00603713 
        2.87462      0.00560818      0.00595396 
        2.89033       0.0055544      0.00587226 
        2.90605      0.00546223      0.00579203 
        2.92176      0.00539632      0.00571333 
        2.93747      0.00530716      0.00563612 
        2.95318      0.00523739      0.00556032 
        2.96891      0.00516878      0.00548587 
        2.98456      0.00510914      0.00541311 
        3.00023      0.00502236      0.00534156 
        3.01596      0.00493255      0.00527108 
        3.03164      0.00489914      0.00520206 
        3.04738      0.00482037      0.00513407 
         3.0631      0.00473938      0.00506732 
        3.07883      0.00467845      0.00500174 
        3.09456      0.00463897      0.00493733 
        3.11026      0.00456028      0.00487415 
        3.12596      0.00451261      0.00481208 
        3.14163      0.00444409      0.00475123 
        3.15734      0.00438244      0.00469128 
        3.17308      0.00432314      0.00463222 
        3.18879      0.00427967      0.00457433 
        3.20447       0.0042217      0.00451751 
         3.2202      0.00417193      0.00446148 
         3.2359      0.00411431      0.00440649 
        3.25157       0.0040548      0.00435256 
        3.26729      0.00401876      0.00429936 
        3.28304      0.00395692      0.00424695 
        3.29877      0.00391635      0.00419547 
        3.31446      0.00386664      0.00414496 
        3.33014      0.00380659      0.00409532 
        3.34585      0.00375705      0.00404641 
        3.36158      0.00371621      0.00399822 
        3.37727      0.00367843      0.00395097 
        3.39294      0.00363198      0.00390452 
        3.40867      0.00359708      0.00385864 
        3.42439      0.00354666      0.00381353 
        3.44008      0.00350291      0.00376922 
        3.45578      0.00346152      0.00372558 
        3.47153      0.00341986      0.00368253 
        3.48724      0.00339283      0.00364023 
        3.50292      0.00333403       0.0035987 
        3.51859      0.00330049      0.00355783 
        3.53431      0.00326597      0.00351746 
        3.55007      0.00324015      0.00347762 
        3.56577       0.0032075      0.00343855 
        3.58146      0.00314806       0.0034001 
        3.59719      0.00312172      0.00336214 
        3.61292      0.00308284      0.00332477 
        3.62859      0.00305301      0.00328811 
        3.64429      0.00301966      0.00325193 
        3.66003       0.0029914      0.00321618 
        3.67578      0.00295234      0.00318098 
        3.69146      0.00292363      0.00314644 
        3.70712      0.00289538      0.00311247 
        3.72284      0.00286024      0.00307887 
        3.73853        0.002828      0.00304582 
        3.75422      0.00280593      0.00301325 
        3.76993      0.00277301      0.00298112 
        3.78564      0.00275748      0.00294947 
        3.80137      0.00272573      0.00291823 
        3.81707      0.00269066       0.0028875 
        3.83279      0.00266905      0.00285719 
        3.84853      0.00264079      0.00282726 
        3.86424      0.00260913      0.00279782 
        3.87992      0.00258648      0.00276884 
        3.89561      0.00256235      0.00274027 
        3.91134      0.00254446      0.00271204 
        3.92704      0.00251237      0.00268424 
        3.94273      0.00250013      0.00265685 
        3.95845      0.00246422       0.0026298 
        3.97418      0.00244125      0.00260311 
        3.98988      0.00243109      0.00257683 
        4.00554      0.00239249      0.00255098 
        4.02125      0.00236276      0.00252541 
        4.03698      0.00233743      0.00250015 
        4.05268      0.00230391      0.00247529 
        4.06839      0.00227777      0.00245075 
         4.0841       0.0022444      0.00242655 
        4.09983      0.00222266      0.00240264 
        4.11555       0.0021944      0.00237906 
        4.13124      0.00216622      0.00235586 
        4.14693      0.00214354      0.00233295 
        4.16266       0.0021157      0.00231028 
        4.17839      0.00209509      0.00228794 
        4.19408      0.00207111      0.00226593 
        4.20977      0.00205763      0.00224421 
        4.22551      0.00203693      0.00222272 
        4.24123      0.00201162      0.00220152 
        4.25691      0.00199256      0.00218067 
        4.27259      0.00197658      0.00216007 
        4.28831      0.00196791       0.0021397 
        4.30404      0.00194683      0.00211957 
        4.31974      0.00193042      0.00209974 
        4.33543       0.0019176      0.00208018 
        4.35116      0.00190306      0.00206081 
        4.36688      0.00188633       0.0020417 
        4.38255      0.00188076       0.0020229 
        4.39825      0.00187009       0.0020043 
        4.41398      0.00185927      0.00198589 
         4.4297      0.00185202      0.00196774 
        4.44541      0.00184559      0.00194981 
        4.46111      0.00183211      0.00193211 
        4.47683      0.00183084      0.00191463 
        4.49251      0.00182205      0.00189739 
        4.50819      0.00181577      0.00188037 
         4.5239      0.00181614      0.00186354 
        4.53962      0.00180891      0.00184688 
        4.55535      0.00180489      0.00183043 
        4.57106      0.00181132      0.00181419 
        4.58678      0.00180513      0.00179815 
         4.6025      0.00180862       0.0017823 
        4.61821       0.0018071      0.00176664 
        4.63391       0.0018077      0.00175119 
         4.6496      0.00181618      0.00173592 
        4.66532      0.00180783      0.00172082 
        4.68103      0.00181345       0.0017059 
        4.69673      0.00181315      0.00169117 
        4.71241      0.00182862      0.00167663 
        4.72811      0.00183433      0.00166224 
        4.74384      0.00183823      0.00164799 
        4.75955      0.00184794      0.00163394 
        4.77525      0.00185802      0.00162005 
        4.79096      0.00186781      0.00160631 
        4.80669      0.00187356      0.00159272 
         4.8224      0.00188407       0.0015793 
        4.83809      0.00189415      0.00156605 
        4.85379      0.00191567      0.00155295 
         4.8695      0.00192944      0.00153998 
        4.88521      0.00193178      0.00152716 
        4.90093      0.00195482      0.00151449 
        4.91663      0.00197127      0.00150198 
        4.93234       0.0019816      0.00148959 
        4.94807      0.00200976      0.00147733 
        4.96377      0.00203569      0.00146523 
        4.97943      0.00205489      0.00145329 
        4.99514      0.00207118      0.00144145 
        5.01086      0.00208447      0.00142974 
        5.02654      0.00211016      0.00141818 
        5.04227      0.00213135      0.00140672 
          5.058      0.00216622      0.00139538 
        5.07371      0.00219928      0.00138419 
        5.08942      0.00222616      0.00137311 
        5.10513       0.0022397      0.00136216 
        5.12084      0.00227749      0.00135132 
        5.13656      0.00230467       0.0013406 
        5.15225      0.00234062      0.00133001 
        5.16796      0.00237411      0.00131952 
        5.18369      0.00241163      0.00130913 
         5.1994      0.00245596      0.00129888 
        5.21509      0.00248179      0.00128874 
        5.23079      0.00251153       0.0012787 
        5.24649       0.0025643      0.00126877 
        5.26217      0.00260398      0.00125895 
        5.27788       0.0026474      0.00124923 
        5.29359      0.00269227       0.0012396 
        5.30933       0.0027355      0.00123006 
        5.32504      0.00278706      0.00122064 
        5.34073      0.00284674      0.00121132 
        5.35646      0.00288609      0.00120209 
        5.37218      0.00292346      0.00119294 
        5.38789      0.00297845      0.00118391 
        5.40357      0.00303705      0.00117498 
        5.41929      0.00309481      0.00116612 
        5.43502       0.0031589      0.00115735 
         5.4507      0.00322731       0.0011487 
        5.46639      0.00329253      0.00114013 
        5.48212      0.00333994      0.00113162 
        5.49786      0.00342388       0.0011232 
        5.51353       0.0034714       0.0011149 
        5.52921      0.00353591      0.00110667 
        5.54495      0.00361886      0.00109851 
        5.56066      0.00370074      0.00109043 
        5.57637      0.00378037      0.00108244 
        5.59207      0.00384498      0.00107453 
        5.60778      0.00393897       0.0010667 
        5.62346      0.00403906      0.00105896 
        5.63916      0.00409795      0.00105128 
        5.65487      0.00419107      0.00104368 
         5.6706       0.0042808      0.00103615 
        5.68633      0.00438696      0.00102868 
        5.70203      0.00447732      0.00102131 
        5.71773      0.00461024      0.00101401 
        5.73344      0.00468193      0.00100677 
        5.74916      0.00480022     0.000999598 
        5.76486      0.00492304     0.000992506 
        5.78054      0.00501851     0.000985493 
        5.79626      0.00512109     0.000978528 
          5.812      0.00525927     0.000971623 
         5.8277      0.00537934     0.000964804 
        5.84339       0.0055523     0.000958051 
        5.85911      0.00566338     0.000951349 
        5.87484      0.00582274     0.000944712 
        5.89053      0.00595173     0.000938151 
        5.90623      0.00612455     0.000931649 
        5.92195      0.00627359     0.000925197 
        5.93767       0.0063739      0.00091881 
        5.95336      0.00653021     0.000912493 
        5.96905      0.00677385     0.000906237 
        5.98476      0.00685879     0.000900032 
        6.00048      0.00705124     0.000893882 
        6.01617      0.00726227     0.000887797 
        6.03185      0.00737485     0.000881776 
        6.04756      0.00762939     0.000875797 
        6.06331      0.00781341      0.00086986 
        6.07903      0.00803456      0.00086399 
        6.09473      0.00822976     0.000858179 
        6.11044      0.00846145     0.000852417 
        6.12616      0.00866349     0.000846708 
        6.14186      0.00889889     0.000841056 
        6.15755      0.00916439     0.000835457 
        6.17326      0.00942358     0.000829904 
        6.18898      0.00968018     0.000824398 
        6.20467      0.00997729     0.000818952 
        6.22036       0.0102493     0.000813555 
         6.2361       0.0105069     0.000808193 
         6.2518       0.0107748     0.000802887 
        6.26748        0.011078      0.00079764 
        6.28319       0.0114067     0.000792425 
        6.29893       0.0117232     0.000787253 
        6.31463       0.0120892     0.000782135 
        6.33033       0.0124201     0.000777064 
        6.34604       0.0127451     0.000772034 
        6.36177        0.013198     0.000767043 
        6.37747       0.0136064     0.000762106 
