# k  (h/Mpc)    Pcb(k)  (Mpc/h)^3    Pcb_linear(k) (Mpc/h)^3   ShotnoiseSubtracted = true
      0.0200456         1999.84         2025.93 
      0.0350414         1259.13          1263.3 
      0.0492313         832.202         826.883 
      0.0637834         683.673         674.005 
      0.0800726         537.446         532.794 
       0.096163         360.788         361.687 
       0.111083         271.451         272.073 
       0.126058         245.457         243.313 
       0.142273         212.672         209.892 
       0.158546         163.908         159.648 
        0.17375         129.494         128.424 
       0.188953         119.315         116.437 
       0.204907         110.733         105.253 
       0.220756         91.2083         87.8355 
        0.23588         77.1403         73.8273 
         0.2514         68.3886         66.4081 
       0.267535         63.2833         60.9387 
       0.283568         56.1861         53.6665 
       0.299022         49.9641         46.8411 
       0.314451         44.1632         42.2726 
       0.330372         41.0824         38.9552 
       0.346141         37.2371         35.4445 
       0.361624          34.036         31.8941 
       0.377134         31.5401         29.0265 
       0.392932         27.9389         26.8167 
       0.408854         26.7754         24.7561 
       0.424564         24.7819         22.7211 
       0.440253         22.7325         20.9087 
       0.455999          21.251         19.4079 
       0.471626         19.9205         18.0909 
        0.48727         18.6624         16.8292 
       0.502856         17.3597         15.6641 
       0.518488          16.479         14.6348 
       0.534347         15.7393         13.7077 
       0.550082         14.2936         12.8551 
       0.565732         13.1849         12.0627 
       0.581496         12.8687         11.3358 
       0.597222         12.3184         10.6792 
       0.612804         11.4382           10.08 
       0.628434         10.9799         9.52044 
       0.644267         10.5218         8.99456 
       0.660051         9.89062         8.51269 
       0.675724         9.35149          8.0705 
       0.691403         9.02164         7.65912 
       0.707174         8.56691         7.27378 
       0.722871         8.20436         6.91621 
        0.73838         7.81837         6.58625 
       0.754018         7.56143         6.27514 
       0.769845         7.18006         5.98058 
        0.78569         6.92017         5.70454 
       0.801365         6.61109         5.44854 
       0.817031         6.36614         5.20838 
       0.832809         6.17261         4.98116 
       0.848511         5.79247         4.76853 
       0.864097         5.60884         4.56979 
       0.879701          5.4172          4.3822 
       0.895507         5.13889         4.20294 
       0.911279         5.06395         4.03409 
        0.92691          4.8736         3.87592 
       0.942635         4.64269         3.72536 
       0.958396         4.48676         3.58248 
       0.974128         4.35543         3.44736 
       0.989692         4.26206         3.32053 
        1.00528         4.08011          3.1999 
        1.02113         3.92068         3.08337 
        1.03692          3.8197         2.97307 
        1.05264         3.70501         2.86866 
        1.06832         3.60286         2.76942 
        1.08405         3.44252         2.67461 
        1.09979         3.36301         2.58417 
        1.11537         3.27998         2.49881 
        1.13105         3.17534         2.41679 
        1.14679         3.09375         2.33813 
        1.16256         2.98302         2.26281 
        1.17828         2.92232         2.19105 
        1.19395         2.82404         2.12264 
         1.2097         2.72929          2.0568 
        1.22537         2.65189         1.99407 
          1.241         2.59639         1.93414 
        1.25666         2.56491         1.87652 
        1.27241         2.45414         1.82097 
        1.28819         2.39778         1.76758 
        1.30392         2.34907         1.71648 
        1.31957         2.29291         1.66762 
        1.33529         2.22471         1.62049 
        1.35108         2.17149         1.57498 
        1.36674         2.12344         1.53155 
         1.3824         2.04605         1.48979 
        1.39811          2.0058         1.44945 
        1.41389         1.97163         1.41045 
        1.42964          1.9242         1.37294 
        1.44531         1.87939         1.33698 
        1.46101         1.83203         1.30222 
        1.47667          1.7805         1.26881 
        1.49229         1.76259         1.23665 
        1.50793         1.70933         1.20557 
        1.52367          1.6809         1.17536 
        1.53953          1.6275         1.14597 
        1.55526          1.6001         1.11783 
        1.57092         1.56521         1.09074 
        1.58662         1.53124         1.06448 
        1.60235         1.49824         1.03904 
        1.61809         1.46863         1.01441 
        1.63369         1.44561        0.990798 
        1.64941         1.40729        0.967767 
        1.66519         1.38569        0.945383 
        1.68085         1.34755        0.923864 
        1.69652         1.32325        0.903007 
        1.71228         1.30137        0.882674 
        1.72806         1.27044        0.862949 
        1.74368         1.24557        0.844024 
        1.75933         1.22105        0.825626 
        1.77505         1.20341         0.80769 
        1.79081         1.17742        0.790254 
         1.8065         1.15151        0.773405 
        1.82218         1.13792        0.757061 
        1.83797         1.12098        0.741076 
        1.85367         1.09792         0.72564 
        1.86928         1.08087        0.710735 
        1.88497         1.05524        0.696166 
        1.90073          1.0321        0.681951 
        1.91647         1.01734        0.668144 
        1.93218         1.00538        0.654748 
        1.94787        0.984354        0.641737 
        1.96363        0.961916        0.629028 
        1.97935         0.94706        0.616688 
        1.99499        0.928411        0.604748 
        2.01064         0.91513        0.593105 
         2.0264        0.905153        0.581696 
        2.04216        0.886523        0.570591 
        2.05781        0.867717        0.559845 
        2.07353        0.858955        0.549337 
        2.08928        0.844015        0.539074 
        2.10499        0.828315        0.529101 
        2.12065        0.820975        0.519409 
        2.13633        0.805234        0.509951 
        2.15211        0.791864        0.500666 
        2.16785        0.775143        0.491638 
        2.18349        0.766333        0.482888 
        2.19916          0.7522        0.474332 
        2.21489        0.740783        0.465955 
        2.23063        0.727873        0.457774 
         2.2463        0.720226        0.449825 
        2.26194        0.705441        0.442084 
        2.27765        0.694788        0.434485 
        2.29341        0.687266        0.427044 
        2.30914         0.67587        0.419792 
        2.32486         0.67121        0.412712 
        2.34061        0.656758        0.405783 
        2.35635        0.646659        0.399019 
        2.37203        0.638398        0.392431 
        2.38768        0.630348        0.386006 
        2.40339        0.621393        0.379701 
        2.41914        0.613418        0.373521 
        2.43483        0.604532          0.3675 
         2.4505        0.593926        0.361622 
        2.46622         0.58562        0.355851 
        2.48195        0.578979        0.350206 
        2.49759        0.571804        0.344713 
        2.51328        0.561363        0.339323 
        2.52906        0.553588        0.334013 
        2.54479        0.547957        0.328837 
        2.56049        0.540042         0.32378 
        2.57618        0.534181        0.318833 
        2.59189         0.52586        0.313982 
        2.60758        0.518417        0.309239 
        2.62325        0.513435        0.304599 
        2.63898        0.506718        0.300038 
        2.65468        0.499715         0.29558 
        2.67044        0.493964        0.291192 
        2.68618         0.48533        0.286904 
        2.70184        0.479943        0.282719 
        2.71755        0.473267        0.278606 
        2.73329        0.469313        0.274569 
        2.74897        0.463126        0.270625 
        2.76462         0.45732        0.266766 
        2.78034         0.45234        0.262967 
        2.79607        0.445345        0.259237 
        2.81179        0.440896        0.255583 
        2.82749        0.435113        0.252004 
        2.84321        0.430991        0.248489 
        2.85893        0.425727        0.245042 
        2.87462         0.42215        0.241666 
        2.89033        0.414371         0.23835 
        2.90605        0.410365        0.235093 
        2.92176         0.40588        0.231899 
        2.93747        0.400849        0.228765 
        2.95318        0.397447        0.225689 
        2.96891        0.392623        0.222667 
        2.98456        0.389473        0.219714 
        3.00023        0.384155         0.21681 
        3.01596         0.38043        0.213949 
        3.03164        0.377213        0.211147 
        3.04738        0.371462        0.208388 
         3.0631        0.367135        0.205678 
        3.07883        0.363786        0.203016 
        3.09456        0.359917        0.200402 
        3.11026         0.35585        0.197838 
        3.12596        0.351292        0.195318 
        3.14163        0.349037        0.192848 
        3.15734        0.345378        0.190415 
        3.17308         0.34163        0.188018 
        3.18879        0.336969        0.185668 
        3.20447        0.335248        0.183362 
         3.2202        0.331665        0.181088 
         3.2359        0.328136        0.178856 
        3.25157        0.324595        0.176667 
        3.26729        0.321903        0.174508 
        3.28304        0.318873         0.17238 
        3.29877        0.314974        0.170291 
        3.31446         0.31253         0.16824 
        3.33014        0.310657        0.166225 
        3.34585        0.308002         0.16424 
        3.36158        0.303721        0.162284 
        3.37727        0.302101        0.160366 
        3.39294        0.298839        0.158481 
        3.40867        0.295838        0.156619 
        3.42439        0.294005        0.154788 
        3.44008        0.290952        0.152989 
        3.45578        0.289535        0.151218 
        3.47153        0.287005        0.149471 
        3.48724        0.284331        0.147754 
        3.50292        0.282304        0.146068 
        3.51859        0.279521        0.144409 
        3.53431           0.277        0.142771 
        3.55007        0.275696        0.141154 
        3.56577        0.272564        0.139568 
        3.58146         0.27069        0.138007 
        3.59719        0.268768        0.136466 
        3.61292         0.26655         0.13495 
        3.62859        0.263685        0.133462 
        3.64429        0.262013        0.131993 
        3.66003        0.260235        0.130542 
        3.67578        0.257943        0.129113 
        3.69146         0.25593        0.127711 
        3.70712        0.254035        0.126332 
        3.72284        0.252077        0.124969 
        3.73853        0.250329        0.123627 
        3.75422        0.248405        0.122305 
        3.76993        0.246963        0.121001 
        3.78564        0.244556        0.119717 
        3.80137        0.241968        0.118448 
        3.81707        0.241651        0.117201 
        3.83279        0.239095        0.115971 
        3.84853        0.237012        0.114756 
        3.86424        0.235735        0.113561 
        3.87992        0.233609        0.112385 
        3.89561        0.232524        0.111225 
        3.91134        0.230203        0.110079 
        3.92704        0.228202        0.108951 
        3.94273        0.227009        0.107839 
        3.95845        0.225053        0.106741 
        3.97418        0.223134        0.105658 
        3.98988        0.221377        0.104591 
        4.00554        0.219874        0.103542 
        4.02125        0.217427        0.102504 
        4.03698        0.215194        0.101479 
        4.05268        0.213025         0.10047 
        4.06839        0.211137       0.0994739 
         4.0841        0.209245       0.0984916 
        4.09983        0.206568       0.0975211 
        4.11555        0.204545        0.096564 
        4.13124        0.202522       0.0956223 
        4.14693        0.200643       0.0946923 
        4.16266        0.198519       0.0937725 
        4.17839        0.197066       0.0928654 
        4.19408          0.1955       0.0919723 
        4.20977        0.193198       0.0910905 
        4.22551        0.191987       0.0902181 
        4.24123        0.190327        0.089358 
        4.25691        0.188611       0.0885114 
        4.27259        0.187369       0.0876755 
        4.28831        0.185524       0.0868486 
        4.30404        0.184024       0.0860315 
        4.31974        0.183155       0.0852267 
        4.33543        0.181284       0.0844326 
        4.35116        0.180764       0.0836466 
        4.36688        0.178768        0.082871 
        4.38255         0.17776        0.082108 
        4.39825        0.176694       0.0813529 
        4.41398        0.175097       0.0806057 
         4.4297        0.174328       0.0798687 
        4.44541        0.173547        0.079141 
        4.46111        0.173078       0.0784229 
        4.47683        0.171552       0.0777131 
        4.49251        0.170671       0.0770136 
        4.50819        0.169668       0.0763227 
         4.5239        0.169253       0.0756394 
        4.53962         0.16843       0.0749635 
        4.55535         0.16761       0.0742955 
        4.57106        0.166912       0.0736365 
        4.58678        0.166234       0.0729854 
         4.6025        0.165584        0.072342 
        4.61821        0.165037       0.0717064 
        4.63391        0.164698       0.0710792 
         4.6496        0.163872       0.0704597 
        4.66532        0.163384       0.0698467 
        4.68103        0.163362       0.0692411 
        4.69673        0.162682       0.0686433 
        4.71241        0.162425       0.0680531 
        4.72811        0.162428       0.0674689 
        4.74384        0.161558       0.0668907 
        4.75955        0.161707       0.0663202 
        4.77525        0.161367       0.0657566 
        4.79096         0.16166       0.0651988 
        4.80669        0.160946       0.0646472 
         4.8224        0.160807       0.0641026 
        4.83809        0.160725       0.0635648 
        4.85379        0.161216       0.0630328 
         4.8695        0.161119       0.0625064 
        4.88521        0.161155       0.0619863 
        4.90093        0.161546        0.061472 
        4.91663        0.161602       0.0609639 
        4.93234        0.161679        0.060461 
        4.94807        0.161591       0.0599634 
        4.96377         0.16222       0.0594724 
        4.97943        0.163029       0.0589878 
        4.99514        0.163199       0.0585074 
        5.01086        0.163092       0.0580319 
        5.02654        0.164203       0.0575629 
        5.04227        0.164335       0.0570977 
          5.058        0.164817       0.0566374 
        5.07371        0.165306        0.056183 
        5.08942        0.165941       0.0557335 
        5.10513        0.166732       0.0552889 
        5.12084        0.167375       0.0548489 
        5.13656        0.168329       0.0544138 
        5.15225        0.168705        0.053984 
        5.16796        0.169995       0.0535583 
        5.18369        0.171007       0.0531367 
         5.1994        0.171919       0.0527203 
        5.21509        0.172549       0.0523088 
        5.23079        0.173366       0.0519012 
        5.24649        0.174447       0.0514982 
        5.26217        0.175107       0.0510998 
        5.27788         0.17584        0.050705 
        5.29359        0.177612       0.0503143 
        5.30933        0.178756       0.0499271 
        5.32504        0.180113       0.0495446 
        5.34073        0.181349       0.0491665 
        5.35646        0.182659       0.0487916 
        5.37218        0.184679       0.0484205 
        5.38789         0.18537       0.0480539 
        5.40357        0.186671       0.0476915 
        5.41929        0.187967       0.0473319 
        5.43502        0.189672        0.046976 
         5.4507        0.191085       0.0466247 
        5.46639        0.192746       0.0462768 
        5.48212        0.195058       0.0459317 
        5.49786        0.196261       0.0455896 
        5.51353        0.197946       0.0452527 
        5.52921        0.199953       0.0449189 
        5.54495        0.201974       0.0445874 
        5.56066         0.20417       0.0442597 
        5.57637        0.205137       0.0439352 
        5.59207        0.207434       0.0436143 
        5.60778        0.209131       0.0432965 
        5.62346        0.212253       0.0429822 
        5.63916        0.213829       0.0426707 
        5.65487        0.215565       0.0423622 
         5.6706        0.218066       0.0420563 
        5.68633        0.220471       0.0417534 
        5.70203        0.222608        0.041454 
        5.71773         0.22457       0.0411576 
        5.73344        0.226581       0.0408639 
        5.74916        0.229638       0.0405728 
        5.76486        0.231352        0.040285 
        5.78054        0.234767       0.0400003 
        5.79626        0.235758       0.0397176 
          5.812        0.237774       0.0394373 
         5.8277        0.240541       0.0391606 
        5.84339        0.244341       0.0388865 
        5.85911        0.245863       0.0386144 
        5.87484        0.247834        0.038345 
        5.89053        0.252478       0.0380787 
        5.90623         0.25436       0.0378148 
        5.92195        0.256417        0.037553 
        5.93767        0.260421       0.0372937 
        5.95336        0.261289       0.0370373 
        5.96905        0.264098       0.0367834 
        5.98476        0.266972       0.0365315 
        6.00048        0.271338       0.0362819 
        6.01617        0.273811       0.0360349 
        6.03185         0.27559       0.0357906 
        6.04756        0.277869       0.0355478 
        6.06331        0.282285       0.0353069 
        6.07903        0.284763       0.0350686 
        6.09473        0.286834       0.0348328 
        6.11044        0.290925       0.0345989 
        6.12616         0.29325       0.0343671 
        6.14186        0.295847       0.0341378 
        6.15755        0.299346       0.0339105 
        6.17326        0.302758       0.0336851 
        6.18898        0.304729       0.0334616 
        6.20467        0.308503       0.0332406 
        6.22036         0.31083       0.0330215 
         6.2361        0.313833       0.0328039 
         6.2518        0.316244       0.0325885 
        6.26748        0.318878       0.0323755 
        6.28319        0.322941       0.0321639 
        6.29893        0.327323       0.0319539 
        6.31463        0.327916       0.0317462 
        6.33033        0.331474       0.0315404 
        6.34604        0.334018       0.0313362 
        6.36177        0.337043       0.0311336 
        6.37747        0.341057       0.0309332 
