# k  (h/Mpc)    Pcb(k)  (Mpc/h)^3    Pcb_linear(k) (Mpc/h)^3   ShotnoiseSubtracted = true
      0.0200456         6870.18         6957.15 
      0.0350414         4468.63         4338.24 
      0.0492313         2846.89         2839.56 
      0.0637834         2270.61         2314.57 
      0.0800726         1777.41         1829.65 
       0.096163         1293.35         1242.05 
       0.111083          988.64         934.317 
       0.126058         837.713         835.551 
       0.142273         723.124         720.782 
       0.158546         571.642         548.242 
        0.17375         475.255         441.015 
       0.188953         433.004         399.851 
       0.204907         371.887         361.444 
       0.220756         327.175         301.632 
        0.23588         281.622         253.527 
         0.2514          249.98         228.049 
       0.267535         238.102         209.267 
       0.283568         206.731         184.294 
       0.299022         191.337         160.855 
       0.314451         183.117         145.167 
       0.330372         159.367         133.774 
       0.346141         146.366         121.719 
       0.361624         136.135         109.526 
       0.377134         123.932         99.6789 
       0.392932           119.5         92.0901 
       0.408854         112.006          85.014 
       0.424564         106.067         78.0255 
       0.440253         95.9688         71.8018 
       0.455999         88.2503         66.6478 
       0.471626         85.2883         62.1254 
        0.48727         81.8625         57.7924 
       0.502856         74.9537         53.7914 
       0.518488         72.5889         50.2569 
       0.534347         67.9214         47.0732 
       0.550082         65.8009          44.145 
       0.565732         63.7173         41.4242 
       0.581496         58.3749         38.9278 
       0.597222         56.5268         36.6731 
       0.612804         54.0516         34.6154 
       0.628434         52.9246         32.6938 
       0.644267         49.7981         30.8879 
       0.660051         48.0313         29.2331 
       0.675724         46.2956         27.7146 
       0.691403          45.293         26.3019 
       0.707174         43.4449         24.9786 
       0.722871         42.3274         23.7507 
        0.73838         40.5074         22.6176 
       0.754018          38.123         21.5492 
       0.769845         37.6912         20.5377 
        0.78569         36.3489         19.5897 
       0.801365         35.1135         18.7106 
       0.817031         33.7294         17.8859 
       0.832809         33.0122         17.1056 
       0.848511         32.0644         16.3754 
       0.864097         31.2922         15.6929 
       0.879701         30.5494         15.0487 
       0.895507         29.3499         14.4332 
       0.911279         28.5527         13.8533 
        0.92691          28.036         13.3101 
       0.942635         27.3058         12.7931 
       0.958396         26.8566         12.3025 
       0.974128         26.0987         11.8384 
       0.989692         25.0809         11.4029 
        1.00528         24.6604         10.9887 
        1.02113         23.9767         10.5885 
        1.03692          23.683         10.2097 
        1.05264         23.1063         9.85115 
        1.06832         22.5808         9.51036 
        1.08405         21.9965         9.18477 
        1.09979         21.7487         8.87421 
        1.11537         21.0158         8.58106 
        1.13105         20.6129         8.29939 
        1.14679         20.1481         8.02927 
        1.16256         19.8534         7.77062 
        1.17828         19.5452          7.5242 
        1.19395         19.0195         7.28928 
         1.2097         18.8566         7.06319 
        1.22537         18.3781         6.84776 
          1.241         18.0158         6.64195 
        1.25666          17.653         6.44408 
        1.27241         17.4646         6.25334 
        1.28819         16.8744         6.06998 
        1.30392         16.8472         5.89449 
        1.31957         16.5348         5.72672 
        1.33529         16.2106         5.56485 
        1.35108         15.9429         5.40859 
        1.36674         15.6951         5.25944 
         1.3824         15.3885         5.11604 
        1.39811         15.0496          4.9775 
        1.41389         14.8605         4.84355 
        1.42964         14.7693         4.71475 
        1.44531         14.4466         4.59126 
        1.46101         14.2711         4.47192 
        1.47667         14.0307         4.35716 
        1.49229         13.6912         4.24673 
        1.50793         13.6158            4.14 
        1.52367         13.3658         4.03624 
        1.53953         13.2675         3.93534 
        1.55526         12.9654         3.83868 
        1.57092         12.8697         3.74566 
        1.58662         12.6961          3.6555 
        1.60235         12.5208         3.56812 
        1.61809         12.2952         3.48355 
        1.63369         12.1592         3.40246 
        1.64941         11.9602         3.32337 
        1.66519         11.8833          3.2465 
        1.68085         11.5817          3.1726 
        1.69652         11.5698         3.10098 
        1.71228         11.4248         3.03115 
        1.72806         11.1987         2.96342 
        1.74368         11.1164         2.89843 
        1.75933         10.9665         2.83525 
        1.77505         10.8193         2.77366 
        1.79081         10.6915         2.71378 
         1.8065          10.581         2.65592 
        1.82218         10.4895         2.59979 
        1.83797         10.4039          2.5449 
        1.85367         10.2773         2.49189 
        1.86928         10.1487         2.44071 
        1.88497          9.9926         2.39068 
        1.90073         9.87563         2.34186 
        1.91647         9.69701         2.29445 
        1.93218         9.67928         2.24844 
        1.94787         9.52923         2.20377 
        1.96363         9.44018         2.16012 
        1.97935         9.28226         2.11774 
        1.99499         9.18896         2.07674 
        2.01064         9.09088         2.03676 
         2.0264         8.97672         1.99758 
        2.04216         8.96547         1.95944 
        2.05781         8.83838         1.92254 
        2.07353         8.76192         1.88645 
        2.08928         8.64915         1.85121 
        2.10499         8.54643         1.81696 
        2.12065         8.48563         1.78368 
        2.13633         8.37911          1.7512 
        2.15211          8.2893         1.71932 
        2.16785         8.22585         1.68831 
        2.18349          8.1071         1.65827 
        2.19916         8.05597         1.62889 
        2.21489         7.93501         1.60012 
        2.23063         7.90144         1.57202 
         2.2463         7.79433         1.54472 
        2.26194         7.73228         1.51814 
        2.27765          7.6233         1.49205 
        2.29341         7.58103         1.46649 
        2.30914         7.49791         1.44159 
        2.32486         7.45962         1.41728 
        2.34061         7.36805         1.39348 
        2.35635         7.31837         1.37025 
        2.37203         7.22828         1.34763 
        2.38768         7.12418         1.32557 
        2.40339          7.1205         1.30392 
        2.41914         7.00285         1.28269 
        2.43483         6.96395         1.26202 
         2.4505         6.89674         1.24183 
        2.46622         6.84031         1.22202 
        2.48195         6.80441         1.20263 
        2.49759         6.71049         1.18376 
        2.51328         6.66757         1.16525 
        2.52906         6.58769         1.14702 
        2.54479         6.54754         1.12925 
        2.56049         6.45781         1.11188 
        2.57618         6.43337         1.09489 
        2.59189         6.40168         1.07823 
        2.60758          6.3113         1.06194 
        2.62325         6.25964         1.04601 
        2.63898         6.23727         1.03035 
        2.65468         6.16816         1.01504 
        2.67044         6.13762        0.999972 
        2.68618         6.04534        0.985246 
        2.70184         6.01442        0.970874 
        2.71755         5.97017        0.956751 
        2.73329         5.90179        0.942887 
        2.74897         5.86037        0.929341 
        2.76462         5.81901        0.916091 
        2.78034         5.75762        0.903043 
        2.79607         5.73536        0.890235 
        2.81179         5.68068        0.877689 
        2.82749         5.63185        0.865397 
        2.84321         5.59751        0.853327 
        2.85893         5.55247        0.841489 
        2.87462         5.50499        0.829896 
        2.89033         5.45238        0.818509 
        2.90605          5.4088        0.807325 
        2.92176         5.37944        0.796355 
        2.93747         5.32509        0.785594 
        2.95318         5.28704        0.775029 
        2.96891         5.26165        0.764652 
        2.98456         5.19211         0.75451 
        3.00023         5.16175        0.744537 
        3.01596         5.12463        0.734712 
        3.03164         5.09531        0.725092 
        3.04738         5.05482        0.715616 
         3.0631         5.00182        0.706311 
        3.07883         4.96513        0.697171 
        3.09456         4.91733        0.688193 
        3.11026         4.88209        0.679387 
        3.12596         4.84173        0.670735 
        3.14163          4.8335        0.662253 
        3.15734         4.78884        0.653897 
        3.17308         4.76435        0.645665 
        3.18879         4.71741        0.637596 
        3.20447         4.67021        0.629676 
         3.2202         4.64454        0.621866 
         3.2359         4.61627        0.614202 
        3.25157         4.59348        0.606685 
        3.26729         4.55722         0.59927 
        3.28304         4.51393        0.591964 
        3.29877         4.49318        0.584788 
        3.31446         4.46232        0.577747 
        3.33014         4.41731        0.570828 
        3.34585         4.39089        0.564011 
        3.36158         4.36171        0.557294 
        3.37727         4.32014        0.550708 
        3.39294         4.29616        0.544233 
        3.40867         4.26214        0.537839 
        3.42439         4.25338        0.531551 
        3.44008         4.22124        0.525375 
        3.45578          4.1873        0.519292 
        3.47153         4.15544        0.513292 
        3.48724         4.11097        0.507396 
        3.50292          4.0886        0.501607 
        3.51859         4.06646         0.49591 
        3.53431          4.0335        0.490284 
        3.55007         4.00279        0.484731 
        3.56577         3.96962        0.479285 
        3.58146         3.95566        0.473925 
        3.59719         3.92644        0.468634 
        3.61292         3.89851        0.463426 
        3.62859         3.87034        0.458316 
        3.64429         3.85089        0.453272 
        3.66003         3.81624        0.448289 
        3.67578         3.80555        0.443383 
        3.69146         3.78413        0.438568 
        3.70712         3.74992        0.433833 
        3.72284         3.73091         0.42915 
        3.73853          3.7066        0.424544 
        3.75422         3.66028        0.420003 
        3.76993         3.66532        0.415525 
        3.78564         3.63604        0.411114 
        3.80137         3.60888        0.406759 
        3.81707         3.57482        0.402476 
        3.83279         3.55915        0.398251 
        3.84853         3.53646         0.39408 
        3.86424         3.49714        0.389976 
        3.87992         3.48515        0.385937 
        3.89561         3.46187        0.381954 
        3.91134         3.44283        0.378019 
        3.92704         3.42489        0.374144 
        3.94273         3.40282        0.370327 
        3.95845         3.37624        0.366556 
        3.97418         3.35042        0.362836 
        3.98988         3.33074        0.359173 
        4.00554         3.31022         0.35557 
        4.02125         3.27992        0.352006 
        4.03698         3.26372        0.348485 
        4.05268         3.22958         0.34502 
        4.06839           3.212        0.341599 
         4.0841         3.19477        0.338226 
        4.09983         3.17081        0.334893 
        4.11555         3.15439        0.331607 
        4.13124         3.12073        0.328373 
        4.14693          3.1067        0.325179 
        4.16266         3.08665         0.32202 
        4.17839         3.07452        0.318905 
        4.19408         3.05732        0.315838 
        4.20977         3.03772         0.31281 
        4.22551         3.00773        0.309815 
        4.24123         2.98832        0.306861 
        4.25691         2.97574        0.303954 
        4.27259         2.94932        0.301083 
        4.28831         2.92795        0.298243 
        4.30404         2.91425        0.295437 
        4.31974         2.89372        0.292674 
        4.33543         2.87342        0.289947 
        4.35116         2.85724        0.287248 
        4.36688         2.84534        0.284584 
        4.38255          2.8278        0.281964 
        4.39825         2.80382        0.279371 
        4.41398         2.79089        0.276805 
         4.4297         2.77521        0.274274 
        4.44541         2.75641        0.271775 
        4.46111         2.73681        0.269309 
        4.47683         2.72475        0.266872 
        4.49251         2.70362        0.264469 
        4.50819         2.69127        0.262097 
         4.5239          2.6676         0.25975 
        4.53962         2.65635        0.257429 
        4.55535          2.6373        0.255135 
        4.57106         2.62147        0.252872 
        4.58678         2.60934        0.250636 
         4.6025         2.59481        0.248427 
        4.61821         2.57552        0.246244 
        4.63391         2.55951         0.24409 
         4.6496         2.54534        0.241963 
        4.66532         2.52526        0.239858 
        4.68103         2.51546        0.237778 
        4.69673         2.50013        0.235725 
        4.71241         2.48159        0.233699 
        4.72811          2.4732        0.231692 
        4.74384         2.46229        0.229707 
        4.75955          2.4452        0.227747 
        4.77525           2.433        0.225812 
        4.79096         2.41439        0.223897 
        4.80669         2.40731        0.222002 
         4.8224          2.3872        0.220132 
        4.83809         2.37845        0.218285 
        4.85379         2.36148        0.216458 
         4.8695         2.35158        0.214651 
        4.88521         2.33934        0.212865 
        4.90093           2.321        0.211098 
        4.91663         2.31321        0.209354 
        4.93234         2.29311        0.207627 
        4.94807         2.28848        0.205918 
        4.96377           2.276        0.204232 
        4.97943         2.26343        0.202568 
        4.99514         2.25377        0.200918 
        5.01086         2.23773        0.199285 
        5.02654         2.22807        0.197674 
        5.04227         2.21152        0.196077 
          5.058         2.20223        0.194496 
        5.07371         2.19092        0.192936 
        5.08942          2.1771        0.191392 
        5.10513         2.16871        0.189866 
        5.12084         2.15408        0.188354 
        5.13656         2.14238         0.18686 
        5.15225          2.1308        0.185384 
        5.16796         2.12063        0.183922 
        5.18369         2.11035        0.182474 
         5.1994         2.09804        0.181045 
        5.21509         2.08546        0.179632 
        5.23079         2.07418        0.178232 
        5.24649         2.07144        0.176848 
        5.26217         2.06033         0.17548 
        5.27788         2.04206        0.174124 
        5.29359         2.03799        0.172782 
        5.30933         2.02781        0.171453 
        5.32504         2.01724        0.170139 
        5.34073         1.99992        0.168841 
        5.35646           1.994        0.167553 
        5.37218         1.98828        0.166279 
        5.38789         1.97559         0.16502 
        5.40357         1.96709        0.163775 
        5.41929         1.95635        0.162541 
        5.43502         1.94417        0.161319 
         5.4507         1.93782        0.160112 
        5.46639         1.92135        0.158917 
        5.48212         1.91799        0.157732 
        5.49786         1.90888        0.156557 
        5.51353         1.89899        0.155401 
        5.52921         1.89143        0.154254 
        5.54495         1.88097        0.153116 
        5.56066         1.87244         0.15199 
        5.57637         1.86024        0.150876 
        5.59207         1.85231        0.149774 
        5.60778         1.84599        0.148683 
        5.62346         1.83518        0.147603 
        5.63916         1.82637        0.146534 
        5.65487         1.82114        0.145474 
         5.6706         1.80922        0.144424 
        5.68633         1.80255        0.143384 
        5.70203         1.79188        0.142356 
        5.71773         1.78493        0.141338 
        5.73344         1.77717        0.140329 
        5.74916         1.76988         0.13933 
        5.76486         1.76239        0.138341 
        5.78054         1.75118        0.137364 
        5.79626         1.74561        0.136393 
          5.812         1.73813         0.13543 
         5.8277         1.72776         0.13448 
        5.84339          1.7187        0.133538 
        5.85911         1.71033        0.132604 
        5.87484         1.70495        0.131679 
        5.89053         1.69654        0.130765 
        5.90623         1.69121        0.129858 
        5.92195         1.68203        0.128959 
        5.93767         1.67284        0.128069 
        5.95336          1.6636        0.127188 
        5.96905         1.66087        0.126316 
        5.98476         1.65233        0.125451 
        6.00048         1.64409        0.124594 
        6.01617         1.63986        0.123746 
        6.03185         1.62863        0.122907 
        6.04756         1.62117        0.122073 
        6.06331         1.61549        0.121246 
        6.07903         1.60751        0.120428 
        6.09473         1.60383        0.119618 
        6.11044         1.59781        0.118815 
        6.12616         1.58994        0.118019 
        6.14186          1.5843        0.117231 
        6.15755         1.57792        0.116451 
        6.17326         1.57132        0.115677 
        6.18898         1.56178        0.114909 
        6.20467         1.55835         0.11415 
        6.22036         1.54964        0.113398 
         6.2361         1.54447         0.11265 
         6.2518         1.53678        0.111911 
        6.26748         1.53185         0.11118 
        6.28319         1.52661        0.110453 
        6.29893         1.52159        0.109732 
        6.31463          1.5122        0.109018 
        6.33033         1.50729        0.108311 
        6.34604         1.49984         0.10761 
        6.36177         1.49199        0.106915 
        6.37747         1.49214        0.106227 
