# k  (h/Mpc)    Pcb(k)  (Mpc/h)^3    Pcb_linear(k) (Mpc/h)^3   ShotnoiseSubtracted = true
      0.0200456           13373         13558.7 
      0.0350414         8767.81         8454.74 
      0.0492313         5523.29         5533.99 
      0.0637834         4390.44         4510.84 
      0.0800726         3428.98         3565.78 
       0.096163         2557.62         2420.63 
       0.111083         1967.61         1820.88 
       0.126058         1646.03          1628.4 
       0.142273         1433.77         1404.72 
       0.158546         1143.44         1068.46 
        0.17375         966.841         859.489 
       0.188953         894.848         779.265 
       0.204907         765.897         704.414 
       0.220756         680.675         587.848 
        0.23588         594.067         494.097 
         0.2514          525.72         444.443 
       0.267535         509.114         407.838 
       0.283568         441.842         359.168 
       0.299022         417.055         313.489 
       0.314451         416.594         282.913 
       0.330372         355.339         260.711 
       0.346141         327.651         237.216 
       0.361624          310.35         213.455 
       0.377134         287.986         194.263 
       0.392932         277.062         179.473 
       0.408854         263.342         165.683 
       0.424564         252.783         152.063 
       0.440253          227.61         139.934 
       0.455999          215.05         129.889 
       0.471626         214.268         121.075 
        0.48727         202.332         112.631 
       0.502856         185.051         104.833 
       0.518488         184.669         97.9452 
       0.534347         171.485         91.7403 
       0.550082         165.952         86.0337 
       0.565732         164.484         80.7311 
       0.581496          153.08         75.8659 
       0.597222         149.022         71.4717 
       0.612804         143.376         67.4616 
       0.628434         139.569         63.7165 
       0.644267         132.021          60.197 
       0.660051         129.503          56.972 
       0.675724         126.734         54.0126 
       0.691403         123.864         51.2594 
       0.707174         119.033         48.6805 
       0.722871         116.733         46.2874 
        0.73838         114.934         44.0791 
       0.754018         108.308          41.997 
       0.769845         108.146         40.0257 
        0.78569         104.724         38.1782 
       0.801365         100.873         36.4649 
       0.817031         98.5166         34.8576 
       0.832809         96.5063         33.3369 
       0.848511         94.0596         31.9139 
       0.864097         92.1358         30.5838 
       0.879701         90.7658         29.3283 
       0.895507         87.9767         28.1286 
       0.911279         85.4924         26.9986 
        0.92691         83.7753           25.94 
       0.942635         81.7486         24.9323 
       0.958396          81.242         23.9761 
       0.974128         79.5199         23.0718 
       0.989692           77.15          22.223 
        1.00528         76.2064         21.4157 
        1.02113         74.1705         20.6358 
        1.03692         73.7929         19.8976 
        1.05264         72.7517         19.1988 
        1.06832         70.6768         18.5346 
        1.08405         69.5256         17.9001 
        1.09979         68.8721         17.2948 
        1.11537         67.1316         16.7235 
        1.13105         66.0073         16.1746 
        1.14679         65.1374         15.6481 
        1.16256         63.7582         15.1441 
        1.17828         63.2993         14.6638 
        1.19395         61.9652          14.206 
         1.2097         61.1843         13.7654 
        1.22537         60.0122         13.3455 
          1.241         59.7595         12.9444 
        1.25666         57.7917         12.5588 
        1.27241         57.3551         12.1871 
        1.28819         56.7415         11.8297 
        1.30392         55.7123         11.4877 
        1.31957         55.2653         11.1607 
        1.33529         54.3659         10.8453 
        1.35108          53.922         10.5407 
        1.36674         52.8947         10.2501 
         1.3824         52.2977         9.97059 
        1.39811         51.2273         9.70059 
        1.41389         50.5364         9.43954 
        1.42964         49.9265         9.18853 
        1.44531         49.4223         8.94785 
        1.46101          48.976         8.71526 
        1.47667          48.263         8.49162 
        1.49229         47.4159         8.27641 
        1.50793         46.8924          8.0684 
        1.52367         46.7297         7.86619 
        1.53953         45.9771         7.66954 
        1.55526         44.9591         7.48116 
        1.57092         44.8263         7.29988 
        1.58662         44.3563         7.12416 
        1.60235         43.8539         6.95387 
        1.61809         42.9235         6.78905 
        1.63369         42.5637         6.63101 
        1.64941         42.1264         6.47687 
        1.66519         41.3179         6.32707 
        1.68085         40.8381         6.18305 
        1.69652         40.3375         6.04346 
        1.71228         39.9149         5.90738 
        1.72806          39.724         5.77537 
        1.74368         39.0238         5.64871 
        1.75933         38.8226         5.52559 
        1.77505         38.2246         5.40555 
        1.79081         37.8747         5.28885 
         1.8065         37.6106         5.17609 
        1.82218         36.8119         5.06671 
        1.83797         36.2937         4.95973 
        1.85367         36.0339         4.85642 
        1.86928         35.7585         4.75667 
        1.88497         35.2463         4.65916 
        1.90073         34.8544         4.56403 
        1.91647         34.7705         4.47162 
        1.93218         34.2585         4.38197 
        1.94787         33.9055         4.29489 
        1.96363         33.4848         4.20983 
        1.97935         33.0407         4.12725 
        1.99499         32.8129         4.04733 
        2.01064         32.2628         3.96942 
         2.0264         32.2128         3.89306 
        2.04216          31.733         3.81873 
        2.05781         31.4215         3.74682 
        2.07353         30.9566         3.67649 
        2.08928         30.9407         3.60781 
        2.10499         30.5165         3.54106 
        2.12065         30.2091          3.4762 
        2.13633         29.9963          3.4129 
        2.15211         29.6387         3.35076 
        2.16785         29.1571         3.29034 
        2.18349         28.9178         3.23178 
        2.19916         28.7041         3.17452 
        2.21489         28.5309         3.11845 
        2.23063         28.1708          3.0637 
         2.2463         27.8786          3.0105 
        2.26194         27.6067         2.95869 
        2.27765         27.2726         2.90783 
        2.29341         26.9585         2.85803 
        2.30914         26.6733          2.8095 
        2.32486          26.534         2.76212 
        2.34061         26.2374         2.71574 
        2.35635         25.9413         2.67047 
        2.37203         25.7034         2.62639 
        2.38768         25.5912         2.58338 
        2.40339         25.2347         2.54119 
        2.41914          25.154         2.49983 
        2.43483         24.7506         2.45953 
         2.4505         24.6785         2.42019 
        2.46622         24.2751         2.38157 
        2.48195         24.0785         2.34379 
        2.49759         23.8853         2.30702 
        2.51328         23.6155         2.27095 
        2.52906         23.3695         2.23542 
        2.54479          23.303         2.20077 
        2.56049         22.9421         2.16693 
        2.57618         22.7729         2.13382 
        2.59189         22.6174         2.10135 
        2.60758         22.2356         2.06961 
        2.62325          22.181         2.03856 
        2.63898         22.0316         2.00803 
        2.65468         21.6701          1.9782 
        2.67044         21.5956         1.94883 
        2.68618         21.3186         1.92013 
        2.70184         21.1375         1.89212 
        2.71755         20.9232          1.8646 
        2.73329         20.7804         1.83758 
        2.74897          20.523         1.81118 
        2.76462         20.3174         1.78536 
        2.78034         20.1625         1.75993 
        2.79607          19.987         1.73497 
        2.81179         19.7806         1.71052 
        2.82749         19.6262         1.68656 
        2.84321         19.4367         1.66304 
        2.85893         19.2375         1.63997 
        2.87462         19.0734         1.61737 
        2.89033         18.8437         1.59518 
        2.90605         18.7326         1.57339 
        2.92176         18.5841         1.55201 
        2.93747           18.39         1.53104 
        2.95318         18.2747         1.51044 
        2.96891         18.0784         1.49022 
        2.98456         17.9326         1.47046 
        3.00023         17.6919         1.45102 
        3.01596         17.4663         1.43187 
        3.03164         17.4312         1.41312 
        3.04738         17.2795         1.39466 
         3.0631         17.1399         1.37652 
        3.07883         16.9395         1.35871 
        3.09456          16.771         1.34121 
        3.11026         16.6294         1.32405 
        3.12596         16.4958         1.30719 
        3.14163         16.3233         1.29066 
        3.15734         16.2616         1.27437 
        3.17308         16.0378         1.25833 
        3.18879         15.8994          1.2426 
        3.20447         15.8125         1.22717 
         3.2202         15.5929         1.21195 
         3.2359         15.4884         1.19701 
        3.25157         15.3473         1.18236 
        3.26729         15.2577         1.16791 
        3.28304         15.1001         1.15367 
        3.29877         14.9747         1.13969 
        3.31446         14.8793         1.12597 
        3.33014         14.6936         1.11248 
        3.34585         14.6037         1.09919 
        3.36158         14.4602          1.0861 
        3.37727         14.3587         1.07327 
        3.39294         14.2342         1.06065 
        3.40867         14.1537         1.04819 
        3.42439         13.9635         1.03593 
        3.44008         13.8318          1.0239 
        3.45578         13.7928         1.01204 
        3.47153          13.621         1.00035 
        3.48724         13.5285        0.988859 
        3.50292         13.3852        0.977576 
        3.51859         13.2926        0.966473 
        3.53431         13.2151        0.955508 
        3.55007         13.1061        0.944686 
        3.56577         12.9224        0.934073 
        3.58146         12.8486        0.923627 
        3.59719         12.7538        0.913316 
        3.61292         12.6902        0.903165 
        3.62859         12.5343        0.893206 
        3.64429         12.4407        0.883377 
        3.66003         12.3231        0.873666 
        3.67578          12.242        0.864104 
        3.69146         12.1607         0.85472 
        3.70712         12.0217        0.845492 
        3.72284         11.9227        0.836365 
        3.73853         11.8514        0.827389 
        3.75422          11.718         0.81854 
        3.76993         11.6473        0.809813 
        3.78564         11.5869        0.801215 
        3.80137         11.4771        0.792728 
        3.81707         11.3259        0.784381 
        3.83279         11.3142        0.776147 
        3.84853         11.1914        0.768018 
        3.86424         11.0978         0.76002 
        3.87992          11.021        0.752148 
        3.89561         10.8897        0.744386 
        3.91134         10.8384        0.736717 
        3.92704         10.7573        0.729165 
        3.94273         10.6377        0.721726 
        3.95845         10.5596        0.714376 
        3.97418         10.5027        0.707127 
        3.98988         10.4089        0.699988 
        4.00554         10.2666        0.692966 
        4.02125         10.2544         0.68602 
        4.03698         10.1346        0.679158 
        4.05268          10.094        0.672406 
        4.06839         9.97682        0.665739 
         4.0841         9.92626        0.659165 
        4.09983         9.84359         0.65267 
        4.11555         9.74933        0.646264 
        4.13124         9.65508        0.639962 
        4.14693         9.62839        0.633738 
        4.16266         9.55229        0.627582 
        4.17839         9.44574        0.621511 
        4.19408         9.38347        0.615534 
        4.20977         9.29298        0.609632 
        4.22551         9.22034        0.603794 
        4.24123         9.16466        0.598037 
        4.25691         9.09391        0.592372 
        4.27259          9.0109        0.586777 
        4.28831         8.95906        0.581243 
        4.30404         8.86105        0.575774 
        4.31974         8.82199        0.570388 
        4.33543          8.7519        0.565074 
        4.35116         8.67417        0.559813 
        4.36688         8.60743        0.554622 
        4.38255         8.52976        0.549516 
        4.39825         8.48291        0.544462 
        4.41398         8.41409        0.539462 
         4.4297         8.34731        0.534529 
        4.44541         8.28056        0.529659 
        4.46111         8.21209        0.524853 
        4.47683         8.15853        0.520103 
        4.49251         8.08366        0.515421 
        4.50819         8.04364        0.510798 
         4.5239         7.97162        0.506224 
        4.53962         7.91701        0.501701 
        4.55535         7.84676         0.49723 
        4.57106         7.80256         0.49282 
        4.58678         7.72358        0.488462 
         4.6025         7.68734        0.484156 
        4.61821         7.62653        0.479902 
        4.63391         7.54444        0.475705 
         4.6496         7.49208        0.471559 
        4.66532         7.44154        0.467456 
        4.68103         7.39127        0.463403 
        4.69673          7.3189        0.459402 
        4.71241         7.30133        0.455452 
        4.72811         7.22043        0.451542 
        4.74384          7.1816        0.447673 
        4.75955         7.11034        0.443854 
        4.77525         7.07618        0.440082 
        4.79096         7.01786        0.436349 
        4.80669          6.9675        0.432658 
         4.8224         6.91257        0.429013 
        4.83809         6.88024        0.425414 
        4.85379         6.82814        0.421853 
         4.8695         6.76618        0.418331 
        4.88521         6.72702        0.414849 
        4.90093         6.68073        0.411407 
        4.91663          6.6298        0.408007 
        4.93234         6.58011        0.404641 
        4.94807         6.53061        0.401311 
        4.96377         6.48099        0.398025 
        4.97943         6.44748        0.394782 
        4.99514         6.39149        0.391566 
        5.01086         6.34778        0.388384 
        5.02654          6.3063        0.385246 
        5.04227         6.25606        0.382132 
          5.058         6.21361        0.379051 
        5.07371          6.1646         0.37601 
        5.08942         6.12795        0.373002 
        5.10513         6.09607        0.370027 
        5.12084         6.03224        0.367082 
        5.13656          5.9986         0.36417 
        5.15225          5.9542        0.361294 
        5.16796         5.90877        0.358444 
        5.18369         5.87038        0.355622 
         5.1994         5.84968        0.352836 
        5.21509          5.8008        0.350082 
        5.23079         5.75597        0.347354 
        5.24649         5.71869        0.344657 
        5.26217         5.68505        0.341991 
        5.27788         5.64078        0.339348 
        5.29359         5.59324        0.336733 
        5.30933         5.56597        0.334142 
        5.32504          5.5228        0.331582 
        5.34073         5.48732        0.329052 
        5.35646         5.43961        0.326543 
        5.37218         5.42304        0.324059 
        5.38789         5.38852        0.321605 
        5.40357         5.34712         0.31918 
        5.41929         5.30816        0.316774 
        5.43502         5.28085        0.314392 
         5.4507         5.24411         0.31204 
        5.46639         5.19471        0.309712 
        5.48212         5.16279        0.307402 
        5.49786         5.13188        0.305113 
        5.51353         5.11032        0.302858 
        5.52921         5.06044        0.300624 
        5.54495         5.03659        0.298406 
        5.56066         5.00011        0.296212 
        5.57637         4.97126        0.294041 
        5.59207         4.93209        0.291893 
        5.60778         4.90606        0.289766 
        5.62346          4.8729        0.287663 
        5.63916         4.83518        0.285578 
        5.65487         4.81625        0.283513 
         5.6706         4.77905        0.281466 
        5.68633         4.75105        0.279439 
        5.70203         4.70313        0.277435 
        5.71773          4.6754        0.275451 
        5.73344         4.65603        0.273486 
        5.74916         4.61515        0.271538 
        5.76486         4.59214        0.269611 
        5.78054         4.56186        0.267706 
        5.79626          4.5438        0.265814 
          5.812         4.49981        0.263938 
         5.8277         4.47327        0.262086 
        5.84339          4.4468        0.260252 
        5.85911         4.41533        0.258431 
        5.87484         4.39005        0.256628 
        5.89053         4.36177        0.254846 
        5.90623         4.33896         0.25308 
        5.92195         4.30614        0.251327 
        5.93767         4.28281        0.249592 
        5.95336         4.24815        0.247876 
        5.96905         4.22142        0.246177 
        5.98476         4.19828        0.244491 
        6.00048         4.16962         0.24282 
        6.01617         4.14692        0.241167 
        6.03185         4.12764        0.239532 
        6.04756         4.10939        0.237908 
        6.06331         4.07275        0.236295 
        6.07903          4.0466          0.2347 
        6.09473         4.02685        0.233122 
        6.11044         4.00033        0.231556 
        6.12616         3.96639        0.230006 
        6.14186         3.94967         0.22847 
        6.15755         3.92988        0.226949 
        6.17326          3.8917        0.225441 
        6.18898         3.87889        0.223945 
        6.20467         3.85206        0.222466 
        6.22036         3.82752           0.221 
         6.2361         3.80946        0.219543 
         6.2518          3.7826        0.218102 
        6.26748         3.76013        0.216676 
        6.28319         3.73967         0.21526 
        6.29893         3.71642        0.213855 
        6.31463         3.69693        0.212465 
        6.33033         3.67583        0.211087 
        6.34604         3.65109        0.209721 
        6.36177          3.6314        0.208365 
        6.37747         3.62031        0.207024 
