# k  (h/Mpc)    Pcb(k)  (Mpc/h)^3    Pcb_linear(k) (Mpc/h)^3   ShotnoiseSubtracted = true
      0.0200456         1441.87         1459.02 
      0.0350414         927.333         909.793 
      0.0492313         599.192         595.499 
      0.0637834          481.48           485.4 
      0.0800726          377.73         383.704 
       0.096163         265.941         260.477 
       0.111083         201.478          195.94 
       0.126058         174.579         175.227 
       0.142273         149.701         151.159 
       0.158546         116.195         114.975 
        0.17375         94.9603         92.4874 
       0.188953         85.3193         83.8547 
       0.204907         74.7039         75.8002 
       0.220756         64.1914         63.2568 
        0.23588         54.3152         53.1685 
         0.2514         48.7195         47.8254 
       0.267535         44.9689         43.8865 
       0.283568          39.489         38.6492 
       0.299022         35.0051         33.7337 
       0.314451         32.2754         30.4436 
       0.330372          29.151         28.0545 
       0.346141         26.5317         25.5262 
       0.361624         23.9581         22.9693 
       0.377134          21.747         20.9041 
       0.392932         20.7292         19.3127 
       0.408854         18.7616         17.8287 
       0.424564         17.7116         16.3631 
       0.440253         16.0609         15.0579 
       0.455999         14.6322          13.977 
       0.471626         13.7239         13.0286 
        0.48727         13.1383         12.1199 
       0.502856         12.2762         11.2809 
       0.518488         11.2604         10.5396 
       0.534347         10.5029         9.87194 
       0.550082         10.0395         9.25787 
       0.565732          9.5613         8.68727 
       0.581496         8.94894         8.16374 
       0.597222         8.40835         7.69089 
       0.612804         7.89139         7.25937 
       0.628434         7.61865         6.85637 
       0.644267         7.19708         6.47765 
       0.660051         6.78623         6.13062 
       0.675724          6.4027         5.81216 
       0.691403         6.16703         5.51589 
       0.707174         5.84573         5.23839 
       0.722871         5.67309         4.98087 
        0.73838         5.30316         4.74324 
       0.754018         5.02914         4.51919 
       0.769845         4.79375         4.30706 
        0.78569          4.6589         4.10826 
       0.801365         4.43963         3.92389 
       0.817031         4.26242         3.75094 
       0.832809          4.0476          3.5873 
       0.848511         3.91729         3.43417 
       0.864097         3.76435         3.29104 
       0.879701          3.6549         3.15594 
       0.895507         3.48638         3.02685 
       0.911279          3.3514         2.90525 
        0.92691         3.24483         2.79133 
       0.942635          3.0956          2.6829 
       0.958396          3.0012         2.58001 
       0.974128         2.90746          2.4827 
       0.989692         2.76329         2.39136 
        1.00528         2.70007         2.30448 
        1.02113           2.607         2.22056 
        1.03692          2.5417         2.14113 
        1.05264          2.4286         2.06593 
        1.06832         2.36023         1.99447 
        1.08405         2.27915         1.92618 
        1.09979         2.21698         1.86105 
        1.11537         2.14374         1.79958 
        1.13105         2.06655         1.74051 
        1.14679         2.01095         1.68386 
        1.16256         1.94437         1.62962 
        1.17828         1.91127         1.57794 
        1.19395         1.83393         1.52867 
         1.2097         1.77774         1.48126 
        1.22537         1.71857         1.43608 
          1.241         1.67933         1.39292 
        1.25666         1.64844         1.35142 
        1.27241         1.60443         1.31142 
        1.28819         1.53525         1.27296 
        1.30392         1.49769         1.23616 
        1.31957         1.46933         1.20098 
        1.33529         1.40694         1.16703 
        1.35108         1.38105         1.13426 
        1.36674         1.34159         1.10298 
         1.3824         1.32304         1.07291 
        1.39811         1.28435         1.04386 
        1.41389         1.24631         1.01577 
        1.42964         1.21413        0.988754 
        1.44531          1.1896        0.962855 
        1.46101         1.16018        0.937827 
        1.47667         1.13419        0.913762 
        1.49229          1.0943        0.890604 
        1.50793         1.06372         0.86822 
        1.52367         1.04365         0.84646 
        1.53953         1.01453        0.825299 
        1.55526          1.0069        0.805029 
        1.57092        0.982071        0.785521 
        1.58662         0.96851        0.766612 
        1.60235        0.932498        0.748288 
        1.61809        0.914591        0.730552 
        1.63369        0.889243        0.713547 
        1.64941        0.873768         0.69696 
        1.66519        0.858758         0.68084 
        1.68085        0.835036        0.665342 
        1.69652        0.817894        0.650322 
        1.71228         0.79877        0.635678 
        1.72806        0.784559        0.621473 
        1.74368        0.766996        0.607844 
        1.75933        0.754056        0.594594 
        1.77505        0.739263        0.581677 
        1.79081        0.716297         0.56912 
         1.8065         0.70928        0.556986 
        1.82218        0.689489        0.545215 
        1.83797        0.675017        0.533704 
        1.85367        0.664971        0.522587 
        1.86928        0.649904        0.511853 
        1.88497        0.635734        0.501361 
        1.90073        0.629239        0.491123 
        1.91647        0.610893         0.48118 
        1.93218        0.601336        0.471532 
        1.94787        0.591147        0.462162 
        1.96363        0.580202        0.453009 
        1.97935        0.567603        0.444122 
        1.99499         0.55774        0.435523 
        2.01064        0.547516        0.427139 
         2.0264        0.534926        0.418922 
        2.04216        0.527732        0.410924 
        2.05781        0.516973        0.403185 
        2.07353        0.508926        0.395618 
        2.08928        0.500036        0.388227 
        2.10499        0.490673        0.381045 
        2.12065        0.480623        0.374065 
        2.13633         0.47436        0.367253 
        2.15211        0.461994        0.360567 
        2.16785        0.457482        0.354065 
        2.18349        0.448021        0.347763 
        2.19916        0.442042        0.341602 
        2.21489        0.434166        0.335569 
        2.23063          0.4249        0.329676 
         2.2463        0.418109        0.323952 
        2.26194        0.412303        0.318377 
        2.27765        0.405092        0.312904 
        2.29341        0.398866        0.307546 
        2.30914        0.389939        0.302323 
        2.32486        0.385542        0.297224 
        2.34061        0.377323        0.292234 
        2.35635        0.371683        0.287363 
        2.37203        0.366976        0.282619 
        2.38768        0.361275        0.277991 
        2.40339        0.355632         0.27345 
        2.41914        0.350705           0.269 
        2.43483        0.344967        0.264664 
         2.4505        0.338827        0.260431 
        2.46622        0.334191        0.256275 
        2.48195        0.328683        0.252209 
        2.49759          0.3239        0.248253 
        2.51328        0.317299        0.244371 
        2.52906        0.314125        0.240548 
        2.54479        0.308117         0.23682 
        2.56049        0.304552        0.233178 
        2.57618        0.300673        0.229615 
        2.59189        0.295251        0.226121 
        2.60758        0.291579        0.222706 
        2.62325        0.287345        0.219364 
        2.63898        0.283827        0.216079 
        2.65468        0.277239        0.212869 
        2.67044        0.274366        0.209709 
        2.68618        0.271627        0.206621 
        2.70184        0.267505        0.203607 
        2.71755        0.263091        0.200645 
        2.73329        0.259736        0.197737 
        2.74897        0.255832        0.194897 
        2.76462         0.25245        0.192118 
        2.78034        0.248573        0.189382 
        2.79607         0.24566        0.186696 
        2.81179        0.242342        0.184064 
        2.82749        0.238682        0.181487 
        2.84321        0.234807        0.178955 
        2.85893        0.232338        0.176473 
        2.87462        0.229126        0.174041 
        2.89033        0.227051        0.171654 
        2.90605        0.224042        0.169308 
        2.92176        0.221433        0.167008 
        2.93747        0.217773        0.164751 
        2.95318        0.215415        0.162535 
        2.96891        0.213553        0.160359 
        2.98456        0.209688        0.158232 
        3.00023        0.207592        0.156141 
        3.01596        0.204633         0.15408 
        3.03164        0.202195        0.152063 
        3.04738        0.200189        0.150075 
         3.0631        0.197039        0.148124 
        3.07883        0.194742        0.146207 
        3.09456        0.193053        0.144324 
        3.11026         0.19057        0.142478 
        3.12596        0.188213        0.140663 
        3.14163        0.186052        0.138884 
        3.15734        0.184019        0.137132 
        3.17308        0.182079        0.135405 
        3.18879        0.179824        0.133713 
        3.20447         0.17791        0.132053 
         3.2202        0.175683        0.130415 
         3.2359        0.173373        0.128807 
        3.25157        0.170957        0.127231 
        3.26729        0.170181        0.125676 
        3.28304        0.168162        0.124144 
        3.29877        0.166449        0.122639 
        3.31446        0.165077        0.121162 
        3.33014        0.162301        0.119711 
        3.34585          0.1614        0.118281 
        3.36158        0.159709        0.116873 
        3.37727        0.157826        0.115492 
        3.39294        0.156677        0.114134 
        3.40867        0.154335        0.112793 
        3.42439        0.153392        0.111474 
        3.44008        0.151856        0.110179 
        3.45578        0.150508        0.108903 
        3.47153        0.148923        0.107645 
        3.48724        0.147637        0.106409 
        3.50292        0.146395        0.105194 
        3.51859        0.144863           0.104 
        3.53431        0.143431         0.10282 
        3.55007        0.142405        0.101655 
        3.56577         0.14112        0.100513 
        3.58146        0.139615       0.0993891 
        3.59719        0.138555       0.0982796 
        3.61292        0.137237       0.0971873 
        3.62859        0.136263       0.0961156 
        3.64429        0.134653        0.095058 
        3.66003        0.133586        0.094013 
        3.67578        0.132599        0.092984 
        3.69146        0.131514       0.0919742 
        3.70712        0.130554       0.0909812 
        3.72284        0.129523       0.0899991 
        3.73853        0.128536       0.0890332 
        3.75422        0.127225        0.088081 
        3.76993        0.126402       0.0871419 
        3.78564         0.12498       0.0862167 
        3.80137        0.124127       0.0853035 
        3.81707        0.123314       0.0844053 
        3.83279        0.122376       0.0835193 
        3.84853         0.12109       0.0826445 
        3.86424        0.120325       0.0817839 
        3.87992        0.119398       0.0809367 
        3.89561         0.11834       0.0801015 
        3.91134         0.11724       0.0792763 
        3.92704        0.116332       0.0784636 
        3.94273        0.115615       0.0776631 
        3.95845        0.114244       0.0768722 
        3.97418        0.113668       0.0760921 
        3.98988         0.11242       0.0753239 
        4.00554        0.111041       0.0745683 
        4.02125        0.110267       0.0738209 
        4.03698        0.108856       0.0730825 
        4.05268        0.107364       0.0723558 
        4.06839        0.106345       0.0716385 
         4.0841        0.104932        0.070931 
        4.09983        0.104043       0.0702321 
        4.11555         0.10237       0.0695428 
        4.13124        0.101287       0.0688647 
        4.14693        0.100139       0.0681949 
        4.16266       0.0990036       0.0675325 
        4.17839       0.0979424       0.0668792 
        4.19408       0.0968798        0.066236 
        4.20977       0.0959789        0.065601 
        4.22551       0.0948055       0.0649727 
        4.24123       0.0939059       0.0643533 
        4.25691       0.0931021       0.0637436 
        4.27259       0.0920275       0.0631416 
        4.28831       0.0915306        0.062546 
        4.30404       0.0903851       0.0619576 
        4.31974       0.0897532        0.061378 
        4.33543       0.0889988       0.0608061 
        4.35116        0.088515       0.0602401 
        4.36688       0.0876368       0.0596815 
        4.38255       0.0868451        0.059132 
        4.39825       0.0863318       0.0585882 
        4.41398       0.0856927       0.0580501 
         4.4297       0.0853623       0.0575193 
        4.44541       0.0847155       0.0569953 
        4.46111       0.0839885       0.0564781 
        4.47683         0.08353        0.055967 
        4.49251       0.0831516       0.0554631 
        4.50819       0.0830168       0.0549656 
         4.5239       0.0824383       0.0544735 
        4.53962       0.0821602       0.0539867 
        4.55535       0.0815897       0.0535056 
        4.57106       0.0815299       0.0530311 
        4.58678       0.0810172       0.0525622 
         4.6025       0.0810212       0.0520988 
        4.61821       0.0810022        0.051641 
        4.63391        0.080691       0.0511894 
         4.6496       0.0804118       0.0507432 
        4.66532        0.080322       0.0503017 
        4.68103       0.0802506       0.0498656 
        4.69673       0.0801506       0.0494351 
        4.71241       0.0800055       0.0490101 
        4.72811       0.0801134       0.0485893 
        4.74384       0.0797952       0.0481729 
        4.75955       0.0800811        0.047762 
        4.77525       0.0802277       0.0473561 
        4.79096       0.0800284       0.0469544 
        4.80669       0.0799756       0.0465572 
         4.8224       0.0803309        0.046165 
        4.83809       0.0804115       0.0457777 
        4.85379       0.0807894       0.0453946 
         4.8695         0.08112       0.0450155 
        4.88521       0.0810575       0.0446409 
        4.90093       0.0814865       0.0442705 
        4.91663       0.0816535       0.0439046 
        4.93234       0.0819938       0.0435424 
        4.94807       0.0824937       0.0431841 
        4.96377       0.0828388       0.0428304 
        4.97943       0.0833589       0.0424815 
        4.99514        0.083107       0.0421355 
        5.01086       0.0842496        0.041793 
        5.02654       0.0846273       0.0414553 
        5.04227       0.0850543       0.0411202 
          5.058       0.0858425       0.0407887 
        5.07371       0.0863486       0.0404615 
        5.08942       0.0871729       0.0401378 
        5.10513       0.0876675       0.0398176 
        5.12084       0.0880246       0.0395007 
        5.13656       0.0890674       0.0391874 
        5.15225        0.089701       0.0388779 
        5.16796       0.0907347       0.0385712 
        5.18369       0.0914552       0.0382676 
         5.1994       0.0924714       0.0379678 
        5.21509        0.092852       0.0376714 
        5.23079       0.0941894       0.0373779 
        5.24649       0.0952947       0.0370877 
        5.26217       0.0957643       0.0368007 
        5.27788       0.0968788       0.0365164 
        5.29359       0.0978032        0.036235 
        5.30933       0.0996554       0.0359562 
        5.32504        0.100292       0.0356807 
        5.34073        0.101863       0.0354084 
        5.35646        0.102877       0.0351384 
        5.37218        0.104075       0.0348712 
        5.38789        0.105021       0.0346071 
        5.40357         0.10618       0.0343461 
        5.41929        0.107828       0.0340872 
        5.43502        0.109677       0.0338309 
         5.4507        0.111067       0.0335779 
        5.46639        0.112549       0.0333273 
        5.48212        0.113876       0.0330788 
        5.49786        0.115556       0.0328324 
        5.51353        0.118082       0.0325898 
        5.52921        0.118441       0.0323494 
        5.54495        0.120482       0.0321107 
        5.56066        0.122365       0.0318746 
        5.57637        0.124692        0.031641 
        5.59207        0.126199       0.0314099 
        5.60778        0.127934        0.031181 
        5.62346        0.130702       0.0309546 
        5.63916        0.131561       0.0307303 
        5.65487        0.134363       0.0305081 
         5.6706        0.136147       0.0302879 
        5.68633        0.138478       0.0300697 
        5.70203        0.141098       0.0298541 
        5.71773        0.143345       0.0296406 
        5.73344        0.144747       0.0294291 
        5.74916        0.148151       0.0292195 
        5.76486        0.150667       0.0290122 
        5.78054        0.152191       0.0288072 
        5.79626        0.154944       0.0286036 
          5.812         0.15792       0.0284017 
         5.8277         0.16047       0.0282024 
        5.84339        0.162624        0.028005 
        5.85911        0.165687       0.0278091 
        5.87484        0.168627       0.0276151 
        5.89053         0.17206       0.0274233 
        5.90623        0.173773       0.0272333 
        5.92195        0.177589       0.0270447 
        5.93767        0.180157       0.0268579 
        5.95336        0.182821       0.0266733 
        5.96905        0.185806       0.0264904 
        5.98476        0.188504        0.026309 
        6.00048        0.192139       0.0261293 
        6.01617        0.196558       0.0259514 
        6.03185        0.199453       0.0257754 
        6.04756         0.20094       0.0256006 
        6.06331        0.204623       0.0254271 
        6.07903        0.210941       0.0252555 
        6.09473        0.212702       0.0250856 
        6.11044        0.217038       0.0249172 
        6.12616        0.218813       0.0247503 
        6.14186        0.222748       0.0245851 
        6.15755        0.227561       0.0244214 
        6.17326         0.23023       0.0242591 
        6.18898        0.233694       0.0240982 
        6.20467        0.236739        0.023939 
        6.22036         0.24079       0.0237812 
         6.2361        0.243251       0.0236245 
         6.2518        0.249381       0.0234694 
        6.26748         0.25215        0.023316 
        6.28319        0.256532       0.0231636 
        6.29893        0.259349       0.0230124 
        6.31463        0.265207       0.0228628 
        6.33033        0.267355       0.0227145 
        6.34604        0.272928       0.0225675 
        6.36177        0.276135       0.0224216 
        6.37747        0.280605       0.0222773 
