# k  (h/Mpc)    Pcb(k)  (Mpc/h)^3    Pcb_linear(k) (Mpc/h)^3   ShotnoiseSubtracted = true
      0.0200456          6254.6         6339.96 
      0.0350414         4709.12         4608.94 
      0.0492313          3339.3         3348.77 
      0.0637834         2713.89          2783.8 
      0.0800726         2143.03         2209.43 
       0.096163         1649.22         1603.14 
       0.111083         1334.76          1278.7 
       0.126058         1125.15         1133.19 
       0.142273         960.284         960.062 
       0.158546          783.94         758.247 
        0.17375         678.078         638.823 
       0.188953         618.464          578.44 
       0.204907         526.362         511.801 
       0.220756         468.668         433.015 
        0.23588          413.21         376.685 
         0.2514         371.017         342.215 
       0.267535          353.58         309.646 
       0.283568         308.323         273.066 
       0.299022         289.347         243.288 
       0.314451         281.451         222.348 
       0.330372         244.799          203.98 
       0.346141         226.111         185.143 
       0.361624         212.713         168.269 
       0.377134         194.926         154.834 
       0.392932         189.771         143.265 
       0.408854         178.431         132.063 
       0.424564          170.29         121.724 
       0.440253         154.191         112.852 
       0.455999         144.234         105.138 
       0.471626         139.932         98.0486 
        0.48727         135.044         91.4169 
       0.502856           123.6         85.4593 
       0.518488         121.012         80.1435 
       0.534347         113.571         75.2018 
       0.550082         110.564         70.6452 
       0.565732         107.841         66.4766 
       0.581496          99.426         62.6586 
       0.597222         96.8298         59.1572 
       0.612804         93.5565         55.9375 
       0.628434         91.1913         52.9364 
       0.644267           86.35         50.1307 
       0.660051         83.4534         47.5448 
       0.675724         81.4965         45.1571 
       0.691403         79.8333         42.9313 
       0.707174          77.036          40.843 
       0.722871         75.2289         38.9019 
        0.73838         72.5984         37.1077 
       0.754018         68.5879         35.4131 
       0.769845         67.9892          33.806 
        0.78569         65.7392         32.2972 
       0.801365         63.8977         30.8955 
       0.817031         61.6263         29.5783 
       0.832809         60.5577         28.3299 
       0.848511         59.0201         27.1595 
       0.864097         57.8828         26.0636 
       0.879701          56.672         25.0274 
       0.895507         54.5964         24.0356 
       0.911279         53.6517         23.0998 
        0.92691         52.1923         22.2219 
       0.942635         51.1333         21.3849 
       0.958396         50.8181         20.5894 
       0.974128         49.4941         19.8361 
       0.989692          48.064          19.128 
        1.00528         47.2888         18.4536 
        1.02113         46.2218         17.8013 
        1.03692         45.8435          17.183 
        1.05264         44.7457         16.5971 
        1.06832         43.7582         16.0395 
        1.08405         42.8357         15.5062 
        1.09979         42.6415         14.9969 
        1.11537         41.3753         14.5156 
        1.13105         40.4123         14.0526 
        1.14679         39.8758         13.6081 
        1.16256         39.3387         13.1821 
        1.17828          38.814         12.7757 
        1.19395         37.8518          12.388 
         1.2097         37.6551         12.0144 
        1.22537         36.8141          11.658 
          1.241         36.1945         11.3173 
        1.25666         35.5872         10.9894 
        1.27241         35.3347         10.6729 
        1.28819         34.2105         10.3685 
        1.30392         34.1879         10.0768 
        1.31957         33.7027         9.79768 
        1.33529         33.0415         9.52815 
        1.35108         32.5214         9.26773 
        1.36674         32.1968         9.01893 
         1.3824         31.6407         8.77952 
        1.39811           30.99         8.54803 
        1.41389         30.6669         8.32403 
        1.42964         30.4462         8.10845 
        1.44531         29.7854         7.90159 
        1.46101         29.5832         7.70152 
        1.47667         29.2116         7.50899 
        1.49229         28.6376         7.32358 
        1.50793         28.4116         7.14423 
        1.52367         27.9264         6.96975 
        1.53953         27.7748         6.79994 
        1.55526         27.2923         6.63716 
        1.57092         27.0343          6.4804 
        1.58662         26.6285         6.32833 
        1.60235         26.2747         6.18087 
        1.61809         26.0185         6.03803 
        1.63369         25.7791         5.90099 
        1.64941         25.4234         5.76724 
        1.66519           25.01         5.63715 
        1.68085         24.6228         5.51202 
        1.69652         24.5013         5.39065 
        1.71228         24.2673         5.27225 
        1.72806         23.8608         5.15733 
        1.74368         23.6055         5.04699 
        1.75933         23.4014         4.93966 
        1.77505         23.1802         4.83496 
        1.79081         22.9118         4.73312 
         1.8065         22.6177         4.63465 
        1.82218         22.3845         4.53907 
        1.83797         22.2486         4.44554 
        1.85367         22.0178         4.35516 
        1.86928         21.8805         4.26785 
        1.88497         21.5104         4.18245 
        1.90073         21.2875         4.09909 
        1.91647         20.9968         4.01807 
        1.93218         21.0718         3.93941 
        1.94787         20.6979         3.86299 
        1.96363         20.5197         3.78829 
        1.97935         20.2037         3.71572 
        1.99499         20.0412         3.64546 
        2.01064          19.814         3.57692 
         2.0264         19.6421         3.50972 
        2.04216         19.5424         3.44428 
        2.05781         19.2848         3.38092 
        2.07353         19.1232         3.31893 
        2.08928         18.8121         3.25837 
        2.10499          18.665         3.19948 
        2.12065         18.5127         3.14222 
        2.13633         18.3952         3.08631 
        2.15211         18.1103         3.03141 
        2.16785         18.0853           2.978 
        2.18349         17.8191         2.92621 
        2.19916         17.6583         2.87554 
        2.21489         17.4449         2.82591 
        2.23063         17.3917         2.77742 
         2.2463         17.1431         2.73028 
        2.26194         17.0197         2.68436 
        2.27765         16.7362         2.63926 
        2.29341         16.6702         2.59508 
        2.30914         16.4735           2.552 
        2.32486         16.4232         2.50992 
        2.34061         16.2485         2.46873 
        2.35635          16.044         2.42849 
        2.37203         15.9277          2.3893 
        2.38768         15.7569         2.35105 
        2.40339         15.7085          2.3135 
        2.41914          15.504         2.27668 
        2.43483         15.3246         2.24079 
         2.4505           15.17         2.20574 
        2.46622         15.1336         2.17132 
        2.48195         14.9535         2.13763 
        2.49759         14.7355         2.10484 
        2.51328         14.7506         2.07265 
        2.52906         14.5658         2.04093 
        2.54479         14.4105         2.00999 
        2.56049         14.2552         1.97975 
        2.57618         14.2444         1.95016 
        2.59189         14.0937         1.92114 
        2.60758         13.8926         1.89275 
        2.62325         13.8085         1.86496 
        2.63898         13.7538         1.83764 
        2.65468         13.5127         1.81093 
        2.67044         13.4811         1.78463 
        2.68618           13.39         1.75891 
        2.70184         13.2344         1.73381 
        2.71755         13.1277         1.70913 
        2.73329         13.0077         1.68489 
        2.74897          12.911          1.6612 
        2.76462         12.8171         1.63803 
        2.78034         12.6788         1.61519 
        2.79607         12.6022         1.59277 
        2.81179         12.4852          1.5708 
        2.82749         12.3927         1.54927 
        2.84321         12.2852         1.52812 
        2.85893         12.1524         1.50737 
        2.87462         12.1135         1.48704 
        2.89033         11.9638         1.46707 
        2.90605         11.9006         1.44745 
        2.92176         11.7853          1.4282 
        2.93747         11.6832          1.4093 
        2.95318         11.5857         1.39075 
        2.96891         11.5195         1.37252 
        2.98456         11.3903          1.3547 
        3.00023         11.3214         1.33716 
        3.01596         11.2315         1.31989 
        3.03164         11.1677         1.30297 
        3.04738         11.0566         1.28629 
         3.0631         10.9064         1.26991 
        3.07883         10.8545         1.25382 
        3.09456         10.7865         1.23801 
        3.11026         10.7267          1.2225 
        3.12596         10.6211         1.20725 
        3.14163         10.5534          1.1923 
        3.15734         10.4426         1.17757 
        3.17308          10.384         1.16305 
        3.18879         10.2959         1.14881 
        3.20447         10.2078         1.13484 
         3.2202         10.1244         1.12105 
         3.2359         10.0122         1.10752 
        3.25157         9.99103         1.09424 
        3.26729         9.88446         1.08114 
        3.28304         9.77797         1.06823 
        3.29877         9.74428         1.05554 
        3.31446         9.66042         1.04309 
        3.33014          9.5824         1.03085 
        3.34585         9.50826         1.01879 
        3.36158         9.44879         1.00691 
        3.37727         9.39899        0.995249 
        3.39294         9.30672        0.983786 
        3.40867         9.24542        0.972461 
        3.42439         9.14817        0.961321 
        3.44008         9.08815        0.950377 
        3.45578         9.01477        0.939596 
        3.47153         8.94823        0.928958 
        3.48724         8.86958        0.918503 
        3.50292         8.78847        0.908233 
        3.51859         8.74727        0.898125 
        3.53431         8.65584         0.88814 
        3.55007         8.57856        0.878282 
        3.56577         8.52756        0.868613 
        3.58146         8.47271        0.859093 
        3.59719         8.39172        0.849694 
        3.61292         8.36555        0.840439 
        3.62859         8.31325        0.831356 
        3.64429         8.22251         0.82239 
        3.66003         8.18394        0.813529 
        3.67578         8.09045        0.804802 
        3.69146         8.07404        0.796235 
        3.70712          7.9918        0.787809 
        3.72284         7.91621        0.779474 
        3.73853         7.88191        0.771273 
        3.75422          7.8142        0.763188 
        3.76993         7.74371        0.755211 
        3.78564         7.68866        0.747352 
        3.80137          7.6575        0.739591 
        3.81707          7.5724        0.731957 
        3.83279         7.50588        0.724425 
        3.84853         7.45689        0.716986 
        3.86424         7.42839        0.709666 
        3.87992         7.37152        0.702459 
        3.89561          7.2983        0.695352 
        3.91134         7.22572        0.688329 
        3.92704         7.19239        0.681411 
        3.94273         7.13486        0.674595 
        3.95845         7.10406        0.667859 
        3.97418         7.03825        0.661214 
        3.98988         6.99906        0.654668 
        4.00554            6.94        0.648229 
        4.02125         6.90453        0.641858 
        4.03698         6.83176        0.635562 
        4.05268         6.77502        0.629366 
        4.06839         6.71145        0.623247 
         4.0841         6.68725        0.617211 
        4.09983         6.62955        0.611247 
        4.11555         6.57197        0.605364 
        4.13124         6.53289        0.599575 
        4.14693          6.4769        0.593856 
        4.16266         6.44409        0.588199 
        4.17839          6.4022        0.582619 
        4.19408         6.34775        0.577123 
        4.20977         6.30381        0.571697 
        4.22551         6.26782        0.566327 
        4.24123         6.21139        0.561031 
        4.25691         6.16725        0.555818 
        4.27259         6.10831        0.550669 
        4.28831         6.07837        0.545575 
        4.30404         6.02036         0.54054 
        4.31974         5.98538         0.53558 
        4.33543          5.9383        0.530685 
        4.35116         5.89852         0.52584 
        4.36688         5.85493        0.521056 
        4.38255         5.81828         0.51635 
        4.39825         5.77731        0.511692 
        4.41398         5.72629        0.507082 
         4.4297         5.70667        0.502534 
        4.44541         5.65171        0.498042 
        4.46111         5.61461        0.493609 
        4.47683         5.58832        0.489226 
        4.49251         5.54616        0.484906 
        4.50819         5.51281        0.480638 
         4.5239            5.46        0.476416 
        4.53962         5.42278         0.47224 
        4.55535         5.38907        0.468111 
        4.57106         5.34806        0.464038 
        4.58678         5.31458        0.460012 
         4.6025         5.28019        0.456033 
        4.61821         5.24389        0.452102 
        4.63391         5.19651        0.448222 
         4.6496         5.16475        0.444389 
        4.66532         5.12693        0.440595 
        4.68103         5.09395        0.436847 
        4.69673         5.06677        0.433146 
        4.71241         5.03466        0.429492 
        4.72811         4.98457        0.425873 
        4.74384         4.97221        0.422292 
        4.75955         4.92482        0.418758 
        4.77525         4.88537        0.415265 
        4.79096         4.86903        0.411809 
        4.80669         4.83422         0.40839 
         4.8224         4.79266        0.405014 
        4.83809         4.76378        0.401679 
        4.85379         4.71844         0.39838 
         4.8695          4.7037        0.395115 
        4.88521         4.67166        0.391888 
        4.90093         4.62949        0.388697 
        4.91663         4.61364        0.385544 
        4.93234         4.57676        0.382423 
        4.94807         4.54808        0.379334 
        4.96377         4.52156        0.376285 
        4.97943          4.4844        0.373276 
        4.99514         4.45712        0.370292 
        5.01086         4.43303        0.367338 
        5.02654         4.40393        0.364424 
        5.04227          4.3756        0.361533 
          5.058         4.33743        0.358673 
        5.07371         4.31454        0.355848 
        5.08942         4.28619        0.353054 
        5.10513         4.25554        0.350289 
        5.12084         4.23383        0.347553 
        5.13656         4.20591        0.344846 
        5.15225         4.17664        0.342173 
        5.16796         4.15786        0.339524 
        5.18369         4.11966          0.3369 
         5.1994         4.09737        0.334309 
        5.21509         4.06694        0.331747 
        5.23079          4.0399        0.329209 
        5.24649         4.01837          0.3267 
        5.26217         3.98789        0.324219 
        5.27788          3.9769         0.32176 
        5.29359         3.95101        0.319325 
        5.30933         3.92682        0.316913 
        5.32504         3.89625         0.31453 
        5.34073         3.87625        0.312173 
        5.35646         3.84905        0.309836 
        5.37218         3.82597        0.307523 
        5.38789         3.80744        0.305236 
        5.40357         3.78049        0.302976 
        5.41929         3.75002        0.300734 
        5.43502         3.72995        0.298513 
         5.4507         3.70997        0.296321 
        5.46639         3.67857         0.29415 
        5.48212         3.66146        0.291996 
        5.49786         3.64084        0.289861 
        5.51353         3.61111        0.287758 
        5.52921         3.59709        0.285674 
        5.54495         3.57534        0.283604 
        5.56066         3.55772        0.281557 
        5.57637         3.52815         0.27953 
        5.59207         3.50752        0.277525 
        5.60778         3.49138        0.275539 
        5.62346         3.47173        0.273575 
        5.63916         3.44555        0.271629 
        5.65487          3.4243          0.2697 
         5.6706         3.39792        0.267788 
        5.68633         3.38863        0.265893 
        5.70203         3.36983        0.264021 
        5.71773         3.34009        0.262167 
        5.73344          3.3241         0.26033 
        5.74916         3.30347        0.258509 
        5.76486         3.28647        0.256708 
        5.78054         3.26602        0.254927 
        5.79626         3.24605        0.253157 
          5.812         3.22079        0.251403 
         5.8277         3.20622         0.24967 
        5.84339          3.1947        0.247954 
        5.85911         3.17177         0.24625 
        5.87484         3.14835        0.244563 
        5.89053         3.13263        0.242895 
        5.90623         3.12064        0.241242 
        5.92195         3.10154        0.239601 
        5.93767         3.07922        0.237976 
        5.95336         3.06108        0.236369 
        5.96905         3.04342        0.234778 
        5.98476         3.02381        0.233199 
        6.00048         3.01009        0.231634 
        6.01617         2.99308        0.230085 
        6.03185          2.9765        0.228552 
        6.04756         2.95196         0.22703 
        6.06331          2.9405        0.225518 
        6.07903         2.92434        0.224024 
        6.09473         2.90465        0.222544 
        6.11044         2.88694        0.221076 
        6.12616         2.87715        0.219621 
        6.14186         2.85869        0.218182 
        6.15755         2.84553        0.216755 
        6.17326         2.82984        0.215339 
        6.18898         2.80566        0.213936 
        6.20467         2.79376        0.212548 
        6.22036          2.7819        0.211172 
         6.2361         2.76375        0.209805 
         6.2518         2.74979        0.208452 
        6.26748         2.73365        0.207113 
        6.28319         2.71865        0.205783 
        6.29893         2.70358        0.204464 
        6.31463         2.69219        0.203158 
        6.33033         2.68092        0.201864 
        6.34604         2.65893         0.20058 
        6.36177         2.65067        0.199307 
        6.37747          2.6325        0.198046 
