# k  (h/Mpc)    Pcb(k)  (Mpc/h)^3    Pcb_linear(k) (Mpc/h)^3   ShotnoiseSubtracted = true
      0.0200456         1292.48         1309.08 
      0.0350414         963.867         951.654 
      0.0492313         693.544         691.454 
      0.0637834         568.541         574.799 
      0.0800726         450.028         456.204 
       0.096163         336.511         331.016 
       0.111083         270.131         264.027 
       0.126058         232.753         233.981 
       0.142273         196.806         198.234 
       0.158546         158.102         156.563 
        0.17375         134.917         131.904 
       0.188953         121.235         119.436 
       0.204907         104.341         105.677 
       0.220756         90.9035         89.4089 
        0.23588         79.2938          77.778 
         0.2514         71.8964         70.6605 
       0.267535         65.8716         63.9357 
       0.283568         57.9531         56.3827 
       0.299022         52.3286          50.234 
       0.314451         48.9082         45.9105 
       0.330372         44.0466         42.1177 
       0.346141         40.1314         38.2283 
       0.361624         36.5936         34.7443 
       0.377134         33.5062         31.9702 
       0.392932         32.1608         29.5814 
       0.408854         29.1189         27.2683 
       0.424564         27.6679         25.1336 
       0.440253         25.2571         23.3018 
       0.455999         23.1151         21.7089 
       0.471626         21.7304         20.2451 
        0.48727         20.9407         18.8758 
       0.502856            19.6         17.6456 
       0.518488         18.1116          16.548 
       0.534347         16.9651         15.5277 
       0.550082         16.2683         14.5868 
       0.565732         15.5628         13.7261 
       0.581496         14.6362         12.9378 
       0.597222         13.7775         12.2148 
       0.612804         13.0118           11.55 
       0.628434         12.6218         10.9303 
       0.644267         11.9687          10.351 
       0.660051         11.3283         9.81706 
       0.675724         10.7198         9.32404 
       0.691403         10.3808         8.86446 
       0.707174          9.8854         8.43326 
       0.722871         9.61548         8.03247 
        0.73838         9.00841           7.662 
       0.754018         8.58924         7.31211 
       0.769845         8.21507         6.98026 
        0.78569         7.99891         6.66873 
       0.801365         7.64238         6.37931 
       0.817031         7.38306         6.10734 
       0.832809         7.03043         5.84957 
       0.848511         6.83136         5.60791 
       0.864097         6.57939         5.38162 
       0.879701         6.41551         5.16767 
       0.895507         6.15043         4.96287 
       0.911279         5.91371         4.76966 
        0.92691         5.74593         4.58837 
       0.942635         5.52285         4.41555 
       0.958396         5.34041         4.25131 
       0.974128         5.20382         4.09576 
       0.989692          4.9615         3.94955 
        1.00528         4.87536          3.8103 
        1.02113         4.72062         3.67561 
        1.03692         4.59738         3.54796 
        1.05264         4.42087         3.42697 
        1.06832         4.30883         3.31184 
        1.08405         4.18709         3.20172 
        1.09979         4.08201         3.09656 
        1.11537         3.96277         2.99718 
        1.13105         3.83764         2.90159 
        1.14679         3.74161         2.80981 
        1.16256         3.62338         2.72184 
        1.17828         3.57323         2.63794 
        1.19395         3.44179         2.55787 
         1.2097         3.34498         2.48073 
        1.22537         3.24258         2.40715 
          1.241         3.17616          2.3368 
        1.25666         3.13443         2.26908 
        1.27241          3.0603         2.20375 
        1.28819         2.93772         2.14088 
        1.30392         2.87078         2.08066 
        1.31957         2.82831         2.02303 
        1.33529          2.7254         1.96737 
        1.35108         2.67484          1.9136 
        1.36674         2.60559         1.86223 
         1.3824         2.57388          1.8128 
        1.39811         2.50228           1.765 
        1.41389         2.44028         1.71875 
        1.42964         2.39187         1.67423 
        1.44531         2.34988         1.63152 
        1.46101         2.29646         1.59021 
        1.47667         2.25098         1.55046 
        1.49229         2.17595         1.51217 
        1.50793         2.12444         1.47514 
        1.52367         2.08858         1.43911 
        1.53953         2.03803         1.40405 
        1.55526         2.03644         1.37044 
        1.57092         1.98194         1.33807 
        1.58662         1.95988         1.30667 
        1.60235         1.89417         1.27623 
        1.61809         1.86453         1.24673 
        1.63369          1.8235         1.21844 
        1.64941         1.79323         1.19082 
        1.66519         1.76758         1.16396 
        1.68085         1.72345         1.13812 
        1.69652         1.69386         1.11306 
        1.71228         1.65945         1.08862 
        1.72806         1.63569         1.06489 
        1.74368         1.60561          1.0421 
        1.75933         1.58155         1.01994 
        1.77505         1.55229        0.998324 
        1.79081         1.51554        0.977295 
         1.8065         1.49841        0.956962 
        1.82218         1.46356        0.937228 
        1.83797         1.43907        0.917915 
        1.85367         1.41696        0.899255 
        1.86928         1.39396        0.881226 
        1.88497           1.366        0.863594 
        1.90073          1.3553         0.84638 
        1.91647         1.32103        0.829651 
        1.93218         1.30447        0.813411 
        1.94787         1.28381         0.79763 
        1.96363          1.2661        0.782206 
        1.97935         1.24228        0.767222 
        1.99499         1.22352        0.752715 
        2.01064          1.2058        0.738564 
         2.0264         1.18216        0.724688 
        2.04216         1.16993        0.711175 
        2.05781         1.14659        0.698093 
        2.07353         1.13688        0.685294 
        2.08928         1.11574        0.672788 
        2.10499         1.09815        0.660628 
        2.12065         1.08159        0.648806 
        2.13633         1.06778        0.637262 
        2.15211         1.04621        0.625926 
        2.16785         1.03666        0.614898 
        2.18349          1.0185        0.604204 
        2.19916         1.00882        0.593743 
        2.21489        0.994176        0.583495 
        2.23063         0.97385        0.573482 
         2.2463        0.961146        0.563749 
        2.26194        0.951591        0.554267 
        2.27765        0.934982        0.544954 
        2.29341        0.924175        0.535832 
        2.30914        0.906972        0.526937 
        2.32486        0.899953        0.518249 
        2.34061        0.886757        0.509743 
        2.35635        0.874381        0.501436 
        2.37203        0.862444        0.493342 
        2.38768         0.85213        0.485444 
        2.40339        0.843779        0.477691 
        2.41914        0.832849        0.470089 
        2.43483        0.821509        0.462679 
         2.4505        0.809352        0.455442 
        2.46622        0.799207        0.448335 
        2.48195        0.789648        0.441379 
        2.49759        0.779172        0.434607 
        2.51328        0.767836        0.427961 
        2.52906        0.761444        0.421411 
        2.54479        0.749493        0.415023 
        2.56049        0.742217         0.40878 
        2.57618          0.7328         0.40267 
        2.59189        0.724388        0.396677 
        2.60758        0.715792        0.390815 
        2.62325        0.706262        0.385078 
        2.63898        0.700209        0.379437 
        2.65468        0.687815        0.373921 
        2.67044        0.683473         0.36849 
        2.68618        0.677555         0.36318 
        2.70184         0.66651        0.357997 
        2.71755         0.66043        0.352901 
        2.73329        0.652799        0.347897 
        2.74897        0.644359        0.343006 
        2.76462        0.636512         0.33822 
        2.78034        0.631301        0.333505 
        2.79607        0.624599        0.328876 
        2.81179        0.616079         0.32434 
        2.82749        0.609946        0.319894 
        2.84321        0.602578        0.315527 
        2.85893        0.595167        0.311243 
        2.87462        0.589368        0.307045 
        2.89033        0.586489        0.302921 
        2.90605        0.580167         0.29887 
        2.92176        0.573198        0.294894 
        2.93747        0.567436        0.290993 
        2.95318        0.560934        0.287162 
        2.96891        0.557954        0.283398 
        2.98456        0.547508        0.279718 
        3.00023        0.544194        0.276098 
        3.01596        0.539089         0.27253 
        3.03164         0.53403        0.269037 
        3.04738         0.52821        0.265594 
         3.0631        0.521449        0.262212 
        3.07883        0.517874        0.258889 
        3.09456        0.513976        0.255625 
        3.11026        0.508214        0.252421 
        3.12596        0.502789        0.249273 
        3.14163        0.500859        0.246186 
        3.15734        0.494869        0.243144 
        3.17308         0.48954        0.240146 
        3.18879        0.486752        0.237207 
        3.20447        0.481326        0.234321 
         3.2202        0.474839        0.231474 
         3.2359        0.471596         0.22868 
        3.25157        0.465459        0.225939 
        3.26729        0.464401        0.223234 
        3.28304        0.460215        0.220568 
        3.29877        0.455669        0.217949 
        3.31446         0.45366        0.215378 
        3.33014        0.446816        0.212851 
        3.34585        0.443902        0.210361 
        3.36158        0.440228        0.207907 
        3.37727        0.437352        0.205499 
        3.39294        0.434537        0.203132 
        3.40867        0.429105        0.200794 
        3.42439        0.426175        0.198494 
        3.44008        0.422359        0.196234 
        3.45578        0.418893        0.194008 
        3.47153        0.416819        0.191811 
        3.48724        0.412802        0.189653 
        3.50292        0.409113        0.187532 
        3.51859        0.407008        0.185445 
        3.53431        0.402876        0.183383 
        3.55007        0.400324        0.181348 
        3.56577        0.396961        0.179351 
        3.58146        0.394041        0.177386 
        3.59719        0.390963        0.175445 
        3.61292        0.387609        0.173534 
        3.62859        0.385184        0.171658 
        3.64429        0.381777        0.169807 
        3.66003         0.37868        0.167978 
        3.67578        0.376696        0.166176 
        3.69146        0.373345        0.164407 
        3.70712        0.371879        0.162667 
        3.72284        0.369206        0.160946 
        3.73853        0.366195        0.159253 
        3.75422        0.363084        0.157583 
        3.76993        0.360258        0.155936 
        3.78564        0.357203        0.154313 
        3.80137        0.355253        0.152711 
        3.81707        0.352738        0.151135 
        3.83279        0.350361        0.149579 
        3.84853        0.347025        0.148043 
        3.86424        0.345702        0.146532 
        3.87992         0.34328        0.145044 
        3.89561        0.340621        0.143576 
        3.91134        0.337587        0.142126 
        3.92704        0.335044        0.140698 
        3.94273        0.333608         0.13929 
        3.95845        0.331293          0.1379 
        3.97418        0.329595        0.136528 
        3.98988        0.326326        0.135176 
        4.00554        0.322917        0.133846 
        4.02125        0.321028        0.132531 
        4.03698        0.317702        0.131231 
        4.05268        0.313715        0.129951 
        4.06839         0.31207        0.128688 
         4.0841        0.308255        0.127442 
        4.09983         0.30656         0.12621 
        4.11555        0.302942        0.124996 
        4.13124        0.300829          0.1238 
        4.14693        0.298213         0.12262 
        4.16266        0.294313        0.121451 
        4.17839        0.292168        0.120299 
        4.19408        0.290194        0.119165 
        4.20977        0.287886        0.118044 
        4.22551         0.28555        0.116935 
        4.24123        0.283009        0.115842 
        4.25691         0.28127        0.114765 
        4.27259        0.278615        0.113702 
        4.28831        0.277024         0.11265 
        4.30404        0.274764        0.111611 
        4.31974        0.273002        0.110587 
        4.33543        0.270677        0.109576 
        4.35116        0.269565        0.108575 
        4.36688        0.267596        0.107588 
        4.38255        0.265095        0.106616 
        4.39825        0.263957        0.105654 
        4.41398        0.262376        0.104702 
         4.4297        0.260725        0.103763 
        4.44541         0.25903        0.102836 
        4.46111        0.258024         0.10192 
        4.47683        0.256943        0.101016 
        4.49251         0.25513        0.100123 
        4.50819        0.254572       0.0992423 
         4.5239        0.253101       0.0983705 
        4.53962        0.251398       0.0975081 
        4.55535        0.250467       0.0966556 
        4.57106        0.249715       0.0958146 
        4.58678        0.247867       0.0949833 
         4.6025        0.247668       0.0941617 
        4.61821        0.246903         0.09335 
        4.63391        0.246341       0.0925489 
         4.6496        0.244924       0.0917575 
        4.66532        0.244375       0.0909741 
        4.68103        0.243005       0.0902002 
        4.69673        0.242577        0.089436 
        4.71241        0.242085       0.0886815 
        4.72811        0.242321       0.0879344 
        4.74384        0.241007        0.087195 
        4.75955         0.24051       0.0864651 
        4.77525        0.240133       0.0857441 
        4.79096        0.239851       0.0850303 
        4.80669        0.239418       0.0843244 
         4.8224         0.23911       0.0836272 
        4.83809        0.238585       0.0829387 
        4.85379        0.238423       0.0822575 
         4.8695        0.239167       0.0815834 
        4.88521        0.238474       0.0809171 
        4.90093        0.238504       0.0802582 
        4.91663        0.238255       0.0796072 
        4.93234          0.2378       0.0789627 
        4.94807        0.238337       0.0783249 
        4.96377        0.238508       0.0776954 
        4.97943        0.238695        0.077074 
        4.99514         0.23804       0.0764579 
        5.01086        0.239586       0.0758481 
        5.02654        0.239365       0.0752464 
        5.04227        0.239513       0.0746495 
          5.058        0.240451       0.0740588 
        5.07371        0.240238       0.0734756 
        5.08942        0.241529       0.0728986 
        5.10513        0.241911       0.0723278 
        5.12084        0.242086       0.0717628 
        5.13656         0.24253       0.0712039 
        5.15225        0.243416       0.0706519 
        5.16796        0.244181       0.0701049 
        5.18369        0.244408       0.0695632 
         5.1994        0.246087       0.0690281 
        5.21509        0.246001       0.0684992 
        5.23079        0.246723       0.0679752 
        5.24649        0.248014       0.0674571 
        5.26217        0.248845       0.0669447 
        5.27788        0.249874        0.066437 
        5.29359        0.251169       0.0659344 
        5.30933        0.252076       0.0654362 
        5.32504        0.252975       0.0649441 
        5.34073        0.255066       0.0644575 
        5.35646        0.255756        0.063975 
        5.37218         0.25678       0.0634973 
        5.38789        0.256884       0.0630252 
        5.40357        0.259208       0.0625585 
        5.41929        0.260341       0.0620955 
        5.43502        0.262057       0.0616371 
         5.4507        0.263433       0.0611844 
        5.46639        0.264655       0.0607362 
        5.48212        0.265674       0.0602914 
        5.49786        0.267151       0.0598506 
        5.51353         0.26996       0.0594164 
        5.52921         0.27001        0.058986 
        5.54495        0.272771       0.0585586 
        5.56066        0.273673       0.0581359 
        5.57637        0.275318       0.0577174 
        5.59207        0.277665       0.0573034 
        5.60778        0.278501       0.0568934 
        5.62346        0.281338       0.0564879 
        5.63916         0.28245       0.0560859 
        5.65487        0.284153       0.0556877 
         5.6706        0.285251       0.0552929 
        5.68633        0.288362       0.0549017 
        5.70203        0.291469       0.0545152 
        5.71773        0.291373       0.0541324 
        5.73344        0.294173       0.0537531 
        5.74916        0.297392        0.053377 
        5.76486        0.298671       0.0530051 
        5.78054        0.300001       0.0526373 
        5.79626        0.301859       0.0522719 
          5.812        0.304935       0.0519097 
         5.8277        0.306965       0.0515519 
        5.84339        0.308293       0.0511975 
        5.85911        0.311879       0.0508458 
        5.87484        0.313152       0.0504974 
        5.89053        0.316049        0.050153 
        5.90623        0.317363       0.0498116 
        5.92195        0.319478       0.0494728 
        5.93767        0.321557       0.0491374 
        5.95336        0.323723       0.0488056 
        5.96905        0.326225        0.048477 
        5.98476        0.328831       0.0481509 
        6.00048         0.33019       0.0478277 
        6.01617        0.334255        0.047508 
        6.03185        0.335078       0.0471915 
        6.04756        0.337102       0.0468772 
        6.06331        0.339841       0.0465651 
        6.07903        0.342711       0.0462564 
        6.09473        0.344398       0.0459508 
        6.11044        0.346276       0.0456478 
        6.12616        0.349542       0.0453475 
        6.14186        0.350832       0.0450502 
        6.15755        0.355709       0.0447555 
        6.17326        0.356555       0.0444633 
        6.18898        0.358012       0.0441736 
        6.20467        0.360037       0.0438869 
        6.22036        0.363373       0.0436028 
         6.2361          0.3644       0.0433205 
         6.2518        0.368357       0.0430411 
        6.26748        0.369592       0.0427648 
        6.28319          0.3734       0.0424902 
        6.29893        0.375105       0.0422177 
        6.31463         0.37707       0.0419481 
        6.33033        0.379678       0.0416809 
        6.34604        0.382315       0.0414158 
        6.36177        0.383718       0.0411529 
        6.37747        0.385819       0.0408926 
