# k  (h/Mpc)    Pcb(k)  (Mpc/h)^3    Pcb_linear(k) (Mpc/h)^3   ShotnoiseSubtracted = true
      0.0200456         3428.11         3472.98 
      0.0350414         2569.64         2524.74 
      0.0492313          1835.5         1834.43 
      0.0637834         1497.41         1524.94 
      0.0800726         1184.02         1210.31 
       0.096163         898.792         878.186 
       0.111083         724.749         700.464 
       0.126058         616.961         620.753 
       0.142273         523.604         525.915 
       0.158546         424.505         415.362 
        0.17375         364.777         349.942 
       0.188953         329.771         316.865 
       0.204907         281.316         280.361 
       0.220756         248.453         237.202 
        0.23588          217.77         206.345 
         0.2514         196.533         187.463 
       0.267535         183.727         169.622 
       0.283568          160.87         149.583 
       0.299022         148.277         133.271 
       0.314451         140.984         121.801 
       0.330372         124.834         111.738 
       0.346141         114.546          101.42 
       0.361624         106.054         92.1766 
       0.377134         96.8798          84.817 
       0.392932         93.9891         78.4795 
       0.408854         86.7595          72.343 
       0.424564         82.6952         66.6796 
       0.440253         75.3208         61.8197 
       0.455999         69.1744         57.5938 
       0.471626         65.9096         53.7103 
        0.48727         64.0399         50.0775 
       0.502856         59.3817         46.8139 
       0.518488         56.3186          43.902 
       0.534347         53.1222          41.195 
       0.550082         51.1803         38.6989 
       0.565732         49.3848         36.4154 
       0.581496         46.0783         34.3239 
       0.597222         43.9385         32.4058 
       0.612804         42.1467         30.6421 
       0.628434         41.3241         28.9982 
       0.644267         39.0647         27.4612 
       0.660051         37.2964         26.0447 
       0.675724         35.7434         24.7367 
       0.691403         35.1189         23.5174 
       0.707174         33.7966         22.3735 
       0.722871         32.6693         21.3102 
        0.73838         31.0876         20.3273 
       0.754018         29.4992          19.399 
       0.769845         28.9408         18.5187 
        0.78569          27.937         17.6922 
       0.801365         27.0465         16.9243 
       0.817031         26.0096         16.2028 
       0.832809         25.4339         15.5189 
       0.848511         24.5916         14.8778 
       0.864097         23.8912         14.2775 
       0.879701         23.5016         13.7098 
       0.895507         22.6054         13.1665 
       0.911279         21.7708         12.6539 
        0.92691         21.4036          12.173 
       0.942635         20.9182         11.7145 
       0.958396         20.2965         11.2787 
       0.974128         19.7633         10.8661 
       0.989692         18.9402         10.4782 
        1.00528         18.8137         10.1087 
        1.02113         18.2193         9.75141 
        1.03692         17.8368         9.41274 
        1.05264         17.4736         9.09177 
        1.06832         17.1283         8.78633 
        1.08405         16.6342         8.49417 
        1.09979         16.2976         8.21518 
        1.11537         15.8483         7.95153 
        1.13105         15.6149         7.69792 
        1.14679         15.2303         7.45443 
        1.16256         14.9548         7.22105 
        1.17828         14.6663         6.99846 
        1.19395         14.4349         6.78604 
         1.2097          14.023         6.58138 
        1.22537         13.7933         6.38619 
          1.241         13.4774         6.19953 
        1.25666         13.3567         6.01989 
        1.27241         13.0967         5.84655 
        1.28819         12.5806         5.67976 
        1.30392         12.6539         5.51999 
        1.31957         12.2991          5.3671 
        1.33529         12.1345         5.21945 
        1.35108         11.9357         5.07679 
        1.36674         11.6615          4.9405 
         1.3824         11.4941         4.80936 
        1.39811          11.304         4.68255 
        1.41389         11.1043         4.55984 
        1.42964         10.9495         4.44175 
        1.44531         10.7701         4.32843 
        1.46101         10.6318         4.21883 
        1.47667          10.441         4.11337 
        1.49229         10.1955          4.0118 
        1.50793         10.1088         3.91355 
        1.52367         9.96548         3.81798 
        1.53953         9.78422         3.72496 
        1.55526         9.64049         3.63579 
        1.57092          9.5586         3.54991 
        1.58662         9.38603         3.46661 
        1.60235         9.27646         3.38583 
        1.61809         9.15022         3.30759 
        1.63369         8.97043         3.23252 
        1.64941         8.85782         3.15925 
        1.66519         8.74527         3.08799 
        1.68085          8.5936         3.01944 
        1.69652         8.54975         2.95296 
        1.71228         8.43843          2.8881 
        1.72806         8.27905         2.82515 
        1.74368         8.20037          2.7647 
        1.75933         8.10673         2.70591 
        1.77505         7.96026         2.64856 
        1.79081         7.89313         2.59277 
         1.8065         7.84102         2.53882 
        1.82218         7.72516         2.48647 
        1.83797         7.59763         2.43523 
        1.85367         7.51379         2.38573 
        1.86928         7.42861         2.33789 
        1.88497         7.34977         2.29112 
        1.90073         7.24614         2.24545 
        1.91647         7.09244         2.20107 
        1.93218         7.07442         2.15798 
        1.94787         6.96429         2.11611 
        1.96363         6.90604         2.07519 
        1.97935         6.87101         2.03544 
        1.99499         6.76847         1.99696 
        2.01064         6.68466         1.95941 
         2.0264         6.61832          1.9226 
        2.04216         6.58188         1.88675 
        2.05781         6.49759         1.85204 
        2.07353         6.41338         1.81809 
        2.08928          6.3077         1.78491 
        2.10499         6.26315         1.75265 
        2.12065         6.25828         1.72128 
        2.13633         6.16564         1.69066 
        2.15211          6.0904         1.66058 
        2.16785         5.99729         1.63133 
        2.18349         5.99914         1.60296 
        2.19916         5.91384          1.5752 
        2.21489         5.85979         1.54801 
        2.23063         5.80358         1.52145 
         2.2463         5.72514         1.49563 
        2.26194          5.6635         1.47047 
        2.27765         5.60858         1.44577 
        2.29341         5.53078         1.42156 
        2.30914         5.52716         1.39797 
        2.32486         5.45117         1.37492 
        2.34061         5.41497         1.35235 
        2.35635         5.35291         1.33031 
        2.37203         5.32165         1.30884 
        2.38768         5.27518         1.28789 
        2.40339         5.21546         1.26732 
        2.41914         5.17998         1.24715 
        2.43483         5.12587         1.22749 
         2.4505         5.06806         1.20829 
        2.46622         5.02296         1.18943 
        2.48195         5.01568         1.17098 
        2.49759         4.92282         1.15301 
        2.51328          4.9038         1.13538 
        2.52906         4.84642           1.118 
        2.54479         4.81232         1.10106 
        2.56049         4.77526         1.08449 
        2.57618         4.73758         1.06829 
        2.59189         4.73586         1.05238 
        2.60758         4.66748         1.03683 
        2.62325          4.5953         1.02161 
        2.63898         4.60126         1.00665 
        2.65468         4.54184        0.992012 
        2.67044         4.51533        0.977606 
        2.68618         4.47592        0.963519 
        2.70184         4.45458        0.949766 
        2.71755         4.39295        0.936247 
        2.73329         4.36474        0.922971 
        2.74897         4.33573        0.909995 
        2.76462         4.29694        0.897298 
        2.78034         4.26998        0.884791 
        2.79607         4.22819        0.872509 
        2.81179         4.19846        0.860474 
        2.82749         4.15221         0.84868 
        2.84321         4.13748        0.837094 
        2.85893         4.09976        0.825728 
        2.87462          4.0747        0.814592 
        2.89033          4.0544        0.803651 
        2.90605         4.01494        0.792902 
        2.92176         3.96524        0.782355 
        2.93747          3.9505        0.772006 
        2.95318         3.91293        0.761841 
        2.96891         3.89812        0.751855 
        2.98456         3.86241        0.742092 
        3.00023         3.84575        0.732488 
        3.01596         3.80125        0.723024 
        3.03164         3.77516        0.713755 
        3.04738         3.76057        0.704621 
         3.0631         3.73838         0.69565 
        3.07883         3.70186        0.686834 
        3.09456         3.66149        0.678173 
        3.11026         3.65164        0.669675 
        3.12596         3.62744        0.661323 
        3.14163         3.59822        0.653133 
        3.15734         3.57138        0.645062 
        3.17308         3.54691        0.637108 
        3.18879         3.53148        0.629311 
        3.20447         3.50422        0.621655 
         3.2202         3.47555        0.614102 
         3.2359         3.45386        0.606689 
        3.25157         3.43618        0.599416 
        3.26729         3.41028        0.592239 
        3.28304         3.38171        0.585167 
        3.29877         3.36065        0.578219 
        3.31446         3.34535        0.571399 
        3.33014           3.314        0.564695 
        3.34585         3.30544        0.558088 
        3.36158         3.27166        0.551577 
        3.37727         3.25934         0.54519 
        3.39294         3.23694         0.53891 
        3.40867         3.21859        0.532707 
        3.42439         3.17852        0.526605 
        3.44008         3.17013         0.52061 
        3.45578         3.15072        0.514703 
        3.47153         3.13031        0.508876 
        3.48724           3.117        0.503149 
        3.50292         3.09108        0.497523 
        3.51859         3.07003        0.491986 
        3.53431         3.05029        0.486516 
        3.55007         3.04125        0.481116 
        3.56577         3.01014         0.47582 
        3.58146         2.99817        0.470605 
        3.59719          2.9857        0.465456 
        3.61292          2.9606        0.460386 
        3.62859         2.95005        0.455411 
        3.64429         2.92013        0.450499 
        3.66003         2.91329        0.445645 
        3.67578         2.89295        0.440864 
        3.69146         2.86798        0.436172 
        3.70712         2.85646        0.431556 
        3.72284         2.83846         0.42699 
        3.73853         2.82277        0.422498 
        3.75422         2.79984        0.418068 
        3.76993         2.78483        0.413699 
        3.78564         2.76735        0.409394 
        3.80137         2.75057        0.405142 
        3.81707         2.73925        0.400961 
        3.83279         2.71694        0.396834 
        3.84853         2.70119        0.392759 
        3.86424          2.6835         0.38875 
        3.87992         2.66784        0.384802 
        3.89561         2.65429        0.380909 
        3.91134         2.63787        0.377061 
        3.92704         2.61689        0.373272 
        3.94273         2.60126        0.369538 
        3.95845          2.5891        0.365848 
        3.97418         2.57533        0.362208 
        3.98988         2.55888        0.358622 
        4.00554         2.54541        0.355095 
        4.02125         2.52091        0.351605 
        4.03698         2.51431        0.348156 
        4.05268         2.49441        0.344762 
        4.06839         2.48159         0.34141 
         4.0841         2.46447        0.338104 
        4.09983         2.44639        0.334837 
        4.11555          2.4338        0.331614 
        4.13124         2.42095        0.328443 
        4.14693         2.40294         0.32531 
        4.16266         2.39566        0.322211 
        4.17839         2.37463        0.319154 
        4.19408         2.35829        0.316144 
        4.20977         2.34556        0.313171 
        4.22551         2.33313        0.310229 
        4.24123         2.31997        0.307329 
        4.25691         2.30643        0.304473 
        4.27259         2.28968        0.301652 
        4.28831         2.27457        0.298862 
        4.30404         2.26903        0.296104 
        4.31974         2.25467        0.293387 
        4.33543         2.22955        0.290705 
        4.35116         2.22664        0.288051 
        4.36688         2.21206        0.285431 
        4.38255         2.20003        0.282853 
        4.39825         2.18525        0.280301 
        4.41398         2.17684        0.277776 
         4.4297         2.16155        0.275284 
        4.44541          2.1464        0.272824 
        4.46111         2.13983        0.270395 
        4.47683         2.12846        0.267994 
        4.49251         2.11289        0.265628 
        4.50819         2.10229         0.26329 
         4.5239         2.09235        0.260977 
        4.53962         2.08036        0.258689 
        4.55535         2.06796        0.256428 
        4.57106         2.05672        0.254196 
        4.58678         2.04102        0.251991 
         4.6025         2.03239        0.249811 
        4.61821         2.02713        0.247658 
        4.63391         2.01357        0.245532 
         4.6496         2.00479        0.243433 
        4.66532          1.9935        0.241355 
        4.68103          1.9791        0.239301 
        4.69673         1.96973        0.237274 
        4.71241         1.96119        0.235272 
        4.72811         1.95434         0.23329 
        4.74384          1.9453        0.231329 
        4.75955         1.93206        0.229392 
        4.77525         1.92132        0.227479 
        4.79096          1.9105        0.225586 
        4.80669         1.90295        0.223713 
         4.8224         1.89463        0.221863 
        4.83809         1.88464        0.220037 
        4.85379          1.8797        0.218229 
         4.8695         1.86446        0.216441 
        4.88521         1.85829        0.214673 
        4.90093         1.85317        0.212925 
        4.91663         1.83853        0.211198 
        4.93234         1.83499        0.209488 
        4.94807         1.82528        0.207796 
        4.96377         1.81136        0.206126 
        4.97943         1.80582        0.204478 
        4.99514         1.79362        0.202843 
        5.01086          1.7856        0.201225 
        5.02654         1.77769        0.199629 
        5.04227         1.77355        0.198045 
          5.058         1.76526        0.196478 
        5.07371         1.76001        0.194931 
        5.08942         1.75146          0.1934 
        5.10513         1.73976        0.191886 
        5.12084         1.72959        0.190387 
        5.13656         1.72398        0.188904 
        5.15225         1.71511         0.18744 
        5.16796         1.70722        0.185988 
        5.18369         1.70116        0.184551 
         5.1994         1.69438        0.183132 
        5.21509         1.68786        0.181729 
        5.23079         1.68126        0.180338 
        5.24649         1.67602        0.178964 
        5.26217         1.66697        0.177605 
        5.27788         1.65523        0.176257 
        5.29359         1.65145        0.174924 
        5.30933         1.64624        0.173603 
        5.32504         1.63902        0.172297 
        5.34073         1.62613        0.171006 
        5.35646         1.62168        0.169726 
        5.37218         1.61803        0.168459 
        5.38789         1.60674        0.167206 
        5.40357         1.60331        0.165968 
        5.41929         1.59549         0.16474 
        5.43502         1.58909        0.163523 
         5.4507           1.581        0.162322 
        5.46639         1.57591        0.161133 
        5.48212         1.57023        0.159953 
        5.49786          1.5617        0.158784 
        5.51353         1.55828        0.157632 
        5.52921         1.54973         0.15649 
        5.54495         1.54658        0.155356 
        5.56066          1.5372        0.154235 
        5.57637         1.52818        0.153125 
        5.59207         1.52389        0.152026 
        5.60778         1.52342        0.150938 
        5.62346         1.51071        0.149862 
        5.63916         1.50954        0.148796 
        5.65487         1.50174         0.14774 
         5.6706         1.49582        0.146692 
        5.68633         1.48794        0.145654 
        5.70203         1.48539        0.144629 
        5.71773         1.47744        0.143613 
        5.73344         1.47547        0.142607 
        5.74916          1.4692        0.141609 
        5.76486         1.46134        0.140623 
        5.78054         1.45504        0.139647 
        5.79626         1.45335        0.138678 
          5.812         1.44542        0.137717 
         5.8277         1.43891        0.136767 
        5.84339         1.43489        0.135827 
        5.85911         1.43031        0.134894 
        5.87484         1.42146         0.13397 
        5.89053         1.41887        0.133056 
        5.90623         1.41633         0.13215 
        5.92195         1.41009        0.131252 
        5.93767         1.40229        0.130362 
        5.95336         1.39968        0.129481 
        5.96905         1.38905         0.12861 
        5.98476         1.38732        0.127744 
        6.00048         1.38327        0.126887 
        6.01617         1.37664        0.126039 
        6.03185         1.37306        0.125199 
        6.04756         1.36901        0.124365 
        6.06331         1.36409        0.123537 
        6.07903         1.35867        0.122718 
        6.09473         1.35307        0.121908 
        6.11044         1.34844        0.121104 
        6.12616         1.34142        0.120307 
        6.14186          1.3381        0.119518 
        6.15755         1.33646        0.118737 
        6.17326         1.32982        0.117961 
        6.18898         1.32616        0.117193 
        6.20467         1.32116        0.116432 
        6.22036         1.31731        0.115678 
         6.2361         1.31363        0.114929 
         6.2518         1.30983        0.114188 
        6.26748         1.30211        0.113455 
        6.28319         1.29922        0.112727 
        6.29893         1.29384        0.112004 
        6.31463         1.29048        0.111288 
        6.33033         1.28436         0.11058 
        6.34604         1.28207        0.109876 
        6.36177         1.27557        0.109179 
        6.37747         1.27328        0.108488 
