# k  (h/Mpc)    Pcb(k)  (Mpc/h)^3    Pcb_linear(k) (Mpc/h)^3   ShotnoiseSubtracted = true
      0.0200456          806.05         817.334 
      0.0350414         591.772         594.174 
      0.0492313         433.273         431.716 
      0.0637834         361.473         358.881 
      0.0800726         286.551         284.835 
       0.096163         206.293         206.673 
       0.111083         163.907         164.847 
       0.126058         146.598         146.088 
       0.142273         124.719         123.769 
       0.158546         99.0374         97.7516 
        0.17375         82.2915         82.3556 
       0.188953         75.2133         74.5712 
       0.204907         68.1356         65.9803 
       0.220756         56.9828         55.8233 
        0.23588         49.5872         48.5614 
         0.2514         44.6089         44.1176 
       0.267535         40.6054         39.9188 
       0.283568         36.0457          35.203 
       0.299022         32.3946         31.3641 
       0.314451         29.0567         28.6647 
       0.330372         26.9107         26.2966 
       0.346141         24.4488         23.8682 
       0.361624         22.4109         21.6929 
       0.377134         20.8465         19.9609 
       0.392932         18.6432         18.4694 
       0.408854         17.7538         17.0252 
       0.424564         16.3636         15.6924 
       0.440253         15.1251         14.5487 
       0.455999         14.2241         13.5542 
       0.471626         13.3537         12.6402 
        0.48727         12.4359         11.7853 
       0.502856         11.5794         11.0172 
       0.518488         11.0433         10.3319 
       0.534347         10.5021         9.69484 
       0.550082         9.61502         9.10742 
       0.565732         8.88561         8.57001 
       0.581496         8.65499         8.07781 
       0.597222         8.26056         7.62641 
       0.612804         7.70581         7.21133 
       0.628434         7.41235         6.82445 
       0.644267         7.04103         6.46274 
       0.660051         6.63827         6.12938 
       0.675724         6.31325         5.82155 
       0.691403         6.07806          5.5346 
       0.707174         5.75461         5.26539 
       0.722871         5.49586         5.01514 
        0.73838         5.27947         4.78384 
       0.754018         5.10085         4.56538 
       0.769845          4.8272         4.35819 
        0.78569         4.65188         4.16368 
       0.801365         4.44309         3.98298 
       0.817031          4.2867         3.81317 
       0.832809         4.12319         3.65223 
       0.848511         3.90251         3.50135 
       0.864097         3.74934         3.36006 
       0.879701         3.61808         3.22648 
       0.895507         3.47161         3.09862 
       0.911279         3.40432         2.97798 
        0.92691         3.26792         2.86479 
       0.942635         3.12758         2.75689 
       0.958396         3.00903         2.65435 
       0.974128         2.91856         2.55722 
       0.989692         2.85164         2.46594 
        1.00528         2.72483           2.379 
        1.02113         2.62122          2.2949 
        1.03692         2.57206          2.2152 
        1.05264         2.47532         2.13966 
        1.06832         2.41132         2.06778 
        1.08405         2.29394         1.99902 
        1.09979         2.24383         1.93336 
        1.11537         2.18344         1.87132 
        1.13105         2.12575         1.81163 
        1.14679         2.06665         1.75433 
        1.16256         1.99066         1.69941 
        1.17828         1.94239         1.64702 
        1.19395         1.88797         1.59703 
         1.2097         1.80507         1.54887 
        1.22537         1.76941         1.50293 
          1.241         1.72821           1.459 
        1.25666          1.7091         1.41672 
        1.27241          1.6274         1.37593 
        1.28819         1.58947         1.33668 
        1.30392         1.55996         1.29908 
        1.31957         1.52027          1.2631 
        1.33529         1.47255         1.22835 
        1.35108         1.43802         1.19478 
        1.36674         1.38942          1.1627 
         1.3824         1.36158         1.13184 
        1.39811         1.32663         1.10199 
        1.41389         1.30175         1.07312 
        1.42964         1.27145         1.04532 
        1.44531         1.23787         1.01865 
        1.46101         1.21426        0.992862 
        1.47667         1.16769        0.968042 
        1.49229         1.15847        0.944139 
        1.50793         1.12528        0.921018 
        1.52367         1.10514        0.898525 
        1.53953         1.06934        0.876634 
        1.55526         1.04906        0.855648 
        1.57092         1.02594        0.835438 
        1.58662         1.00778        0.815834 
        1.60235        0.983082        0.796823 
        1.61809        0.957592         0.77841 
        1.63369         0.95074        0.760743 
        1.64941        0.920956          0.7435 
        1.66519        0.904685        0.726729 
        1.68085        0.877258        0.710597 
        1.69652        0.862512         0.69495 
        1.71228        0.850325        0.679687 
        1.72806        0.824947        0.664871 
        1.74368        0.816012        0.650647 
        1.75933        0.794808         0.63681 
        1.77505        0.781324        0.623313 
        1.79081        0.765935        0.610183 
         1.8065        0.745198        0.597488 
        1.82218        0.737196        0.585167 
        1.83797        0.722306        0.573109 
        1.85367        0.715085        0.561458 
        1.86928        0.698726        0.550201 
        1.88497        0.681493        0.539193 
        1.90073        0.666756        0.528445 
        1.91647        0.661576           0.518 
        1.93218        0.645326        0.507861 
        1.94787        0.633417        0.498008 
        1.96363        0.620924        0.488377 
        1.97935         0.60934        0.479022 
        1.99499         0.59893        0.469965 
        2.01064        0.588002        0.461129 
         2.0264        0.578541        0.452465 
        2.04216         0.56996        0.444029 
        2.05781        0.558811        0.435861 
        2.07353        0.548291         0.42787 
        2.08928        0.536649        0.420061 
        2.10499          0.5305        0.412469 
        2.12065        0.525037        0.405088 
        2.13633        0.514403        0.397881 
        2.15211        0.504048        0.390803 
        2.16785        0.494604        0.383917 
        2.18349        0.487057         0.37724 
        2.19916        0.480453        0.370709 
        2.21489        0.471038         0.36431 
        2.23063        0.463942        0.358059 
         2.2463        0.459154        0.351982 
        2.26194        0.445528        0.346062 
        2.27765        0.441051        0.340247 
        2.29341        0.436179        0.334552 
        2.30914         0.43143        0.328998 
        2.32486        0.422275        0.323574 
        2.34061         0.41533        0.318263 
        2.35635        0.407304        0.313076 
        2.37203        0.402316        0.308023 
        2.38768        0.396707        0.303092 
        2.40339        0.391348        0.298251 
        2.41914        0.385621        0.293504 
        2.43483        0.379142        0.288878 
         2.4505        0.372592        0.284359 
        2.46622        0.367609        0.279922 
        2.48195        0.364289        0.275579 
        2.49759         0.35796        0.271351 
        2.51328        0.351357        0.267201 
        2.52906        0.347875        0.263112 
        2.54479        0.341862        0.259123 
        2.56049        0.335811        0.255225 
        2.57618        0.332301        0.251411 
        2.59189        0.328402        0.247669 
        2.60758        0.324356        0.244009 
        2.62325        0.318692        0.240427 
        2.63898        0.315153        0.236905 
        2.65468        0.309858        0.233461 
        2.67044        0.305603         0.23007 
        2.68618        0.301441        0.226755 
        2.70184        0.297776        0.223518 
        2.71755        0.292796        0.220337 
        2.73329        0.289307        0.217212 
        2.74897        0.286227        0.214159 
        2.76462        0.282277        0.211171 
        2.78034        0.278248        0.208227 
        2.79607        0.274879        0.205337 
        2.81179         0.27138        0.202505 
        2.82749        0.267639        0.199729 
        2.84321        0.265039        0.197002 
        2.85893        0.261172        0.194327 
        2.87462        0.257556        0.191707 
        2.89033        0.254074        0.189132 
        2.90605        0.251738        0.186602 
        2.92176        0.248058         0.18412 
        2.93747        0.244895        0.181684 
        2.95318        0.242385        0.179292 
        2.96891        0.239221        0.176942 
        2.98456        0.236185        0.174644 
        3.00023        0.233963        0.172384 
        3.01596        0.230554        0.170157 
        3.03164         0.22849        0.167975 
        3.04738        0.224384        0.165826 
         3.0631        0.222977        0.163715 
        3.07883        0.219382         0.16164 
        3.09456        0.217054        0.159602 
        3.11026        0.215352        0.157602 
        3.12596        0.211792        0.155636 
        3.14163          0.2101        0.153709 
        3.15734        0.208259        0.151809 
        3.17308        0.205687        0.149937 
        3.18879        0.203739        0.148102 
        3.20447        0.200008        0.146301 
         3.2202        0.199145        0.144523 
         3.2359        0.196542        0.142779 
        3.25157        0.194757        0.141067 
        3.26729        0.192229        0.139378 
        3.28304        0.190918        0.137713 
        3.29877        0.188341        0.136078 
        3.31446        0.186624        0.134473 
        3.33014        0.184808        0.132896 
        3.34585        0.183954        0.131341 
        3.36158         0.18129        0.129808 
        3.37727        0.179732        0.128305 
        3.39294        0.177509        0.126827 
        3.40867        0.175509        0.125368 
        3.42439        0.174348        0.123931 
        3.44008        0.172152        0.122521 
        3.45578        0.171312        0.121131 
        3.47153         0.16928        0.119759 
        3.48724        0.168038        0.118411 
        3.50292        0.166508        0.117087 
        3.51859        0.164213        0.115784 
        3.53431        0.162658        0.114497 
        3.55007        0.161869        0.113226 
        3.56577        0.159732         0.11198 
        3.58146        0.158345        0.110752 
        3.59719        0.157141        0.109541 
        3.61292        0.156166        0.108347 
        3.62859        0.154191        0.107177 
        3.64429        0.152931        0.106021 
        3.66003        0.151775        0.104878 
        3.67578        0.150463        0.103753 
        3.69146        0.148985        0.102649 
        3.70712        0.148069        0.101563 
        3.72284        0.146658        0.100488 
        3.73853        0.145739       0.0994308 
        3.75422        0.144426       0.0983885 
        3.76993        0.143186       0.0973601 
        3.78564        0.141721       0.0963469 
        3.80137        0.140665       0.0953465 
        3.81707        0.139552       0.0943623 
        3.83279        0.138561       0.0933912 
        3.84853        0.137053       0.0924322 
        3.86424        0.136005       0.0914886 
        3.87992        0.134989       0.0905595 
        3.89561         0.13368       0.0896433 
        3.91134        0.133082       0.0887379 
        3.92704         0.13148        0.087846 
        3.94273        0.130203       0.0869672 
        3.95845        0.129143       0.0860989 
        3.97418        0.128554       0.0852422 
        3.98988        0.126755       0.0843984 
        4.00554        0.125916       0.0835682 
        4.02125        0.124692       0.0827469 
        4.03698        0.123067       0.0819353 
        4.05268        0.121999       0.0811364 
        4.06839        0.120195       0.0803476 
         4.0841        0.118685       0.0795695 
        4.09983        0.117277       0.0788006 
        4.11555        0.115898       0.0780422 
        4.13124        0.114106       0.0772959 
        4.14693        0.113385       0.0765586 
        4.16266        0.111809       0.0758293 
        4.17839        0.110691       0.0751099 
        4.19408        0.109537       0.0744015 
        4.20977         0.10854       0.0737019 
        4.22551        0.107373       0.0730096 
        4.24123        0.106303       0.0723269 
        4.25691        0.105093       0.0716548 
        4.27259        0.104177        0.070991 
        4.28831        0.103143       0.0703343 
        4.30404        0.102208       0.0696853 
        4.31974         0.10191       0.0690458 
        4.33543        0.100663       0.0684148 
        4.35116       0.0995844       0.0677901 
        4.36688       0.0989312       0.0671734 
        4.38255       0.0978028       0.0665668 
        4.39825       0.0976036       0.0659662 
        4.41398        0.096796       0.0653719 
         4.4297       0.0961964       0.0647856 
        4.44541       0.0956807       0.0642065 
        4.46111       0.0949188        0.063635 
        4.47683       0.0944172         0.06307 
        4.49251       0.0937628        0.062513 
        4.50819       0.0933507       0.0619628 
         4.5239       0.0928178       0.0614185 
        4.53962       0.0925539       0.0608801 
        4.55535       0.0920072       0.0603478 
        4.57106        0.091642       0.0598227 
        4.58678       0.0910774       0.0593037 
         4.6025       0.0910582       0.0587907 
        4.61821       0.0908537       0.0582839 
        4.63391       0.0905571       0.0577837 
         4.6496       0.0903172       0.0572896 
        4.66532       0.0902334       0.0568005 
        4.68103        0.090089       0.0563173 
        4.69673       0.0895687       0.0558402 
        4.71241       0.0897631       0.0553691 
        4.72811       0.0895159       0.0549027 
        4.74384        0.089568        0.054441 
        4.75955       0.0898972       0.0539853 
        4.77525       0.0898667       0.0535351 
        4.79096       0.0895319       0.0530895 
        4.80669       0.0897243       0.0526487 
         4.8224       0.0899907       0.0522134 
        4.83809       0.0898755       0.0517836 
        4.85379       0.0900917       0.0513582 
         4.8695       0.0901937       0.0509374 
        4.88521       0.0905491       0.0505214 
        4.90093       0.0907023       0.0501099 
        4.91663       0.0909243       0.0497035 
        4.93234       0.0912162       0.0493011 
        4.94807       0.0917667       0.0489029 
        4.96377       0.0921822       0.0485098 
        4.97943       0.0929417       0.0481219 
        4.99514        0.092737       0.0477372 
        5.01086       0.0937118       0.0473564 
        5.02654        0.093849       0.0469808 
        5.04227       0.0944556       0.0466081 
          5.058        0.095113       0.0462393 
        5.07371       0.0959143       0.0458752 
        5.08942       0.0962092       0.0455149 
        5.10513       0.0971104       0.0451585 
        5.12084       0.0975936       0.0448057 
        5.13656       0.0981151       0.0444568 
        5.15225       0.0994093       0.0441122 
        5.16796        0.100047       0.0437706 
        5.18369         0.10063       0.0434324 
         5.1994        0.101943       0.0430984 
        5.21509        0.102568       0.0427681 
        5.23079          0.1038        0.042441 
        5.24649        0.104956       0.0421175 
        5.26217        0.105835       0.0417976 
        5.27788        0.106923       0.0414805 
        5.29359        0.107666       0.0411667 
        5.30933        0.109018       0.0408557 
        5.32504         0.11032       0.0405484 
        5.34073        0.111255       0.0402447 
        5.35646        0.112121       0.0399434 
        5.37218        0.113981       0.0396451 
        5.38789        0.114883       0.0393504 
        5.40357        0.116045        0.039059 
        5.41929        0.117969       0.0387699 
        5.43502          0.1192       0.0384837 
         5.4507         0.12082       0.0382011 
        5.46639        0.122107       0.0379212 
        5.48212         0.12386       0.0376435 
        5.49786        0.125551       0.0373683 
        5.51353        0.127086       0.0370972 
        5.52921        0.128366       0.0368284 
        5.54495        0.130641       0.0365616 
        5.56066        0.132307       0.0362977 
        5.57637        0.134166       0.0360364 
        5.59207        0.136421       0.0357779 
        5.60778        0.138197       0.0355219 
        5.62346        0.140535       0.0352687 
        5.63916        0.142382       0.0350178 
        5.65487        0.144157       0.0347691 
         5.6706        0.146449       0.0345226 
        5.68633         0.14791       0.0342784 
        5.70203        0.150516        0.034037 
        5.71773        0.152972       0.0337981 
        5.73344         0.15442       0.0335612 
        5.74916        0.157747       0.0333264 
        5.76486        0.159712       0.0330942 
        5.78054        0.161916       0.0328646 
        5.79626        0.164635       0.0326365 
          5.812        0.167175       0.0324103 
         5.8277        0.170014       0.0321869 
        5.84339        0.172198       0.0319657 
        5.85911        0.175564        0.031746 
        5.87484        0.177602       0.0315285 
        5.89053        0.181238       0.0313135 
        5.90623        0.183363       0.0311003 
        5.92195         0.18612       0.0308888 
        5.93767        0.188645       0.0306794 
        5.95336        0.193082       0.0304722 
        5.96905        0.194766        0.030267 
        5.98476        0.196953       0.0300635 
        6.00048        0.201474       0.0298617 
        6.01617        0.204223        0.029662 
        6.03185        0.206947       0.0294645 
        6.04756        0.211137       0.0292682 
        6.06331        0.213119       0.0290733 
        6.07903        0.216455       0.0288806 
        6.09473        0.219995       0.0286898 
        6.11044        0.223816       0.0285006 
        6.12616        0.226214       0.0283131 
        6.14186        0.230391       0.0281275 
        6.15755        0.233403       0.0279435 
        6.17326        0.237815       0.0277611 
        6.18898        0.240281       0.0275802 
        6.20467        0.245128       0.0274012 
        6.22036        0.247691       0.0272238 
         6.2361        0.251037       0.0270476 
         6.2518        0.255775       0.0268731 
        6.26748        0.257468       0.0267006 
        6.28319        0.262377       0.0265291 
        6.29893        0.266586        0.026359 
        6.31463        0.270744       0.0261907 
        6.33033         0.27356       0.0260239 
        6.34604        0.276783       0.0258584 
        6.36177        0.281962       0.0256942 
        6.37747        0.285845       0.0255317 
