# k  (h/Mpc)    Pcb(k)  (Mpc/h)^3    Pcb_linear(k) (Mpc/h)^3   ShotnoiseSubtracted = true
      0.0200456         11965.2         12145.3 
      0.0350414         9064.21          8829.2 
      0.0492313         6351.73         6415.13 
      0.0637834         5138.83         5332.84 
      0.0800726         4047.65         4232.54 
       0.096163         3176.88         3071.08 
       0.111083         2581.52         2449.57 
       0.126058          2151.2         2170.82 
       0.142273         1855.99         1839.16 
       0.158546          1523.8         1452.55 
        0.17375         1333.72         1223.77 
       0.188953         1236.23          1108.1 
       0.204907            1056         980.442 
       0.220756          946.62         829.513 
        0.23588         841.168         721.605 
         0.2514         753.275          655.57 
       0.267535         730.184         593.179 
       0.283568         638.251         523.104 
       0.299022          608.24         466.059 
       0.314451         614.581         425.946 
       0.330372         528.224         390.758 
       0.346141         489.271         354.672 
       0.361624         467.242         322.348 
       0.377134         437.114         296.611 
       0.392932         423.812         274.449 
       0.408854         402.922         252.989 
       0.424564          389.27         233.183 
       0.440253          352.19         216.188 
       0.455999         336.976          201.41 
       0.471626         337.932         187.829 
        0.48727         320.593         175.125 
       0.502856         294.282         163.712 
       0.518488         295.296         153.529 
       0.534347         274.361         144.062 
       0.550082         266.421         135.333 
       0.565732         264.786         127.347 
       0.581496         250.771         120.033 
       0.597222          244.09         113.326 
       0.612804         237.368         107.158 
       0.628434         228.732         101.409 
       0.644267         218.579         96.0339 
       0.660051         214.697         91.0802 
       0.675724          212.23          86.506 
       0.691403         206.478         82.2421 
       0.707174         199.295         78.2416 
       0.722871         196.178         74.5232 
        0.73838         194.333         71.0861 
       0.754018         183.783         67.8399 
       0.769845         183.628         64.7611 
        0.78569         178.836         61.8708 
       0.801365         173.767         59.1856 
       0.817031         169.655         56.6623 
       0.832809         166.826         54.2708 
       0.848511         162.748         52.0287 
       0.864097         159.321         49.9293 
       0.879701         157.956         47.9443 
       0.895507         153.922         46.0443 
       0.911279          149.59         44.2517 
        0.92691         147.207         42.5698 
       0.942635         144.967         40.9664 
       0.958396          142.52         39.4426 
       0.974128          139.57         37.9994 
       0.989692         135.863         36.6429 
        1.00528         134.679          35.351 
        1.02113         131.317         34.1014 
        1.03692         130.073          32.917 
        1.05264         128.361         31.7946 
        1.06832         125.564         30.7264 
        1.08405         123.591         29.7047 
        1.09979         122.779         28.7291 
        1.11537         119.711         27.8071 
        1.13105         118.506         26.9202 
        1.14679         116.405         26.0687 
        1.16256         114.286         25.2525 
        1.17828         113.098         24.4741 
        1.19395         110.299         23.7313 
         1.2097         109.631         23.0156 
        1.22537         107.396          22.333 
          1.241         106.541         21.6802 
        1.25666          103.56          21.052 
        1.27241         101.961         20.4458 
        1.28819         101.485         19.8625 
        1.30392         99.5755         19.3038 
        1.31957         98.1165         18.7691 
        1.33529          96.929         18.2528 
        1.35108         96.2203         17.7539 
        1.36674         94.3028         17.2773 
         1.3824         93.9444         16.8187 
        1.39811         91.4835         16.3752 
        1.41389         90.5668         15.9461 
        1.42964         88.8724         15.5331 
        1.44531         88.2017         15.1368 
        1.46101         87.0721         14.7536 
        1.47667         86.2395         14.3847 
        1.49229         85.3088         14.0296 
        1.50793         83.7604          13.686 
        1.52367         83.0884         13.3517 
        1.53953         81.9505         13.0264 
        1.55526          80.528         12.7146 
        1.57092         80.2618         12.4143 
        1.58662         79.1096          12.123 
        1.60235         77.8495         11.8405 
        1.61809         76.9408         11.5669 
        1.63369         75.7734         11.3044 
        1.64941         75.7699         11.0481 
        1.66519         73.9607         10.7989 
        1.68085         73.2029         10.5592 
        1.69652         71.9107         10.3267 
        1.71228          71.184         10.0999 
        1.72806         70.8134         9.87974 
        1.74368         69.6077         9.66836 
        1.75933         68.9658         9.46276 
        1.77505         68.3316         9.26219 
        1.79081         67.1264         9.06709 
         1.8065         66.9141         8.87845 
        1.82218         65.2555         8.69536 
        1.83797         64.9544         8.51618 
        1.85367         64.0151         8.34305 
        1.86928         63.4188         8.17579 
        1.88497         62.6792          8.0122 
        1.90073         61.8205         7.85249 
        1.91647         61.1684         7.69729 
        1.93218         60.5714         7.54662 
        1.94787         59.7266          7.4002 
        1.96363         58.9665          7.2571 
        1.97935         58.3325         7.11809 
        1.99499           57.76          6.9835 
        2.01064         57.1278         6.85221 
         2.0264         56.5092         6.72347 
        2.04216         55.7546          6.5981 
        2.05781         55.0705         6.47673 
        2.07353         54.3706         6.35798 
        2.08928         53.8522         6.24195 
        2.10499         53.3087         6.12914 
        2.12065          52.771         6.01945 
        2.13633         52.3177         5.91236 
        2.15211         51.5329         5.80718 
        2.16785          50.767         5.70486 
        2.18349         50.2433         5.60565 
        2.19916         49.6806         5.50859 
        2.21489         49.4082         5.41351 
        2.23063         48.5919         5.32062 
         2.2463         48.1752         5.23032 
        2.26194         47.8647         5.14235 
        2.27765         47.0953         5.05595 
        2.29341         46.4305         4.97131 
        2.30914         45.9687         4.88879 
        2.32486          45.397         4.80818 
        2.34061         45.0939         4.72927 
        2.35635         44.3821         4.65219 
        2.37203         43.9925          4.5771 
        2.38768         43.6824         4.50383 
        2.40339         43.1946         4.43189 
        2.41914          42.766         4.36136 
        2.43483         41.9643         4.29262 
         2.4505         41.8179         4.22547 
        2.46622         41.3601         4.15953 
        2.48195         40.8387           4.095 
        2.49759         40.3728         4.03217 
        2.51328         40.0262         3.97051 
        2.52906         39.5818         3.90974 
        2.54479         39.2234         3.85048 
        2.56049         38.6085         3.79255 
        2.57618         38.3575         3.73587 
        2.59189         37.8976         3.68027 
        2.60758         37.3888         3.62588 
        2.62325         37.3168         3.57266 
        2.63898         36.7517         3.52032 
        2.65468         36.3824         3.46914 
        2.67044         36.1128         3.41876 
        2.68618         35.7605          3.3695 
        2.70184         35.2022          3.3214 
        2.71755         34.9799         3.27412 
        2.73329         34.4089          3.2277 
        2.74897         34.1726         3.18232 
        2.76462         33.7257         3.13792 
        2.78034         33.5096         3.09418 
        2.79607         33.0669         3.05123 
        2.81179         32.7948         3.00914 
        2.82749         32.4625          2.9679 
        2.84321         32.0609         2.92738 
        2.85893          31.761         2.88763 
        2.87462         31.4823         2.84869 
        2.89033         31.1948         2.81043 
        2.90605         30.9136         2.77284 
        2.92176         30.7003         2.73595 
        2.93747         30.3382         2.69976 
        2.95318         29.9971         2.66421 
        2.96891         29.7463         2.62929 
        2.98456         29.4283         2.59515 
        3.00023         29.0624         2.56156 
        3.01596         28.8396         2.52847 
        3.03164         28.4969         2.49605 
        3.04738         28.3069         2.46411 
         3.0631         28.0623         2.43274 
        3.07883         27.6566         2.40191 
        3.09456         27.3535         2.37162 
        3.11026         27.0979          2.3419 
        3.12596         26.8163         2.31269 
        3.14163         26.5659         2.28405 
        3.15734         26.3452         2.25583 
        3.17308         26.0167         2.22801 
        3.18879         25.8267         2.20074 
        3.20447         25.5839         2.17397 
         3.2202         25.2572         2.14756 
         3.2359         25.0365         2.12164 
        3.25157         24.8726          2.0962 
        3.26729         24.6456          2.0711 
        3.28304         24.2775         2.04637 
        3.29877          24.068         2.02207 
        3.31446         23.8717         1.99822 
        3.33014         23.6566         1.97478 
        3.34585         23.4531         1.95167 
        3.36158         23.2174          1.9289 
        3.37727         22.9597         1.90657 
        3.39294         22.7816         1.88461 
        3.40867         22.5788         1.86291 
        3.42439          22.352         1.84157 
        3.44008         22.1015         1.82061 
        3.45578         21.9899         1.79996 
        3.47153         21.6976         1.77958 
        3.48724         21.5528         1.75955 
        3.50292         21.3259         1.73987 
        3.51859         21.1539         1.72051 
        3.53431         20.9616         1.70138 
        3.55007         20.7502          1.6825 
        3.56577         20.5908         1.66398 
        3.58146         20.3602         1.64574 
        3.59719         20.1496         1.62773 
        3.61292         19.9939            1.61 
        3.62859         19.7701          1.5926 
        3.64429         19.5538         1.57543 
        3.66003          19.513         1.55845 
        3.67578         19.3067         1.54173 
        3.69146         19.0525         1.52532 
        3.70712         18.9247         1.50918 
        3.72284         18.7362         1.49321 
        3.73853          18.585          1.4775 
        3.75422          18.411         1.46202 
        3.76993         18.2547         1.44674 
        3.78564          18.106         1.43168 
        3.80137         17.9345         1.41681 
        3.81707         17.7687         1.40219 
        3.83279         17.5727         1.38776 
        3.84853         17.4265         1.37351 
        3.86424         17.2652         1.35949 
        3.87992         17.1052         1.34568 
        3.89561          16.988         1.33207 
        3.91134         16.8081         1.31861 
        3.92704         16.6855         1.30536 
        3.94273          16.553          1.2923 
        3.95845          16.381          1.2794 
        3.97418          16.214         1.26667 
        3.98988          16.085         1.25413 
        4.00554         16.0114         1.24179 
        4.02125         15.7742         1.22959 
        4.03698         15.6147         1.21753 
        4.05268         15.5541         1.20566 
        4.06839         15.4052         1.19394 
         4.0841         15.2707         1.18237 
        4.09983         15.0865         1.17095 
        4.11555         15.0081         1.15968 
        4.13124         14.8969         1.14859 
        4.14693         14.7834         1.13763 
        4.16266          14.651         1.12679 
        4.17839         14.4905         1.11611 
        4.19408         14.3567         1.10558 
        4.20977         14.2662         1.09518 
        4.22551         14.1336         1.08489 
        4.24123         13.9973         1.07475 
        4.25691         13.8654         1.06476 
        4.27259         13.7688          1.0549 
        4.28831         13.7016         1.04514 
        4.30404         13.5634          1.0355 
        4.31974         13.4469           1.026 
        4.33543         13.3089         1.01662 
        4.35116         13.2059         1.00734 
        4.36688         13.0848        0.998172 
        4.38255         12.9998        0.989157 
        4.39825         12.8764        0.980234 
        4.41398         12.7873        0.971402 
         4.4297         12.6546        0.962689 
        4.44541         12.5604        0.954085 
        4.46111         12.4786        0.945592 
        4.47683         12.3563        0.937196 
        4.49251         12.2563        0.928919 
        4.50819          12.155        0.920745 
         4.5239         12.0728        0.912657 
        4.53962         11.9764        0.904655 
        4.55535         11.8613        0.896746 
        4.57106         11.7793        0.888943 
        4.58678         11.6875        0.881231 
         4.6025         11.5871        0.873608 
        4.61821         11.4906        0.866077 
        4.63391         11.4068        0.858645 
         4.6496         11.3105        0.851302 
        4.66532         11.2337        0.844034 
        4.68103         11.1238        0.836855 
        4.69673         11.0185        0.829765 
        4.71241         10.9618        0.822764 
        4.72811         10.8865        0.815833 
        4.74384         10.7575        0.808973 
        4.75955         10.7077        0.802201 
        4.77525         10.6272        0.795512 
        4.79096          10.558         0.78889 
        4.80669         10.4549         0.78234 
         4.8224         10.3785        0.775872 
        4.83809          10.285        0.769484 
        4.85379         10.2092        0.763164 
         4.8695         10.1177         0.75691 
        4.88521         10.0505        0.750728 
        4.90093         9.98066        0.744615 
        4.91663         9.87179        0.738575 
        4.93234          9.8157        0.732596 
        4.94807          9.7361        0.726678 
        4.96377         9.67474        0.720838 
        4.97943         9.58846        0.715073 
        4.99514         9.48772        0.709357 
        5.01086          9.4697        0.703699 
        5.02654         9.39091        0.698117 
        5.04227         9.28614        0.692579 
          5.058         9.22931        0.687098 
        5.07371         9.14744        0.681688 
        5.08942         9.10212        0.676335 
        5.10513         9.01517        0.671039 
        5.12084         8.97542        0.665797 
        5.13656         8.88136        0.660612 
        5.15225         8.80222         0.65549 
        5.16796         8.75173        0.650415 
        5.18369         8.67939        0.645389 
         5.1994         8.62647        0.640425 
        5.21509         8.56078        0.635518 
        5.23079         8.49206        0.630657 
        5.24649         8.41326         0.62585 
        5.26217         8.35785        0.621096 
        5.27788         8.32533        0.616385 
        5.29359         8.23836        0.611722 
        5.30933         8.19044        0.607101 
        5.32504         8.14071        0.602535 
        5.34073         8.07925        0.598021 
        5.35646          8.0051        0.593544 
        5.37218         7.95246        0.589112 
        5.38789         7.86875        0.584732 
        5.40357         7.83026        0.580402 
        5.41929         7.78888        0.576106 
        5.43502         7.72642        0.571853 
         5.4507         7.67063        0.567653 
        5.46639         7.61423        0.563495 
        5.48212         7.56222        0.559369 
        5.49786         7.51682        0.555279 
        5.51353         7.45501         0.55125 
        5.52921         7.40992        0.547257 
        5.54495         7.34944        0.543291 
        5.56066         7.28524         0.53937 
        5.57637         7.25086        0.535488 
        5.59207         7.20429        0.531647 
        5.60778         7.13736        0.527842 
        5.62346         7.08709         0.52408 
        5.63916         7.04835        0.520351 
        5.65487         7.00966        0.516656 
         5.6706         6.94496        0.512993 
        5.68633         6.90904        0.509364 
        5.70203         6.84633        0.505778 
        5.71773         6.81627        0.502226 
        5.73344         6.76551        0.498707 
        5.74916         6.71028        0.495218 
        5.76486         6.67877        0.491768 
        5.78054         6.61546        0.488355 
        5.79626         6.56813        0.484966 
          5.812         6.54034        0.481605 
         5.8277          6.4803        0.478286 
        5.84339         6.44228        0.474998 
        5.85911         6.39007        0.471734 
        5.87484         6.35912        0.468502 
        5.89053         6.31266        0.465307 
        5.90623         6.28362        0.462139 
        5.92195         6.22968        0.458996 
        5.93767          6.1844        0.455884 
        5.95336         6.14485        0.452806 
        5.96905          6.1032        0.449757 
        5.98476         6.06475        0.446732 
        6.00048         6.02772        0.443734 
        6.01617         5.98924        0.440767 
        6.03185         5.94273        0.437831 
        6.04756         5.90665        0.434915 
        6.06331         5.87208        0.432019 
        6.07903         5.82042        0.429155 
        6.09473         5.79284         0.42632 
        6.11044         5.75363        0.423508 
        6.12616          5.7023        0.420722 
        6.14186         5.67907        0.417964 
        6.15755         5.65231         0.41523 
        6.17326         5.60189        0.412519 
        6.18898          5.5707        0.409831 
        6.20467         5.52838        0.407172 
        6.22036         5.49749        0.404536 
         6.2361         5.46393        0.401916 
         6.2518         5.42027        0.399324 
        6.26748         5.40056        0.396761 
        6.28319         5.35867        0.394213 
        6.29893         5.32506        0.391685 
        6.31463         5.30345        0.389183 
        6.33033         5.25516        0.386705 
        6.34604         5.22064        0.384246 
        6.36177         5.18885        0.381806 
        6.37747         5.15936        0.379391 
