# k  (h/Mpc)    Pcb(k)  (Mpc/h)^3    Pcb_linear(k) (Mpc/h)^3   ShotnoiseSubtracted = true
      0.0200456         11547.2         11770.8 
      0.0350414          8295.8            8557 
      0.0492313         6159.68         6217.35 
      0.0637834          5269.2         5168.43 
      0.0800726         4168.93         4102.05 
       0.096163         2912.37          2976.4 
       0.111083         2317.57         2374.05 
       0.126058         2135.13         2103.89 
       0.142273         1844.52         1782.46 
       0.158546         1545.75         1407.77 
        0.17375         1239.91         1186.04 
       0.188953         1196.89         1073.94 
       0.204907         1123.94         950.215 
       0.220756         956.085         803.939 
        0.23588         842.104         699.357 
         0.2514         735.113         635.359 
       0.267535         716.929         574.891 
       0.283568         649.904         506.977 
       0.299022         606.161          451.69 
       0.314451         569.781         412.814 
       0.330372         525.418          378.71 
       0.346141         477.733         343.737 
       0.361624         459.314          312.41 
       0.377134         427.045         287.467 
       0.392932          405.35         265.987 
       0.408854         389.096         245.189 
       0.424564         369.404         225.994 
       0.440253         357.308         209.523 
       0.455999          336.22           195.2 
       0.471626         314.051         182.038 
        0.48727         304.657         169.726 
       0.502856         294.636         158.665 
       0.518488         291.224         148.795 
       0.534347         273.807          139.62 
       0.550082          257.76         131.161 
       0.565732         254.074         123.421 
       0.581496         240.826         116.333 
       0.597222         235.274         109.832 
       0.612804         227.047         103.854 
       0.628434         218.937         98.2823 
       0.644267         211.904         93.0732 
       0.660051         209.163         88.2722 
       0.675724         204.674         83.8391 
       0.691403         198.798         79.7066 
       0.707174         190.529         75.8294 
       0.722871         188.796         72.2256 
        0.73838         184.705         68.8945 
       0.754018         179.437         65.7484 
       0.769845         173.949         62.7645 
        0.78569          172.06         59.9633 
       0.801365         166.782         57.3609 
       0.817031         161.409         54.9154 
       0.832809         159.186         52.5976 
       0.848511         155.171         50.4247 
       0.864097         152.733           48.39 
       0.879701          149.29         46.4662 
       0.895507         145.508         44.6247 
       0.911279         142.406         42.8874 
        0.92691         141.356         41.2573 
       0.942635          137.83         39.7034 
       0.958396         137.527         38.2266 
       0.974128         133.637         36.8279 
       0.989692         130.382         35.5132 
        1.00528          128.01         34.2611 
        1.02113         127.241           33.05 
        1.03692         122.434         31.9022 
        1.05264         121.414         30.8143 
        1.06832         118.825         29.7791 
        1.08405         117.234         28.7889 
        1.09979         116.665         27.8433 
        1.11537         112.796         26.9498 
        1.13105         112.382         26.0902 
        1.14679         111.304          25.265 
        1.16256         109.627          24.474 
        1.17828         106.955         23.7196 
        1.19395         105.555         22.9996 
         1.2097         103.466          22.306 
        1.22537         103.228         21.6444 
          1.241         100.873         21.0118 
        1.25666         98.9493         20.4029 
        1.27241         97.6392         19.8154 
        1.28819         96.1997         19.2502 
        1.30392         94.9834         18.7087 
        1.31957         93.6529         18.1905 
        1.33529          91.847         17.6901 
        1.35108         90.8184         17.2066 
        1.36674         89.8679         16.7446 
         1.3824         88.1612         16.3001 
        1.39811         87.2444         15.8704 
        1.41389         85.9589         15.4545 
        1.42964         84.7694         15.0542 
        1.44531          82.935         14.6702 
        1.46101         82.0677         14.2987 
        1.47667         81.7157         13.9413 
        1.49229         80.0723          13.597 
        1.50793         79.5079          13.264 
        1.52367         78.2688         12.9401 
        1.53953         77.0525         12.6248 
        1.55526          76.349         12.3226 
        1.57092         75.9553         12.0316 
        1.58662          74.254         11.7492 
        1.60235         73.7883         11.4755 
        1.61809         72.6842         11.2103 
        1.63369         71.7285         10.9558 
        1.64941         71.0454         10.7075 
        1.66519         69.4931          10.466 
        1.68085         69.0776         10.2337 
        1.69652         67.7744         10.0083 
        1.71228         67.5144         9.78852 
        1.72806         66.5998         9.57515 
        1.74368          65.799         9.37029 
        1.75933         64.8826         9.17103 
        1.77505         64.3669         8.97664 
        1.79081         63.3561         8.78755 
         1.8065         62.7583         8.60473 
        1.82218         61.8567         8.42728 
        1.83797         61.2554         8.25363 
        1.85367         60.5524         8.08584 
        1.86928         60.1102         7.92373 
        1.88497         59.1286         7.76518 
        1.90073         58.2657          7.6104 
        1.91647         58.0105         7.45998 
        1.93218         57.1931         7.31395 
        1.94787         56.4981         7.17206 
        1.96363         55.7625         7.03337 
        1.97935         55.4166         6.89863 
        1.99499         54.5072          6.7682 
        2.01064         54.3221         6.64095 
         2.0264         52.9893         6.51618 
        2.04216         52.7189         6.39468 
        2.05781         52.0821         6.27705 
        2.07353         51.4705         6.16196 
        2.08928         50.8567         6.04951 
        2.10499         50.4871         5.94018 
        2.12065          49.842         5.83387 
        2.13633         49.5334         5.73008 
        2.15211         49.1845         5.62815 
        2.16785         48.3028         5.52898 
        2.18349         47.9628         5.43283 
        2.19916         47.4021         5.33876 
        2.21489         46.9655         5.24662 
        2.23063         46.3213         5.15658 
         2.2463         45.8962         5.06907 
        2.26194         45.1084         4.98381 
        2.27765         44.6975         4.90007 
        2.29341         44.1675         4.81804 
        2.30914         43.6052         4.73806 
        2.32486         42.9862         4.65995 
        2.34061         42.7328         4.58346 
        2.35635         42.2329         4.50876 
        2.37203         41.6967         4.43599 
        2.38768          41.326         4.36497 
        2.40339         40.9876         4.29526 
        2.41914         40.6217          4.2269 
        2.43483         40.0134         4.16028 
         2.4505         39.6868          4.0952 
        2.46622          39.277         4.03129 
        2.48195         38.8325         3.96875 
        2.49759          38.379         3.90786 
        2.51328          37.867          3.8481 
        2.52906         37.6335          3.7892 
        2.54479         37.0523         3.73176 
        2.56049         36.6426         3.67563 
        2.57618         36.3498         3.62069 
        2.59189         35.9139          3.5668 
        2.60758         35.6952         3.51409 
        2.62325          35.219         3.46251 
        2.63898         34.8506         3.41179 
        2.65468         34.4473         3.36219 
        2.67044         34.0406         3.31336 
        2.68618         33.8116         3.26561 
        2.70184         33.4209           3.219 
        2.71755         33.2062         3.17318 
        2.73329         32.7906         3.12819 
        2.74897         32.4392         3.08421 
        2.76462         31.9837         3.04117 
        2.78034         31.8728         2.99878 
        2.79607         31.4851         2.95716 
        2.81179          31.202         2.91637 
        2.82749          30.863          2.8764 
        2.84321         30.4889         2.83713 
        2.85893         30.1846          2.7986 
        2.87462         29.8591         2.76086 
        2.89033         29.5798         2.72378 
        2.90605         29.3943         2.68735 
        2.92176         29.1667          2.6516 
        2.93747         28.8138         2.61653 
        2.95318         28.4172         2.58207 
        2.96891         28.1891         2.54823 
        2.98456         27.8701         2.51514 
        3.00023         27.5735         2.48259 
        3.01596         27.3083         2.45052 
        3.03164         27.1815          2.4191 
        3.04738         26.8903         2.38814 
         3.0631          26.623         2.35774 
        3.07883         26.3213         2.32786 
        3.09456         26.0393          2.2985 
        3.11026         25.8089          2.2697 
        3.12596          25.613         2.24139 
        3.14163         25.3174         2.21363 
        3.15734         25.0776         2.18628 
        3.17308         24.7825         2.15932 
        3.18879         24.6367          2.1329 
        3.20447         24.3217         2.10695 
         3.2202          24.106         2.08135 
         3.2359         23.8311         2.05623 
        3.25157          23.784         2.03157 
        3.26729         23.4952         2.00725 
        3.28304         23.2311         1.98328 
        3.29877         22.9476         1.95973 
        3.31446         22.7478         1.93662 
        3.33014         22.5286          1.9139 
        3.34585         22.4009          1.8915 
        3.36158         22.0956         1.86944 
        3.37727         21.8709         1.84779 
        3.39294         21.7647         1.82651 
        3.40867           21.52         1.80548 
        3.42439         21.3096          1.7848 
        3.44008         21.1264         1.76448 
        3.45578          20.971         1.74446 
        3.47153         20.6723         1.72471 
        3.48724         20.5353          1.7053 
        3.50292         20.3886         1.68623 
        3.51859         20.1313         1.66747 
        3.53431          19.955         1.64893 
        3.55007         19.7384         1.63063 
        3.56577         19.5458         1.61267 
        3.58146         19.4481           1.595 
        3.59719         19.1824         1.57755 
        3.61292         19.0514         1.56037 
        3.62859         18.8539          1.5435 
        3.64429         18.7043         1.52686 
        3.66003         18.5729         1.51041 
        3.67578         18.3276          1.4942 
        3.69146         18.2587          1.4783 
        3.70712         18.0623         1.46265 
        3.72284         17.9449         1.44718 
        3.73853         17.7143         1.43195 
        3.75422         17.5254         1.41694 
        3.76993         17.4165         1.40213 
        3.78564          17.241         1.38754 
        3.80137         17.0969         1.37313 
        3.81707         16.9293         1.35896 
        3.83279         16.7945         1.34497 
        3.84853         16.6284         1.33116 
        3.86424         16.4873         1.31757 
        3.87992         16.3582         1.30419 
        3.89561         16.1681           1.291 
        3.91134         16.0812         1.27796 
        3.92704         15.9309         1.26511 
        3.94273         15.7845         1.25246 
        3.95845         15.6149         1.23995 
        3.97418         15.5513         1.22762 
        3.98988          15.361         1.21546 
        4.00554          15.234         1.20351 
        4.02125         15.1256         1.19168 
        4.03698         15.0178         1.17999 
        4.05268         14.8373         1.16849 
        4.06839         14.7199         1.15713 
         4.0841          14.632         1.14592 
        4.09983         14.4574         1.13485 
        4.11555         14.3496         1.12393 
        4.13124         14.2399         1.11318 
        4.14693         14.1113         1.10256 
        4.16266         13.9894         1.09206 
        4.17839         13.8612          1.0817 
        4.19408         13.7173         1.07149 
        4.20977          13.665         1.06142 
        4.22551         13.5059         1.05145 
        4.24123         13.4148         1.04162 
        4.25691         13.3245         1.03194 
        4.27259         13.1592         1.02238 
        4.28831         13.0276         1.01292 
        4.30404         12.9679         1.00357 
        4.31974         12.8516        0.994364 
        4.33543         12.7564        0.985275 
        4.35116          12.656        0.976279 
        4.36688         12.5302        0.967398 
        4.38255         12.4117        0.958661 
        4.39825         12.3204        0.950013 
        4.41398         12.2603        0.941454 
         4.4297         12.1031         0.93301 
        4.44541          12.022         0.92467 
        4.46111         11.9214        0.916439 
        4.47683         11.8429        0.908302 
        4.49251         11.7362        0.900281 
        4.50819         11.6534        0.892358 
         4.5239         11.5589        0.884519 
        4.53962         11.4724        0.876765 
        4.55535         11.3633        0.869099 
        4.57106         11.2575        0.861537 
        4.58678         11.1694        0.854062 
         4.6025         11.0795        0.846675 
        4.61821         11.0034        0.839376 
        4.63391         10.9142        0.832173 
         4.6496         10.8124        0.825057 
        4.66532         10.7143        0.818013 
        4.68103          10.639        0.811054 
        4.69673         10.5683        0.804183 
        4.71241         10.4558        0.797398 
        4.72811         10.3775        0.790681 
        4.74384          10.328        0.784032 
        4.75955         10.2217         0.77747 
        4.77525         10.1423        0.770986 
        4.79096         10.0774        0.764568 
        4.80669         10.0085         0.75822 
         4.8224         9.93526        0.751952 
        4.83809         9.84367        0.745761 
        4.85379         9.76432        0.739636 
         4.8695           9.732        0.733574 
        4.88521         9.60453        0.727583 
        4.90093         9.54488        0.721658 
        4.91663         9.47119        0.715805 
        4.93234         9.40714         0.71001 
        4.94807         9.32637        0.704275 
        4.96377         9.25446        0.698614 
        4.97943         9.18129        0.693027 
        4.99514         9.12401        0.687487 
        5.01086         9.06023        0.682004 
        5.02654         8.99159        0.676594 
        5.04227           8.915        0.671227 
          5.058         8.83214        0.665915 
        5.07371          8.7937        0.660671 
        5.08942         8.72669        0.655483 
        5.10513         8.65265         0.65035 
        5.12084         8.58007         0.64527 
        5.13656         8.51968        0.640245 
        5.15225         8.46375        0.635281 
        5.16796         8.40881        0.630363 
        5.18369         8.34167        0.625492 
         5.1994         8.24861        0.620681 
        5.21509         8.21952        0.615925 
        5.23079         8.15209        0.611213 
        5.24649         8.08795        0.606555 
        5.26217         8.03716        0.601948 
        5.27788         7.96642        0.597382 
        5.29359         7.91865        0.592863 
        5.30933         7.83982        0.588384 
        5.32504         7.79355        0.583958 
        5.34073         7.75771        0.579584 
        5.35646         7.67819        0.575245 
        5.37218         7.63446        0.570949 
        5.38789           7.581        0.566705 
        5.40357         7.53113        0.562508 
        5.41929         7.47465        0.558345 
        5.43502         7.41024        0.554223 
         5.4507         7.36479        0.550152 
        5.46639          7.3273        0.546122 
        5.48212         7.26851        0.542123 
        5.49786         7.23229        0.538159 
        5.51353         7.15773        0.534255 
        5.52921         7.11904        0.530385 
        5.54495         7.07214        0.526542 
        5.56066         7.01389        0.522741 
        5.57637         6.95563        0.518978 
        5.59207         6.92068        0.515256 
        5.60778         6.86041        0.511569 
        5.62346         6.81464        0.507923 
        5.63916         6.76524        0.504309 
        5.65487         6.72923        0.500728 
         5.6706         6.66797        0.497178 
        5.68633         6.62913         0.49366 
        5.70203         6.59641        0.490184 
        5.71773         6.53804        0.486743 
        5.73344         6.49329        0.483332 
        5.74916         6.46041        0.479951 
        5.76486         6.42137        0.476607 
        5.78054          6.3645        0.473299 
        5.79626         6.31517        0.470014 
          5.812         6.28698        0.466757 
         5.8277         6.24633         0.46354 
        5.84339         6.18804        0.460353 
        5.85911         6.15909        0.457191 
        5.87484         6.11212        0.454058 
        5.89053         6.07605        0.450961 
        5.90623         6.03204        0.447892 
        5.92195         5.97593        0.444845 
        5.93767         5.95774        0.441829 
        5.95336         5.90761        0.438845 
        5.96905         5.87521        0.435891 
        5.98476         5.83168        0.432959 
        6.00048         5.80904        0.430053 
        6.01617         5.75859        0.427178 
        6.03185         5.72717        0.424333 
        6.04756         5.68362        0.421506 
        6.06331         5.65229        0.418699 
        6.07903         5.61524        0.415924 
        6.09473         5.57129        0.413177 
        6.11044         5.53693        0.410451 
        6.12616           5.504        0.407751 
        6.14186         5.47191        0.405078 
        6.15755         5.43342        0.402429 
        6.17326         5.38877        0.399801 
        6.18898         5.35136        0.397196 
        6.20467         5.32463        0.394618 
        6.22036          5.2984        0.392064 
         6.2361         5.25222        0.389525 
         6.2518         5.22394        0.387013 
        6.26748         5.19991        0.384529 
        6.28319         5.15379        0.382059 
        6.29893         5.12286        0.379609 
        6.31463          5.1028        0.377185 
        6.33033         5.05796        0.374783 
        6.34604         5.03785        0.372399 
        6.36177         5.00147        0.370035 
        6.37747          4.9715        0.367695 
