# k  (h/Mpc)    Pcb(k)  (Mpc/h)^3    Pcb_linear(k) (Mpc/h)^3   ShotnoiseSubtracted = true
      0.0200456         16886.3         17162.3 
      0.0350414         12842.5         12476.4 
      0.0492313         8921.22          9065.1 
      0.0637834         7201.25         7535.74 
      0.0800726         5661.15         5980.93 
       0.096163         4500.39         4339.69 
       0.111083         3662.88         3461.44 
       0.126058         3035.76         3067.54 
       0.142273         2640.75         2598.89 
       0.158546         2169.03         2052.57 
        0.17375         1918.02         1729.29 
       0.188953         1798.98         1565.83 
       0.204907         1542.68         1385.44 
       0.220756         1388.52         1172.17 
        0.23588         1237.63         1019.69 
         0.2514         1112.61         926.375 
       0.267535          1078.6          838.21 
       0.283568         950.917         739.189 
       0.299022         907.998         658.579 
       0.314451         935.545         601.896 
       0.330372         811.246         552.172 
       0.346141         747.875         501.181 
       0.361624         716.847         455.505 
       0.377134          680.86         419.136 
       0.392932         654.713         387.818 
       0.408854         624.396         357.494 
       0.424564         607.548         329.507 
       0.440253         556.063         305.491 
       0.455999         532.254         284.608 
       0.471626         540.925         265.417 
        0.48727         510.699         247.465 
       0.502856          478.12         231.338 
       0.518488         473.466         216.948 
       0.534347         445.522         203.571 
       0.550082         427.331         191.236 
       0.565732         423.748         179.952 
       0.581496           411.8         169.617 
       0.597222         400.175         160.138 
       0.612804         390.727         151.423 
       0.628434         375.027         143.299 
       0.644267         361.128         135.704 
       0.660051         356.229         128.704 
       0.675724         349.969          122.24 
       0.691403         341.711         116.215 
       0.707174         328.776         110.562 
       0.722871         323.518         105.307 
        0.73838         319.264          100.45 
       0.754018         307.251         95.8633 
       0.769845          305.55         91.5127 
        0.78569         298.602         87.4284 
       0.801365         289.655         83.6341 
       0.817031         286.011         80.0685 
       0.832809         280.884         76.6891 
       0.848511         274.055         73.5208 
       0.864097         267.324         70.5542 
       0.879701         265.789         67.7492 
       0.895507         258.336         65.0643 
       0.911279         251.833         62.5312 
        0.92691         249.411         60.1545 
       0.942635          247.34         57.8888 
       0.958396          240.35         55.7356 
       0.974128         237.211         53.6962 
       0.989692         228.632         51.7795 
        1.00528         228.285         49.9539 
        1.02113         224.765          48.188 
        1.03692         219.557         46.5144 
        1.05264         215.883         44.9283 
        1.06832         215.426          43.419 
        1.08405         209.326         41.9752 
        1.09979          207.73         40.5965 
        1.11537         203.356         39.2936 
        1.13105         199.827         38.0404 
        1.14679         197.978         36.8372 
        1.16256         195.143         35.6839 
        1.17828         192.803         34.5839 
        1.19395         187.638         33.5342 
         1.2097         186.912         32.5229 
        1.22537          185.27         31.5583 
          1.241         180.214         30.6359 
        1.25666         178.396         29.7482 
        1.27241         174.673         28.8916 
        1.28819         172.895         28.0674 
        1.30392          170.51         27.2779 
        1.31957         166.327         26.5223 
        1.33529          164.28         25.7927 
        1.35108          162.82         25.0877 
        1.36674         159.669         24.4142 
         1.3824           158.5         23.7661 
        1.39811         155.645         23.1395 
        1.41389         152.827         22.5331 
        1.42964         150.852         21.9496 
        1.44531         149.299         21.3896 
        1.46101         146.173          20.848 
        1.47667         145.603         20.3268 
        1.49229         143.196         19.8249 
        1.50793         140.543         19.3394 
        1.52367         139.053         18.8671 
        1.53953         136.242         18.4074 
        1.55526         135.802         17.9668 
        1.57092         134.046         17.5424 
        1.58662         130.921         17.1308 
        1.60235          129.63         16.7316 
        1.61809         127.877         16.3449 
        1.63369          125.92          15.974 
        1.64941         125.104         15.6119 
        1.66519         123.148         15.2598 
        1.68085         120.798          14.921 
        1.69652         119.742         14.5925 
        1.71228         118.633          14.272 
        1.72806         117.219         13.9609 
        1.74368         115.338         13.6622 
        1.75933         114.372         13.3717 
        1.77505         112.254         13.0882 
        1.79081          110.75         12.8125 
         1.8065         108.814          12.546 
        1.82218         107.649         12.2873 
        1.83797         107.185         12.0341 
        1.85367         105.297         11.7894 
        1.86928         104.596         11.5531 
        1.88497         102.603         11.3219 
        1.90073         101.867         11.0962 
        1.91647         100.162         10.8769 
        1.93218         99.0015          10.664 
        1.94787         97.4268         10.4571 
        1.96363          96.631         10.2549 
        1.97935         95.5496         10.0584 
        1.99499         94.7539         9.86826 
        2.01064         92.4821         9.68273 
         2.0264         91.9921         9.50081 
        2.04216         89.9911         9.32365 
        2.05781         89.6125         9.15215 
        2.07353         88.3874         8.98434 
        2.08928         87.1018         8.82039 
        2.10499         86.0559         8.66097 
        2.12065         85.5396         8.50598 
        2.13633         84.3818         8.35464 
        2.15211         83.0085         8.20602 
        2.16785         81.8242         8.06144 
        2.18349         80.7552         7.92124 
        2.19916         79.7867         7.78409 
        2.21489         79.0102         7.64974 
        2.23063         77.7957         7.51847 
         2.2463          77.338         7.39087 
        2.26194         76.2333         7.26656 
        2.27765          75.326         7.14447 
        2.29341         74.4496         7.02487 
        2.30914         73.5348         6.90825 
        2.32486         72.0114         6.79436 
        2.34061         71.6325         6.68284 
        2.35635         70.6804         6.57393 
        2.37203         69.6747         6.46782 
        2.38768         69.0223         6.36428 
        2.40339         68.3012         6.26263 
        2.41914         67.1383         6.16296 
        2.43483         66.6867         6.06582 
         2.4505         65.7118         5.97094 
        2.46622         65.2132         5.87776 
        2.48195         64.2492         5.78656 
        2.49759         63.4999         5.69779 
        2.51328         62.7189         5.61065 
        2.52906         61.8953         5.52479 
        2.54479         61.2968         5.44104 
        2.56049         60.5751         5.35919 
        2.57618         59.6967         5.27909 
        2.59189         59.3039         5.20051 
        2.60758         58.4284         5.12366 
        2.62325         57.7781         5.04846 
        2.63898         57.2079          4.9745 
        2.65468         56.6518         4.90218 
        2.67044         55.9818         4.83099 
        2.68618         55.4253         4.76137 
        2.70184          54.694         4.69341 
        2.71755         53.9027          4.6266 
        2.73329         53.4657           4.561 
        2.74897         52.9588         4.49688 
        2.76462         52.5909         4.43413 
        2.78034         51.8877         4.37233 
        2.79607         51.1199         4.31163 
        2.81179         50.5342         4.25216 
        2.82749         50.1015         4.19388 
        2.84321         49.6751         4.13662 
        2.85893         49.1059         4.08046 
        2.87462         48.4056         4.02543 
        2.89033         47.8416         3.97136 
        2.90605         47.3026         3.91824 
        2.92176          46.939         3.86612 
        2.93747          46.339         3.81498 
        2.95318         45.8747         3.76475 
        2.96891         45.3214          3.7154 
        2.98456         44.9298         3.66716 
        3.00023         44.2144          3.6197 
        3.01596         43.8642         3.57293 
        3.03164         43.4382         3.52713 
        3.04738         43.0262         3.48199 
         3.0631         42.5726         3.43766 
        3.07883         42.0665         3.39409 
        3.09456         41.5914         3.35129 
        3.11026         41.1919          3.3093 
        3.12596         40.7904         3.26802 
        3.14163          40.317         3.22755 
        3.15734         39.9149         3.18767 
        3.17308         39.5787         3.14837 
        3.18879         39.2335         3.10983 
        3.20447          38.762           3.072 
         3.2202         38.3349         3.03468 
         3.2359         38.0176         2.99804 
        3.25157         37.5322          2.9621 
        3.26729          37.195         2.92664 
        3.28304         36.8863         2.89169 
        3.29877         36.3379         2.85735 
        3.31446          36.089         2.82365 
        3.33014         35.6832         2.79052 
        3.34585         35.2161         2.75787 
        3.36158         34.9591          2.7257 
        3.37727         34.6094         2.69414 
        3.39294         34.2304         2.66311 
        3.40867          33.942         2.63245 
        3.42439         33.5216         2.60229 
        3.44008         33.2802         2.57267 
        3.45578          32.895         2.54348 
        3.47153         32.6731         2.51469 
        3.48724         32.3004         2.48638 
        3.50292          31.964         2.45859 
        3.51859         31.7411         2.43122 
        3.53431         31.4633         2.40419 
        3.55007         30.9302         2.37751 
        3.56577         30.8789         2.35133 
        3.58146         30.4431         2.32556 
        3.59719         30.1726         2.30012 
        3.61292         29.9561         2.27507 
        3.62859         29.5887         2.25048 
        3.64429          29.323         2.22621 
        3.66003         29.0442         2.20222 
        3.67578         28.8132          2.1786 
        3.69146         28.5633         2.15541 
        3.70712         28.1925          2.1326 
        3.72284         27.9826         2.11003 
        3.73853         27.8092         2.08784 
        3.75422         27.5299         2.06595 
        3.76993         27.2479         2.04435 
        3.78564          27.007         2.02308 
        3.80137         26.8148         2.00207 
        3.81707         26.5092         1.98141 
        3.83279         26.2429         1.96102 
        3.84853         26.0282         1.94088 
        3.86424         25.6772         1.92106 
        3.87992         25.4553         1.90156 
        3.89561         25.3024         1.88232 
        3.91134         25.0475         1.86331 
        3.92704         24.7735         1.84458 
        3.94273         24.4962         1.82613 
        3.95845         24.3724         1.80789 
        3.97418         24.0924          1.7899 
        3.98988         23.8999         1.77219 
        4.00554         23.6468         1.75475 
        4.02125         23.5049         1.73751 
        4.03698         23.2706         1.72047 
        4.05268         23.0386         1.70369 
        4.06839         22.8291         1.68713 
         4.0841         22.6561         1.67079 
        4.09983         22.3862         1.65464 
        4.11555         22.2069         1.63872 
        4.13124         22.1416         1.62305 
        4.14693         21.8177         1.60757 
        4.16266         21.6659         1.59225 
        4.17839         21.5172         1.57715 
        4.19408         21.2623         1.56227 
        4.20977         21.1406         1.54758 
        4.22551         20.9572         1.53305 
        4.24123         20.7337         1.51871 
        4.25691         20.5659          1.5046 
        4.27259         20.4205         1.49066 
        4.28831         20.2256         1.47687 
        4.30404         20.0457         1.46324 
        4.31974         19.8531         1.44981 
        4.33543         19.7207         1.43656 
        4.35116         19.5466         1.42345 
        4.36688         19.3509          1.4105 
        4.38255         19.1758         1.39776 
        4.39825         19.0506         1.38515 
        4.41398         18.8947         1.37267 
         4.4297         18.7324         1.36036 
        4.44541          18.547          1.3482 
        4.46111         18.3579          1.3362 
        4.47683         18.2163         1.32433 
        4.49251         18.1123         1.31264 
        4.50819         17.9576         1.30109 
         4.5239         17.8035         1.28966 
        4.53962         17.6792         1.27835 
        4.55535         17.5001         1.26718 
        4.57106         17.4121         1.25615 
        4.58678         17.2287         1.24525 
         4.6025         17.0102         1.23448 
        4.61821         16.9242         1.22384 
        4.63391         16.7867         1.21334 
         4.6496         16.6969         1.20296 
        4.66532          16.495         1.19269 
        4.68103         16.3886         1.18254 
        4.69673          16.281         1.17253 
        4.71241         16.1699         1.16263 
        4.72811         16.0042         1.15284 
        4.74384         15.8583         1.14314 
        4.75955         15.7393         1.13358 
        4.77525          15.633         1.12412 
        4.79096         15.4793         1.11477 
        4.80669         15.3613         1.10551 
         4.8224         15.2271         1.09637 
        4.83809         15.0998         1.08734 
        4.85379         15.0054         1.07841 
         4.8695         14.9029         1.06958 
        4.88521         14.7677         1.06084 
        4.90093         14.6407          1.0522 
        4.91663         14.5036         1.04367 
        4.93234          14.405         1.03522 
        4.94807         14.3079         1.02686 
        4.96377         14.1877          1.0186 
        4.97943         14.0951         1.01046 
        4.99514         13.9588         1.00238 
        5.01086         13.8837        0.994384 
        5.02654         13.7548        0.986496 
        5.04227          13.639         0.97867 
          5.058         13.5402        0.970926 
        5.07371         13.4292        0.963281 
        5.08942         13.3619        0.955716 
        5.10513         13.2236        0.948232 
        5.12084         13.1481        0.940825 
        5.13656         13.0475        0.933498 
        5.15225          12.937        0.926261 
        5.16796         12.8135         0.91909 
        5.18369         12.7139        0.911988 
         5.1994         12.6399        0.904973 
        5.21509         12.5282        0.898039 
        5.23079         12.4567        0.891169 
        5.24649         12.3603        0.884377 
        5.26217         12.2674        0.877659 
        5.27788         12.1587        0.871003 
        5.29359         12.0651        0.864413 
        5.30933         12.0086        0.857883 
        5.32504         11.9169        0.851431 
        5.34073         11.8189        0.845052 
        5.35646         11.7481        0.838726 
        5.37218         11.6389        0.832463 
        5.38789          11.536        0.826274 
        5.40357         11.4815        0.820155 
        5.41929         11.3989        0.814085 
        5.43502         11.3008        0.808075 
         5.4507         11.2235         0.80214 
        5.46639         11.1256        0.796264 
        5.48212         11.0571        0.790434 
        5.49786         10.9904        0.784654 
        5.51353          10.896        0.778961 
        5.52921         10.8311        0.773318 
        5.54495         10.7502        0.767715 
        5.56066         10.6573        0.762174 
        5.57637         10.5971        0.756688 
        5.59207         10.5388         0.75126 
        5.60778         10.4514        0.745884 
        5.62346         10.3438        0.740568 
        5.63916         10.2956        0.735298 
        5.65487         10.2421        0.730078 
         5.6706         10.1427        0.724901 
        5.68633         10.0659        0.719773 
        5.70203         10.0047        0.714705 
        5.71773         9.90508        0.709687 
        5.73344         9.85405        0.704714 
        5.74916         9.79463        0.699784 
        5.76486         9.72807        0.694908 
        5.78054         9.65947        0.690086 
        5.79626         9.60805        0.685296 
          5.812         9.53425        0.680547 
         5.8277         9.45635        0.675857 
        5.84339         9.37536        0.671211 
        5.85911         9.31522        0.666599 
        5.87484         9.25048        0.662032 
        5.89053         9.18251        0.657516 
        5.90623         9.13157        0.653041 
        5.92195         9.06678        0.648599 
        5.93767         9.02674        0.644201 
        5.95336         8.93068        0.639851 
        5.96905          8.8911        0.635543 
        5.98476         8.82038        0.631268 
        6.00048          8.7642        0.627032 
        6.01617         8.69446         0.62284 
        6.03185         8.64133        0.618691 
        6.04756         8.57884         0.61457 
        6.06331         8.52949        0.610478 
        6.07903         8.47081        0.606431 
        6.09473         8.41367        0.602425 
        6.11044          8.3519        0.598452 
        6.12616         8.30224        0.594515 
        6.14186         8.25339        0.590617 
        6.15755         8.19017        0.586754 
        6.17326         8.13838        0.582923 
        6.18898          8.0841        0.579125 
        6.20467         8.01962        0.575367 
        6.22036         7.96736        0.571642 
         6.2361         7.90808        0.567941 
         6.2518         7.88085        0.564278 
        6.26748         7.80562        0.560656 
        6.28319         7.77647        0.557055 
        6.29893         7.72416        0.553483 
        6.31463         7.64961        0.549948 
        6.33033         7.61087        0.546445 
        6.34604         7.56641         0.54297 
        6.36177         7.53137        0.539523 
        6.37747         7.45559        0.536111 
