# k  (h/Mpc)    Pcb(k)  (Mpc/h)^3    Pcb_linear(k) (Mpc/h)^3   ShotnoiseSubtracted = true
      0.0200456         10468.4           10666 
      0.0350414         7532.06         7753.81 
      0.0492313         5589.07         5633.77 
      0.0637834         4773.47          4683.3 
      0.0800726         3777.92         3717.02 
       0.096163         2642.84         2697.02 
       0.111083         2101.43         2151.21 
       0.126058         1934.67         1906.41 
       0.142273         1670.53         1615.15 
       0.158546          1392.5         1275.63 
        0.17375         1118.58         1074.72 
       0.188953         1076.97         973.133 
       0.204907         1010.72         861.025 
       0.220756         857.445         728.479 
        0.23588         754.079         633.713 
         0.2514         659.348         575.722 
       0.267535         640.054          520.93 
       0.283568         580.096          459.39 
       0.299022         539.854         409.293 
       0.314451         505.396         374.066 
       0.330372         466.355         343.163 
       0.346141         422.463         311.473 
       0.361624         405.903         283.086 
       0.377134         377.967         260.484 
       0.392932         356.647         241.021 
       0.408854         342.036         222.175 
       0.424564         325.674         204.782 
       0.440253         313.413         189.856 
       0.455999         294.822         176.878 
       0.471626         274.434         164.951 
        0.48727         266.449         153.795 
       0.502856         257.286         143.772 
       0.518488         253.826         134.829 
       0.534347         239.292         126.515 
       0.550082         224.344         118.849 
       0.565732         220.266         111.836 
       0.581496         209.255         105.413 
       0.597222         203.893         99.5226 
       0.612804         196.267          94.106 
       0.628434         189.884         89.0572 
       0.644267          183.58          84.337 
       0.660051         181.323         79.9867 
       0.675724         177.021         75.9696 
       0.691403         171.831         72.2251 
       0.707174         164.523         68.7118 
       0.722871          163.08         65.4463 
        0.73838         159.475         62.4278 
       0.754018         154.326          59.577 
       0.769845         150.163         56.8732 
        0.78569         147.755         54.3349 
       0.801365         143.513         51.9768 
       0.817031         138.666         49.7609 
       0.832809         136.702         47.6606 
       0.848511         133.173         45.6916 
       0.864097         130.584         43.8479 
       0.879701         127.937         42.1047 
       0.895507         124.776         40.4361 
       0.911279         122.568         38.8618 
        0.92691         121.003         37.3848 
       0.942635         117.973         35.9767 
       0.958396         117.646         34.6385 
       0.974128         114.302         33.3711 
       0.989692         111.481         32.1799 
        1.00528         109.285         31.0453 
        1.02113         108.494         29.9478 
        1.03692         104.392         28.9077 
        1.05264          104.06          27.922 
        1.06832         101.508          26.984 
        1.08405         100.158         26.0867 
        1.09979         99.6084         25.2299 
        1.11537         96.2417         24.4202 
        1.13105         96.1345         23.6413 
        1.14679         94.8985         22.8935 
        1.16256         93.5069         22.1768 
        1.17828          91.046         21.4932 
        1.19395         90.0366         20.8408 
         1.2097         87.8852         20.2123 
        1.22537         88.0331         19.6128 
          1.241         85.9185         19.0396 
        1.25666         84.1922         18.4879 
        1.27241           83.18         17.9555 
        1.28819         81.8355         17.4433 
        1.30392         80.8437         16.9526 
        1.31957         79.6921         16.4831 
        1.33529         78.2992         16.0296 
        1.35108         77.6284         15.5915 
        1.36674         76.6906         15.1729 
         1.3824         75.2421         14.7702 
        1.39811         74.4675         14.3807 
        1.41389         73.3457         14.0039 
        1.42964         72.5186         13.6412 
        1.44531         71.0164         13.2932 
        1.46101         70.0848         12.9566 
        1.47667          69.963         12.6327 
        1.49229         68.5753         12.3208 
        1.50793         68.0862          12.019 
        1.52367         66.9382         11.7255 
        1.53953         66.0369         11.4398 
        1.55526         65.3822          11.166 
        1.57092         65.1429         10.9022 
        1.58662         63.7647         10.6464 
        1.60235         63.2529         10.3983 
        1.61809         62.3872          10.158 
        1.63369         61.3861         9.92749 
        1.64941         60.8133         9.70247 
        1.66519         59.6964         9.48362 
        1.68085         59.2654          9.2731 
        1.69652         58.2952         9.06892 
        1.71228         57.9338         8.86973 
        1.72806         57.3592         8.67639 
        1.74368         56.5524         8.49076 
        1.75933         55.9373          8.3102 
        1.77505         55.3398         8.13406 
        1.79081         54.6311         7.96272 
         1.8065         54.1495         7.79706 
        1.82218         53.3721         7.63627 
        1.83797         52.7698         7.47892 
        1.85367         52.1512         7.32687 
        1.86928         51.6136         7.17998 
        1.88497         51.0737         7.03632 
        1.90073         50.4498         6.89606 
        1.91647         50.0393         6.75976 
        1.93218         49.4139         6.62744 
        1.94787         48.9082         6.49886 
        1.96363         48.2503         6.37319 
        1.97935         47.8119         6.25111 
        1.99499         47.1568         6.13291 
        2.01064         46.9592         6.01761 
         2.0264         45.8789         5.90455 
        2.04216         45.6356         5.79445 
        2.05781         45.0269         5.68787 
        2.07353         44.5869         5.58358 
        2.08928         44.1218         5.48169 
        2.10499          43.691         5.38261 
        2.12065         43.1606         5.28629 
        2.13633         42.9937         5.19224 
        2.15211         42.4941         5.09987 
        2.16785         41.6602         5.01001 
        2.18349         41.4335         4.92289 
        2.19916         41.0724         4.83765 
        2.21489         40.5827         4.75415 
        2.23063          40.002         4.67257 
         2.2463         39.5821         4.59327 
        2.26194         39.0572         4.51601 
        2.27765         38.6661         4.44014 
        2.29341          38.243         4.36581 
        2.30914         37.8415         4.29333 
        2.32486          37.358         4.22255 
        2.34061          37.085         4.15324 
        2.35635          36.707         4.08556 
        2.37203          36.304         4.01961 
        2.38768         35.9127         3.95526 
        2.40339         35.7128         3.89209 
        2.41914         35.3568         3.83015 
        2.43483         34.7286         3.76978 
         2.4505         34.5093         3.71081 
        2.46622         34.1942          3.6529 
        2.48195         33.9001         3.59623 
        2.49759         33.4569         3.54106 
        2.51328         33.0142          3.4869 
        2.52906         32.8512         3.43354 
        2.54479         32.3248         3.38149 
        2.56049         32.0687         3.33062 
        2.57618         31.7335         3.28084 
        2.59189         31.5133         3.23201 
        2.60758         31.2479         3.18425 
        2.62325         30.7894         3.13751 
        2.63898         30.5753         3.09155 
        2.65468         30.1949          3.0466 
        2.67044         29.9291         3.00236 
        2.68618         29.6377         2.95909 
        2.70184         29.2832         2.91686 
        2.71755         29.1571         2.87534 
        2.73329         28.8017         2.83456 
        2.74897         28.4645         2.79471 
        2.76462         28.1357         2.75572 
        2.78034         28.0189         2.71731 
        2.79607         27.6945         2.67959 
        2.81179         27.4567         2.64263 
        2.82749         27.2003         2.60641 
        2.84321         26.7437         2.57082 
        2.85893         26.5524         2.53592 
        2.87462         26.3145         2.50172 
        2.89033         26.0682         2.46812 
        2.90605         25.8911         2.43511 
        2.92176         25.7346         2.40271 
        2.93747         25.3732         2.37093 
        2.95318          25.014         2.33971 
        2.96891          24.893         2.30904 
        2.98456         24.5492         2.27906 
        3.00023         24.3493         2.24957 
        3.01596         24.0853          2.2205 
        3.03164         23.8781         2.19203 
        3.04738         23.7135         2.16398 
         3.0631         23.4681         2.13643 
        3.07883         23.2637         2.10936 
        3.09456         22.9651         2.08276 
        3.11026         22.7672         2.05666 
        3.12596          22.593         2.03101 
        3.14163         22.3986         2.00586 
        3.15734         22.1928         1.98107 
        3.17308         21.9825         1.95664 
        3.18879           21.78          1.9327 
        3.20447         21.5626         1.90918 
         3.2202         21.3581         1.88599 
         3.2359         21.0932         1.86322 
        3.25157         21.0938         1.84088 
        3.26729         20.8043         1.81884 
        3.28304         20.6189         1.79712 
        3.29877         20.3208         1.77578 
        3.31446         20.1938         1.75484 
        3.33014         19.9958         1.73425 
        3.34585         19.8266         1.71396 
        3.36158         19.6428         1.69396 
        3.37727         19.4342         1.67435 
        3.39294         19.2936         1.65506 
        3.40867         19.1099         1.63601 
        3.42439         18.9553         1.61727 
        3.44008         18.7666         1.59886 
        3.45578         18.5724         1.58072 
        3.47153         18.4016         1.56282 
        3.48724         18.2393         1.54524 
        3.50292         18.1261         1.52796 
        3.51859           17.92         1.51095 
        3.53431         17.7483         1.49416 
        3.55007         17.5945         1.47757 
        3.56577         17.4016          1.4613 
        3.58146          17.297         1.44529 
        3.59719          17.125         1.42948 
        3.61292         16.9658         1.41391 
        3.62859         16.8368         1.39863 
        3.64429         16.6788         1.38354 
        3.66003         16.5436         1.36863 
        3.67578         16.3715         1.35395 
        3.69146         16.2769         1.33954 
        3.70712         16.0767         1.32536 
        3.72284         16.0389         1.31134 
        3.73853         15.8362         1.29755 
        3.75422         15.6232         1.28394 
        3.76993         15.5392         1.27052 
        3.78564          15.396          1.2573 
        3.80137         15.2384         1.24425 
        3.81707         15.1112          1.2314 
        3.83279         14.9913         1.21873 
        3.84853         14.8396         1.20622 
        3.86424         14.7534          1.1939 
        3.87992         14.6007         1.18178 
        3.89561          14.452         1.16982 
        3.91134          14.356           1.158 
        3.92704         14.2202         1.14637 
        3.94273         14.1256          1.1349 
        3.95845         13.9577         1.12357 
        3.97418         13.8896         1.11239 
        3.98988         13.7334         1.10138 
        4.00554         13.6517         1.09054 
        4.02125         13.5117         1.07982 
        4.03698         13.4434         1.06923 
        4.05268         13.2864         1.05881 
        4.06839         13.1601         1.04851 
         4.0841         13.0663         1.03836 
        4.09983         12.9183         1.02833 
        4.11555          12.826         1.01843 
        4.13124         12.7356         1.00869 
        4.14693         12.6386        0.999069 
        4.16266         12.5234        0.989552 
        4.17839         12.4111        0.980164 
        4.19408         12.3075        0.970919 
        4.20977         12.2246        0.961789 
        4.22551         12.0979        0.952755 
        4.24123         12.0185        0.943846 
        4.25691         11.8993        0.935076 
        4.27259         11.8199        0.926413 
        4.28831          11.693        0.917843 
        4.30404         11.6116        0.909374 
        4.31974         11.5022        0.901029 
        4.33543         11.4238        0.892794 
        4.35116         11.3333        0.884642 
        4.36688         11.2179        0.876595 
        4.38255         11.1384        0.868678 
        4.39825         11.0604        0.860842 
        4.41398         10.9955        0.853086 
         4.4297         10.8708        0.845434 
        4.44541         10.7615        0.837878 
        4.46111         10.7028        0.830419 
        4.47683         10.6197        0.823046 
        4.49251         10.5313        0.815777 
        4.50819         10.4607        0.808598 
         4.5239          10.367        0.801495 
        4.53962         10.2957        0.794469 
        4.55535         10.1996        0.787523 
        4.57106         10.1031         0.78067 
        4.58678          10.016        0.773897 
         4.6025           9.966        0.767203 
        4.61821         9.86823         0.76059 
        4.63391         9.77715        0.754062 
         4.6496          9.7276        0.747614 
        4.66532         9.63154        0.741231 
        4.68103         9.57002        0.734926 
        4.69673         9.48252          0.7287 
        4.71241         9.40052        0.722552 
        4.72811         9.31278        0.716465 
        4.74384         9.28217         0.71044 
        4.75955         9.19809        0.704494 
        4.77525         9.10846        0.698619 
        4.79096         9.07809        0.692803 
        4.80669         8.98871        0.687051 
         4.8224         8.93108        0.681371 
        4.83809         8.85736        0.675761 
        4.85379          8.7848        0.670211 
         4.8695         8.72699        0.664719 
        4.88521         8.65496         0.65929 
        4.90093         8.57605        0.653921 
        4.91663         8.52563        0.648617 
        4.93234         8.47928        0.643366 
        4.94807          8.3773        0.638169 
        4.96377         8.31706         0.63304 
        4.97943         8.28256        0.627978 
        4.99514         8.22352        0.622958 
        5.01086         8.14443        0.617989 
        5.02654         8.08593        0.613086 
        5.04227          8.0469        0.608223 
          5.058         7.95524         0.60341 
        5.07371         7.90591        0.598659 
        5.08942         7.86621        0.593957 
        5.10513         7.79467        0.589306 
        5.12084         7.73012        0.584703 
        5.13656         7.69794        0.580149 
        5.15225         7.63037        0.575652 
        5.16796         7.57382        0.571195 
        5.18369         7.51787        0.566781 
         5.1994         7.42291        0.562422 
        5.21509          7.4069        0.558112 
        5.23079         7.34893        0.553843 
        5.24649         7.29288        0.549621 
        5.26217         7.22869        0.545447 
        5.27788         7.18525         0.54131 
        5.29359         7.13532        0.537215 
        5.30933         7.08352        0.533156 
        5.32504          7.0341        0.529146 
        5.34073         6.98974        0.525182 
        5.35646         6.92814         0.52125 
        5.37218         6.90043        0.517358 
        5.38789         6.83274        0.513512 
        5.40357         6.79371        0.509709 
        5.41929         6.73841        0.505937 
        5.43502         6.69211        0.502202 
         5.4507         6.66109        0.498513 
        5.46639         6.61358        0.494862 
        5.48212         6.56321        0.491238 
        5.49786         6.52143        0.487646 
        5.51353         6.45406        0.484108 
        5.52921         6.42396        0.480601 
        5.54495         6.37832        0.477119 
        5.56066         6.33481        0.473675 
        5.57637         6.26765        0.470265 
        5.59207          6.2495        0.466892 
        5.60778         6.18457        0.463551 
        5.62346         6.15315        0.460247 
        5.63916         6.11602        0.456972 
        5.65487         6.07817        0.453728 
         5.6706         6.02616        0.450511 
        5.68633          5.9882        0.447324 
        5.70203         5.95068        0.444174 
        5.71773         5.91501        0.441055 
        5.73344         5.86535        0.437965 
        5.74916         5.83307        0.434901 
        5.76486         5.79837        0.431871 
        5.78054         5.75653        0.428874 
        5.79626         5.71796        0.425897 
          5.812         5.67105        0.422946 
         5.8277         5.63881        0.420031 
        5.84339          5.5953        0.417143 
        5.85911         5.56457        0.414277 
        5.87484         5.52731        0.411439 
        5.89053         5.48367        0.408632 
        5.90623          5.4491        0.405851 
        5.92195         5.40484        0.403091 
        5.93767         5.37665        0.400357 
        5.95336         5.33696        0.397654 
        5.96905         5.32238        0.394977 
        5.98476          5.2803         0.39232 
        6.00048         5.24369        0.389687 
        6.01617         5.21769        0.387082 
        6.03185         5.18207        0.384503 
        6.04756         5.14518        0.381942 
        6.06331         5.10521        0.379399 
        6.07903         5.07839        0.376884 
        6.09473         5.04208        0.374395 
        6.11044         5.00668        0.371925 
        6.12616         4.98709        0.369478 
        6.14186         4.95015        0.367056 
        6.15755         4.91411        0.364655 
        6.17326         4.88446        0.362275 
        6.18898         4.85545        0.359914 
        6.20467         4.82643        0.357578 
        6.22036         4.78621        0.355264 
         6.2361         4.76573        0.352963 
         6.2518         4.73083        0.350687 
        6.26748         4.70546        0.348436 
        6.28319         4.67503        0.346198 
        6.29893         4.64941        0.343978 
        6.31463         4.62097        0.341781 
        6.33033         4.58712        0.339604 
        6.34604         4.56296        0.337445 
        6.36177         4.53416        0.335302 
        6.37747         4.50002        0.333182 
