# k  (h/Mpc)    Pcb(k)  (Mpc/h)^3    Pcb_linear(k) (Mpc/h)^3   ShotnoiseSubtracted = true
      0.0200456         6828.65         6945.91 
      0.0350414         4941.11         5049.44 
      0.0492313          3656.3         3668.83 
      0.0637834         3103.52         3049.87 
      0.0800726         2458.66          2420.6 
       0.096163         1730.36         1756.36 
       0.111083         1373.16         1400.92 
       0.126058         1258.56          1241.5 
       0.142273         1083.99         1051.82 
       0.158546         886.815         830.718 
        0.17375         717.412         699.879 
       0.188953         682.396         633.725 
       0.204907         637.862         560.717 
       0.220756         536.022         474.401 
        0.23588         469.237         412.688 
         0.2514         413.386         374.922 
       0.267535          393.61          339.24 
       0.283568         356.083         299.165 
       0.299022         328.323          266.54 
       0.314451         301.656           243.6 
       0.330372         279.437         223.475 
       0.346141         251.583         202.838 
       0.361624         239.564         184.352 
       0.377134         224.694         169.633 
       0.392932         206.372         156.958 
       0.408854         197.934         144.685 
       0.424564         189.645         133.358 
       0.440253         178.713         123.638 
       0.455999          168.18         115.187 
       0.471626         155.487          107.42 
        0.48727         150.969         100.154 
       0.502856         144.559         93.6272 
       0.518488         140.724         87.8034 
       0.534347         134.261         82.3893 
       0.550082          124.36         77.3972 
       0.565732         119.929         72.8302 
       0.581496         115.058         68.6473 
       0.597222         111.374         64.8112 
       0.612804         106.058         61.2838 
       0.628434         103.717         57.9959 
       0.644267         100.188          54.922 
       0.660051         97.7574          52.089 
       0.675724         94.3692          49.473 
       0.691403         91.5151         47.0345 
       0.707174         88.1636         44.7466 
       0.722871          86.381           42.62 
        0.73838         84.5458         40.6543 
       0.754018         80.4437         38.7978 
       0.769845         78.8883          37.037 
        0.78569         76.9137          35.384 
       0.801365         74.4223         33.8484 
       0.817031          72.075         32.4053 
       0.832809         71.2374         31.0376 
       0.848511         68.2302         29.7553 
       0.864097         66.5567         28.5547 
       0.879701         65.6838         27.4195 
       0.895507         64.5074         26.3328 
       0.911279          63.183         25.3076 
        0.92691         61.5551         24.3457 
       0.942635         59.5651         23.4288 
       0.958396         59.3351         22.5573 
       0.974128         57.7789         21.7319 
       0.989692         56.6137         20.9562 
        1.00528          55.471         20.2173 
        1.02113         54.0958         19.5027 
        1.03692         52.8194         18.8253 
        1.05264         52.4501         18.1834 
        1.06832         51.0619         17.5725 
        1.08405         50.4515         16.9882 
        1.09979         49.7594         16.4302 
        1.11537         47.8909         15.9029 
        1.13105         48.2309         15.3957 
        1.14679         47.2244         14.9088 
        1.16256         46.2819          14.442 
        1.17828         45.1875         13.9968 
        1.19395         44.6815          13.572 
         1.2097         43.9542         13.1627 
        1.22537         43.6803         12.7723 
          1.241         42.5524          12.399 
        1.25666         41.6749         12.0397 
        1.27241         41.3777          11.693 
        1.28819         40.2894         11.3594 
        1.30392         39.7895         11.0399 
        1.31957         39.5279         10.7341 
        1.33529         39.0781         10.4388 
        1.35108         38.5114         10.1535 
        1.36674         37.8249         9.88093 
         1.3824         36.9381         9.61864 
        1.39811         36.8583         9.36502 
        1.41389         36.2842         9.11961 
        1.42964         35.6492         8.88343 
        1.44531         35.3197         8.65679 
        1.46101         34.4926          8.4376 
        1.47667         34.4023         8.22667 
        1.49229         34.0632         8.02354 
        1.50793         33.4443         7.82705 
        1.52367         33.1116         7.63589 
        1.53953         32.8602         7.44986 
        1.55526         32.1921         7.27152 
        1.57092         31.8619         7.09977 
        1.58662         31.4424         6.93317 
        1.60235         31.1305         6.77161 
        1.61809         30.6681         6.61513 
        1.63369         30.3062         6.46499 
        1.64941         29.8194         6.31845 
        1.66519         29.6039         6.17593 
        1.68085         29.2547         6.03884 
        1.69652         28.9204         5.90587 
        1.71228         28.6948         5.77616 
        1.72806         28.2117         5.65025 
        1.74368         27.8429         5.52936 
        1.75933         27.5438         5.41178 
        1.77505         27.4108         5.29707 
        1.79081         26.9423         5.18549 
         1.8065         26.7127         5.07761 
        1.82218         26.4652          4.9729 
        1.83797         26.0839         4.87043 
        1.85367          25.775         4.77141 
        1.86928         25.5454         4.67575 
        1.88497         25.1403          4.5822 
        1.90073         25.1536         4.49086 
        1.91647         24.7137          4.4021 
        1.93218         24.5193         4.31593 
        1.94787         24.2797          4.2322 
        1.96363         24.1004         4.15036 
        1.97935         23.8144         4.07085 
        1.99499         23.5279         3.99388 
        2.01064          23.374         3.91879 
         2.0264         22.9479         3.84517 
        2.04216         22.7689         3.77347 
        2.05781         22.5461         3.70406 
        2.07353         22.3339         3.63614 
        2.08928         22.2758         3.56979 
        2.10499         21.9802         3.50527 
        2.12065          21.601         3.44254 
        2.13633         21.5531         3.38129 
        2.15211         21.1461         3.32114 
        2.16785         21.0746         3.26262 
        2.18349         20.8769         3.20589 
        2.19916         20.6686         3.15038 
        2.21489         20.4324           3.096 
        2.23063         20.2797         3.04288 
         2.2463         20.1105         2.99123 
        2.26194         19.9767         2.94092 
        2.27765         19.6655         2.89151 
        2.29341         19.4361         2.84311 
        2.30914         19.3522         2.79591 
        2.32486          19.195         2.74981 
        2.34061         18.9861         2.70468 
        2.35635         18.7132          2.6606 
        2.37203         18.6197         2.61766 
        2.38768         18.4613         2.57575 
        2.40339         18.2682         2.53461 
        2.41914         18.0914         2.49428 
        2.43483          17.921         2.45496 
         2.4505         17.7213         2.41656 
        2.46622         17.5757         2.37885 
        2.48195         17.3999         2.34194 
        2.49759         17.2369         2.30601 
        2.51328         17.0922         2.27074 
        2.52906         16.9844         2.23599 
        2.54479         16.8018          2.2021 
        2.56049         16.6506         2.16897 
        2.57618         16.5315         2.13655 
        2.59189         16.3931         2.10475 
        2.60758         16.2482         2.07365 
        2.62325         16.1203         2.04321 
        2.63898         15.9551         2.01328 
        2.65468         15.8518         1.98401 
        2.67044         15.6609          1.9552 
        2.68618         15.5603         1.92702 
        2.70184         15.4233         1.89952 
        2.71755         15.2421         1.87248 
        2.73329         15.1447         1.84593 
        2.74897         14.9702         1.81998 
        2.76462         14.9921         1.79458 
        2.78034         14.7456         1.76957 
        2.79607         14.6098           1.745 
        2.81179         14.4983         1.72094 
        2.82749         14.3856         1.69735 
        2.84321         14.2382         1.67418 
        2.85893          14.137         1.65144 
        2.87462         14.0129         1.62917 
        2.89033         13.8452         1.60729 
        2.90605         13.7798         1.58579 
        2.92176         13.6358          1.5647 
        2.93747         13.5611           1.544 
        2.95318          13.395         1.52367 
        2.96891         13.2744          1.5037 
        2.98456         13.2045         1.48417 
        3.00023         13.0953         1.46496 
        3.01596         12.9868         1.44604 
        3.03164          12.877          1.4275 
        3.04738         12.7377         1.40923 
         3.0631         12.6574         1.39129 
        3.07883         12.5112         1.37366 
        3.09456         12.4473         1.35634 
        3.11026         12.2848         1.33934 
        3.12596         12.2428         1.32264 
        3.14163         12.1375         1.30626 
        3.15734         12.0154         1.29011 
        3.17308         11.9255         1.27421 
        3.18879         11.8769         1.25861 
        3.20447         11.7257          1.2433 
         3.2202         11.6292          1.2282 
         3.2359         11.5866         1.21337 
        3.25157         11.4804         1.19882 
        3.26729         11.3492         1.18447 
        3.28304          11.262         1.17032 
        3.29877         11.1599         1.15643 
        3.31446         11.0968         1.14279 
        3.33014         10.9863         1.12938 
        3.34585          10.937         1.11617 
        3.36158         10.8649         1.10315 
        3.37727         10.7404         1.09037 
        3.39294         10.6604         1.07781 
        3.40867         10.5457         1.06541 
        3.42439          10.475          1.0532 
        3.44008         10.4077         1.04121 
        3.45578         10.3254          1.0294 
        3.47153         10.2758         1.01774 
        3.48724         10.1814         1.00629 
        3.50292          10.076        0.995039 
        3.51859         10.0325        0.983965 
        3.53431         9.93523        0.973025 
        3.55007         9.86228        0.962225 
        3.56577         9.79589        0.951632 
        3.58146         9.72469        0.941202 
        3.59719         9.62393        0.930905 
        3.61292         9.54899        0.920765 
        3.62859         9.45946        0.910814 
        3.64429          9.4282        0.900991 
        3.66003         9.31851        0.891283 
        3.67578         9.23173        0.881722 
        3.69146          9.1992        0.872337 
        3.70712         9.12733        0.863105 
        3.72284         9.05539        0.853973 
        3.73853         8.97543        0.844989 
        3.75422         8.92962         0.83613 
        3.76993         8.84568        0.827391 
        3.78564         8.76367        0.818781 
        3.80137         8.71841        0.810279 
        3.81707         8.62479        0.801915 
        3.83279         8.58889        0.793662 
        3.84853         8.50645        0.785513 
        3.86424         8.43192        0.777494 
        3.87992         8.35328        0.769598 
        3.89561         8.32416        0.761812 
        3.91134         8.25984        0.754117 
        3.92704         8.18974        0.746538 
        3.94273         8.13499         0.73907 
        3.95845         8.08344        0.731691 
        3.97418         7.98475         0.72441 
        3.98988         7.94516        0.717239 
        4.00554         7.88004        0.710184 
        4.02125         7.82787        0.703204 
        4.03698         7.77653        0.696307 
        4.05268         7.72005        0.689518 
        4.06839         7.63931        0.682814 
         4.0841         7.59506        0.676202 
        4.09983         7.55721        0.669668 
        4.11555         7.49643        0.663223 
        4.13124         7.43775         0.65688 
        4.14693         7.36563        0.650615 
        4.16266         7.31447        0.644417 
        4.17839         7.26826        0.638303 
        4.19408         7.20209        0.632283 
        4.20977         7.15143        0.626337 
        4.22551         7.09207        0.620454 
        4.24123         7.03845        0.614652 
        4.25691          6.9796        0.608941 
        4.27259         6.94137          0.6033 
        4.28831          6.8848        0.597719 
        4.30404         6.83652        0.592203 
        4.31974          6.7809        0.586769 
        4.33543         6.73434        0.581406 
        4.35116         6.68297        0.576098 
        4.36688         6.62812        0.570857 
        4.38255         6.57898        0.565701 
        4.39825         6.51875        0.560598 
        4.41398         6.49284        0.555547 
         4.4297         6.45583        0.550565 
        4.44541         6.38455        0.545644 
        4.46111         6.37249        0.540786 
        4.47683         6.29194        0.535985 
        4.49251         6.27929        0.531251 
        4.50819         6.21125        0.526576 
         4.5239         6.16294        0.521951 
        4.53962         6.14052        0.517375 
        4.55535         6.07381        0.512851 
        4.57106         6.03384        0.508389 
        4.58678         5.99324        0.503978 
         4.6025         5.94717        0.499619 
        4.61821         5.90182        0.495312 
        4.63391         5.87121        0.491061 
         4.6496         5.81741        0.486862 
        4.66532         5.80235        0.482705 
        4.68103         5.72698        0.478599 
        4.69673         5.71704        0.474545 
        4.71241         5.66309        0.470541 
        4.72811         5.61648        0.466577 
        4.74384         5.57967        0.462653 
        4.75955         5.53913        0.458781 
        4.77525         5.51026        0.454955 
        4.79096         5.46821        0.451168 
        4.80669         5.43925        0.447422 
         4.8224         5.40412        0.443723 
        4.83809         5.35088         0.44007 
        4.85379         5.30054        0.436455 
         4.8695         5.28716        0.432879 
        4.88521         5.24968        0.429343 
        4.90093         5.19269        0.425847 
        4.91663         5.17709        0.422393 
        4.93234         5.14692        0.418973 
        4.94807         5.09416        0.415589 
        4.96377         5.06024        0.412249 
        4.97943         5.02149        0.408952 
        4.99514         4.98555        0.405683 
        5.01086         4.95691        0.402447 
        5.02654         4.93788        0.399255 
        5.04227         4.89352        0.396088 
          5.058         4.85863        0.392953 
        5.07371         4.83232        0.389859 
        5.08942         4.79715        0.386798 
        5.10513         4.77198        0.383769 
        5.12084         4.74374        0.380771 
        5.13656         4.70757        0.377805 
        5.15225         4.67635        0.374877 
        5.16796         4.64615        0.371974 
        5.18369          4.6043          0.3691 
         5.1994         4.58189        0.366261 
        5.21509          4.5458        0.363454 
        5.23079         4.52451        0.360674 
        5.24649         4.49015        0.357925 
        5.26217         4.45902        0.355206 
        5.27788         4.42791        0.352512 
        5.29359         4.39452        0.349845 
        5.30933          4.3739        0.347202 
        5.32504         4.34591        0.344591 
        5.34073         4.30917         0.34201 
        5.35646          4.2844        0.339449 
        5.37218         4.25339        0.336915 
        5.38789         4.23063         0.33441 
        5.40357          4.2029        0.331933 
        5.41929         4.17293        0.329477 
        5.43502         4.15902        0.327044 
         5.4507         4.11975        0.324642 
        5.46639          4.0959        0.322264 
        5.48212         4.07523        0.319904 
        5.49786         4.04772        0.317565 
        5.51353         4.01794        0.315261 
        5.52921         3.99458        0.312977 
        5.54495         3.96423         0.31071 
        5.56066         3.94811        0.308467 
        5.57637         3.91959        0.306247 
        5.59207         3.89412         0.30405 
        5.60778         3.87126        0.301874 
        5.62346         3.84029        0.299723 
        5.63916         3.82277         0.29759 
        5.65487         3.79486        0.295477 
         5.6706          3.7746        0.293382 
        5.68633         3.75165        0.291307 
        5.70203         3.72402        0.289256 
        5.71773         3.70733        0.287225 
        5.73344         3.68439        0.285212 
        5.74916         3.66039        0.283217 
        5.76486         3.64105        0.281243 
        5.78054         3.61626        0.279292 
        5.79626         3.59382        0.277353 
          5.812         3.57543        0.275431 
         5.8277         3.55551        0.273533 
        5.84339         3.52842        0.271652 
        5.85911         3.51261        0.269786 
        5.87484         3.48853        0.267938 
        5.89053         3.46968         0.26611 
        5.90623         3.44463        0.264299 
        5.92195         3.42446        0.262501 
        5.93767         3.40937        0.260721 
        5.95336         3.39265        0.258961 
        5.96905         3.36644        0.257217 
        5.98476         3.34499        0.255487 
        6.00048         3.32109        0.253772 
        6.01617         3.30625        0.252076 
        6.03185         3.28162        0.250397 
        6.04756         3.27263        0.248729 
        6.06331         3.24311        0.247073 
        6.07903         3.23016        0.245435 
        6.09473         3.21189        0.243814 
        6.11044         3.18988        0.242205 
        6.12616         3.17468        0.240612 
        6.14186         3.15861        0.239035 
        6.15755         3.13334        0.237471 
        6.17326         3.12309        0.235921 
        6.18898         3.09964        0.234383 
        6.20467         3.08233        0.232862 
        6.22036          3.0601        0.231355 
         6.2361         3.04739        0.229857 
         6.2518         3.03134        0.228375 
        6.26748         3.01255        0.226909 
        6.28319         2.99313        0.225451 
        6.29893         2.97855        0.224006 
        6.31463         2.96345        0.222575 
        6.33033         2.95353        0.221157 
        6.34604         2.92805        0.219751 
        6.36177         2.91027        0.218356 
        6.37747         2.89423        0.216975 
