# k  (h/Mpc)    Pcb(k)  (Mpc/h)^3    Pcb_linear(k) (Mpc/h)^3   ShotnoiseSubtracted = true
      0.0200456         3420.02         3472.98 
      0.0350414         2491.21         2524.74 
      0.0492313         1835.71         1834.43 
      0.0637834          1546.2         1524.94 
      0.0800726         1225.71         1210.31 
       0.096163         870.434         878.186 
       0.111083         690.409         700.464 
       0.126058         627.054         620.753 
       0.142273         537.458         525.915 
       0.158546         431.878         415.362 
        0.17375         353.348         349.942 
       0.188953         330.122         316.865 
       0.204907         305.477         280.361 
       0.220756         254.875         237.202 
        0.23588         222.293         206.345 
         0.2514         197.776         187.463 
       0.267535         183.965         169.622 
       0.283568         165.223         149.583 
       0.299022         150.583         133.271 
       0.314451         135.525         121.801 
       0.330372         126.026         111.738 
       0.346141         113.962          101.42 
       0.361624         106.484         92.1766 
       0.377134         100.193          84.817 
       0.392932         89.4464         78.4795 
       0.408854         86.0937          72.343 
       0.424564         81.6781         66.6796 
       0.440253         75.4791         61.8197 
       0.455999         71.0913         57.5938 
       0.471626         66.2198         53.7103 
        0.48727         63.5535         50.0775 
       0.502856         59.9164         46.8139 
       0.518488         57.3908          43.902 
       0.534347         55.1279          41.195 
       0.550082         50.5229         38.6989 
       0.565732         47.5229         36.4154 
       0.581496         46.2684         34.3239 
       0.597222         44.7475         32.4058 
       0.612804         41.9083         30.6421 
       0.628434         40.5654         28.9982 
       0.644267         39.4829         27.4612 
       0.660051         37.6376         26.0447 
       0.675724          35.754         24.7367 
       0.691403         34.6379         23.5174 
       0.707174         33.5604         22.3735 
       0.722871         32.2373         21.3102 
        0.73838         31.1665         20.3273 
       0.754018         29.8461          19.399 
       0.769845         29.0162         18.5187 
        0.78569         28.1056         17.6922 
       0.801365         27.0755         16.9243 
       0.817031         26.4265         16.2028 
       0.832809         25.8884         15.5189 
       0.848511          24.341         14.8778 
       0.864097         23.9275         14.2775 
       0.879701         23.3576         13.7098 
       0.895507         22.7437         13.1665 
       0.911279          22.059         12.6539 
        0.92691         21.5102          12.173 
       0.942635         20.6659         11.7145 
       0.958396         20.2883         11.2787 
       0.974128         19.6819         10.8661 
       0.989692         19.4903         10.4782 
        1.00528         18.9933         10.1087 
        1.02113         18.2205         9.75141 
        1.03692         17.8391         9.41274 
        1.05264         17.5108         9.09177 
        1.06832         17.0878         8.78633 
        1.08405          16.615         8.49417 
        1.09979         16.2802         8.21518 
        1.11537          15.979         7.95153 
        1.13105         15.6713         7.69792 
        1.14679         15.4365         7.45443 
        1.16256         14.8683         7.22105 
        1.17828         14.8498         6.99846 
        1.19395         14.3076         6.78604 
         1.2097         14.1552         6.58138 
        1.22537         13.7847         6.38619 
          1.241         13.5784         6.19953 
        1.25666         13.2708         6.01989 
        1.27241         12.9661         5.84655 
        1.28819         12.7252         5.67976 
        1.30392         12.6175         5.51999 
        1.31957         12.4006          5.3671 
        1.33529         12.1771         5.21945 
        1.35108         11.8738         5.07679 
        1.36674         11.7887          4.9405 
         1.3824         11.4714         4.80936 
        1.39811         11.3022         4.68255 
        1.41389         11.1469         4.55984 
        1.42964         11.0062         4.44175 
        1.44531         10.8535         4.32843 
        1.46101         10.5623         4.21883 
        1.47667         10.4533         4.11337 
        1.49229          10.317          4.0118 
        1.50793         10.1362         3.91355 
        1.52367         9.97093         3.81798 
        1.53953         9.82887         3.72496 
        1.55526         9.68916         3.63579 
        1.57092         9.56448         3.54991 
        1.58662            9.44         3.46661 
        1.60235         9.28414         3.38583 
        1.61809         9.16016         3.30759 
        1.63369         9.02603         3.23252 
        1.64941         8.88732         3.15925 
        1.66519         8.81797         3.08799 
        1.68085          8.6649         3.01944 
        1.69652         8.53627         2.95296 
        1.71228         8.41814          2.8881 
        1.72806          8.3644         2.82515 
        1.74368         8.20527          2.7647 
        1.75933         8.13276         2.70591 
        1.77505         8.02315         2.64856 
        1.79081          7.8727         2.59277 
         1.8065         7.83082         2.53882 
        1.82218          7.6947         2.48647 
        1.83797         7.64879         2.43523 
        1.85367         7.51401         2.38573 
        1.86928          7.5047         2.33789 
        1.88497          7.3266         2.29112 
        1.90073         7.27079         2.24545 
        1.91647          7.2182         2.20107 
        1.93218          7.1292         2.15798 
        1.94787         7.02357         2.11611 
        1.96363         6.96718         2.07519 
        1.97935         6.85119         2.03544 
        1.99499         6.76715         1.99696 
        2.01064         6.70916         1.95941 
         2.0264         6.64406          1.9226 
        2.04216         6.57295         1.88675 
        2.05781         6.48578         1.85204 
        2.07353         6.43435         1.81809 
        2.08928         6.37888         1.78491 
        2.10499         6.32991         1.75265 
        2.12065         6.23543         1.72128 
        2.13633         6.19486         1.69066 
        2.15211         6.09904         1.66058 
        2.16785          6.0415         1.63133 
        2.18349         5.98622         1.60296 
        2.19916         5.91899          1.5752 
        2.21489          5.8566         1.54801 
        2.23063         5.80708         1.52145 
         2.2463         5.74314         1.49563 
        2.26194         5.66943         1.47047 
        2.27765         5.65095         1.44577 
        2.29341         5.58016         1.42156 
        2.30914          5.5229         1.39797 
        2.32486         5.44984         1.37492 
        2.34061         5.43169         1.35235 
        2.35635         5.38573         1.33031 
        2.37203         5.33786         1.30884 
        2.38768          5.2708         1.28789 
        2.40339         5.22766         1.26732 
        2.41914           5.155         1.24715 
        2.43483         5.14921         1.22749 
         2.4505         5.07993         1.20829 
        2.46622          5.0451         1.18943 
        2.48195         4.98282         1.17098 
        2.49759         4.97275         1.15301 
        2.51328         4.91101         1.13538 
        2.52906          4.8925           1.118 
        2.54479         4.82198         1.10106 
        2.56049         4.79805         1.08449 
        2.57618         4.74231         1.06829 
        2.59189         4.70486         1.05238 
        2.60758         4.68408         1.03683 
        2.62325          4.6266         1.02161 
        2.63898         4.57268         1.00665 
        2.65468         4.54497        0.992012 
        2.67044         4.51041        0.977606 
        2.68618         4.48684        0.963519 
        2.70184         4.43363        0.949766 
        2.71755         4.40207        0.936247 
        2.73329         4.37594        0.922971 
        2.74897          4.3585        0.909995 
        2.76462         4.31601        0.897298 
        2.78034         4.25128        0.884791 
        2.79607         4.23217        0.872509 
        2.81179         4.21275        0.860474 
        2.82749         4.15088         0.84868 
        2.84321         4.15012        0.837094 
        2.85893         4.11021        0.825728 
        2.87462         4.07725        0.814592 
        2.89033         4.04691        0.803651 
        2.90605         4.01329        0.792902 
        2.92176         3.97043        0.782355 
        2.93747         3.94943        0.772006 
        2.95318         3.92354        0.761841 
        2.96891          3.9032        0.751855 
        2.98456         3.87086        0.742092 
        3.00023         3.82687        0.732488 
        3.01596         3.80934        0.723024 
        3.03164         3.79151        0.713755 
        3.04738         3.75564        0.704621 
         3.0631         3.72583         0.69565 
        3.07883         3.70621        0.686834 
        3.09456         3.67659        0.678173 
        3.11026         3.65653        0.669675 
        3.12596         3.61873        0.661323 
        3.14163         3.59101        0.653133 
        3.15734         3.56438        0.645062 
        3.17308          3.5505        0.637108 
        3.18879         3.52218        0.629311 
        3.20447         3.50791        0.621655 
         3.2202         3.46253        0.614102 
         3.2359         3.45948        0.606689 
        3.25157          3.4242        0.599416 
        3.26729         3.40393        0.592239 
        3.28304         3.38206        0.585167 
        3.29877         3.36549        0.578219 
        3.31446         3.32979        0.571399 
        3.33014         3.32077        0.564695 
        3.34585         3.29494        0.558088 
        3.36158         3.28022        0.551577 
        3.37727         3.24066         0.54519 
        3.39294         3.23648         0.53891 
        3.40867         3.20247        0.532707 
        3.42439         3.18448        0.526605 
        3.44008         3.16322         0.52061 
        3.45578         3.14626        0.514703 
        3.47153         3.12339        0.508876 
        3.48724         3.10761        0.503149 
        3.50292         3.09701        0.497523 
        3.51859         3.06676        0.491986 
        3.53431         3.04554        0.486516 
        3.55007         3.03451        0.481116 
        3.56577         3.01288         0.47582 
        3.58146         2.99884        0.470605 
        3.59719         2.97549        0.465456 
        3.61292         2.95893        0.460386 
        3.62859         2.93145        0.455411 
        3.64429         2.91346        0.450499 
        3.66003         2.91046        0.445645 
        3.67578         2.88845        0.440864 
        3.69146         2.86567        0.436172 
        3.70712         2.85181        0.431556 
        3.72284         2.82964         0.42699 
        3.73853          2.8174        0.422498 
        3.75422         2.79882        0.418068 
        3.76993         2.77082        0.413699 
        3.78564         2.76351        0.409394 
        3.80137         2.74921        0.405142 
        3.81707         2.72116        0.400961 
        3.83279         2.71228        0.396834 
        3.84853         2.70011        0.392759 
        3.86424         2.67823         0.38875 
        3.87992         2.66496        0.384802 
        3.89561         2.64271        0.380909 
        3.91134         2.63963        0.377061 
        3.92704         2.61927        0.373272 
        3.94273         2.60014        0.369538 
        3.95845         2.58877        0.365848 
        3.97418          2.5643        0.362208 
        3.98988         2.54967        0.358622 
        4.00554         2.52924        0.355095 
        4.02125         2.51767        0.351605 
        4.03698         2.50576        0.348156 
        4.05268         2.49151        0.344762 
        4.06839         2.47751         0.34141 
         4.0841         2.46153        0.338104 
        4.09983         2.43884        0.334837 
        4.11555         2.43085        0.331614 
        4.13124         2.41481        0.328443 
        4.14693         2.39411         0.32531 
        4.16266         2.38302        0.322211 
        4.17839         2.37012        0.319154 
        4.19408         2.35165        0.316144 
        4.20977         2.33489        0.313171 
        4.22551         2.32528        0.310229 
        4.24123         2.31313        0.307329 
        4.25691         2.29965        0.304473 
        4.27259         2.28182        0.301652 
        4.28831         2.27447        0.298862 
        4.30404         2.25905        0.296104 
        4.31974         2.24588        0.293387 
        4.33543         2.23131        0.290705 
        4.35116         2.21944        0.288051 
        4.36688         2.20942        0.285431 
        4.38255         2.19134        0.282853 
        4.39825         2.18334        0.280301 
        4.41398         2.16655        0.277776 
         4.4297         2.15536        0.275284 
        4.44541         2.14179        0.272824 
        4.46111         2.13217        0.270395 
        4.47683         2.11728        0.267994 
        4.49251          2.1091        0.265628 
        4.50819         2.09752         0.26329 
         4.5239         2.08585        0.260977 
        4.53962         2.07712        0.258689 
        4.55535         2.06312        0.256428 
        4.57106         2.05292        0.254196 
        4.58678         2.04372        0.251991 
         4.6025         2.03128        0.249811 
        4.61821         2.01639        0.247658 
        4.63391         2.00917        0.245532 
         4.6496         1.99808        0.243433 
        4.66532         1.98722        0.241355 
        4.68103         1.98037        0.239301 
        4.69673         1.96945        0.237274 
        4.71241          1.9549        0.235272 
        4.72811          1.9461         0.23329 
        4.74384         1.94066        0.231329 
        4.75955          1.9284        0.229392 
        4.77525         1.91974        0.227479 
        4.79096         1.90939        0.225586 
        4.80669         1.90268        0.223713 
         4.8224         1.88987        0.221863 
        4.83809         1.88453        0.220037 
        4.85379           1.871        0.218229 
         4.8695         1.86133        0.216441 
        4.88521         1.85392        0.214673 
        4.90093         1.84122        0.212925 
        4.91663          1.8343        0.211198 
        4.93234         1.82891        0.209488 
        4.94807         1.81818        0.207796 
        4.96377         1.80914        0.206126 
        4.97943         1.80351        0.204478 
        4.99514         1.79142        0.202843 
        5.01086          1.7846        0.201225 
        5.02654          1.7758        0.199629 
        5.04227         1.77126        0.198045 
          5.058         1.76172        0.196478 
        5.07371         1.75081        0.194931 
        5.08942         1.74587          0.1934 
        5.10513         1.73513        0.191886 
        5.12084         1.73047        0.190387 
        5.13656         1.71692        0.188904 
        5.15225         1.71436         0.18744 
        5.16796         1.70395        0.185988 
        5.18369         1.69656        0.184551 
         5.1994         1.69042        0.183132 
        5.21509         1.68396        0.181729 
        5.23079         1.67604        0.180338 
        5.24649          1.6678        0.178964 
        5.26217         1.66174        0.177605 
        5.27788         1.65147        0.176257 
        5.29359         1.65221        0.174924 
        5.30933         1.64194        0.173603 
        5.32504          1.6328        0.172297 
        5.34073         1.62833        0.171006 
        5.35646          1.6205        0.169726 
        5.37218         1.61345        0.168459 
        5.38789         1.61022        0.167206 
        5.40357         1.60235        0.165968 
        5.41929         1.59185         0.16474 
        5.43502         1.58761        0.163523 
         5.4507         1.57745        0.162322 
        5.46639         1.57798        0.161133 
        5.48212         1.56805        0.159953 
        5.49786         1.56182        0.158784 
        5.51353         1.55373        0.157632 
        5.52921         1.54669         0.15649 
        5.54495         1.54152        0.155356 
        5.56066         1.53581        0.154235 
        5.57637         1.52713        0.153125 
        5.59207         1.52201        0.152026 
        5.60778          1.5155        0.150938 
        5.62346         1.51407        0.149862 
        5.63916         1.50782        0.148796 
        5.65487          1.4998         0.14774 
         5.6706         1.49583        0.146692 
        5.68633         1.48794        0.145654 
        5.70203          1.4817        0.144629 
        5.71773         1.47625        0.143613 
        5.73344         1.46803        0.142607 
        5.74916         1.46266        0.141609 
        5.76486         1.45715        0.140623 
        5.78054         1.45574        0.139647 
        5.79626         1.44844        0.138678 
          5.812         1.44422        0.137717 
         5.8277         1.43601        0.136767 
        5.84339         1.43182        0.135827 
        5.85911         1.42944        0.134894 
        5.87484         1.42218         0.13397 
        5.89053         1.41823        0.133056 
        5.90623         1.41071         0.13215 
        5.92195         1.40748        0.131252 
        5.93767         1.40108        0.130362 
        5.95336         1.39495        0.129481 
        5.96905         1.38904         0.12861 
        5.98476          1.3866        0.127744 
        6.00048         1.38008        0.126887 
        6.01617         1.37725        0.126039 
        6.03185          1.3705        0.125199 
        6.04756         1.36668        0.124365 
        6.06331         1.36023        0.123537 
        6.07903         1.35656        0.122718 
        6.09473          1.3521        0.121908 
        6.11044         1.34781        0.121104 
        6.12616         1.34103        0.120307 
        6.14186         1.33591        0.119518 
        6.15755          1.3344        0.118737 
        6.17326         1.32747        0.117961 
        6.18898         1.32492        0.117193 
        6.20467         1.32124        0.116432 
        6.22036          1.3148        0.115678 
         6.2361         1.30993        0.114929 
         6.2518         1.30397        0.114188 
        6.26748         1.30319        0.113455 
        6.28319         1.29648        0.112727 
        6.29893         1.29201        0.112004 
        6.31463         1.28558        0.111288 
        6.33033         1.28649         0.11058 
        6.34604         1.27947        0.109876 
        6.36177          1.2747        0.109179 
        6.37747         1.27144        0.108488 
