# k  (h/Mpc)    Pcb(k)  (Mpc/h)^3    Pcb_linear(k) (Mpc/h)^3   ShotnoiseSubtracted = true
      0.0200456         21989.1         22514.5 
      0.0350414         15607.2         16367.3 
      0.0492313         11634.5         11892.2 
      0.0637834         10077.4         9885.84 
      0.0800726         7949.87         7846.15 
       0.096163         5509.34         5693.06 
       0.111083         4431.36         4540.93 
       0.126058         4079.22         4024.19 
       0.142273         3532.61         3409.38 
       0.158546         3096.71         2692.69 
        0.17375         2477.78         2268.59 
       0.188953         2423.41         2054.16 
       0.204907         2276.45         1817.51 
       0.220756          1973.9         1537.72 
        0.23588         1765.12         1337.69 
         0.2514         1536.82         1215.27 
       0.267535         1537.13         1099.61 
       0.283568         1393.27         969.713 
       0.299022          1318.3         863.964 
       0.314451         1256.01         789.604 
       0.330372         1151.75         724.373 
       0.346141         1103.75         657.479 
       0.361624         1060.22         597.558 
       0.377134         987.158         549.848 
       0.392932         946.724         508.764 
       0.408854         929.113         468.982 
       0.424564         858.428         432.267 
       0.440253         842.935         400.762 
       0.455999         813.243         373.367 
       0.471626         783.165         348.191 
        0.48727           750.4          324.64 
       0.502856         728.874         303.483 
       0.518488         721.455         284.606 
       0.534347         676.164         267.057 
       0.550082         659.227         250.876 
       0.565732         655.554         236.072 
       0.581496         619.122         222.514 
       0.597222         606.726         210.079 
       0.612804         595.359         198.645 
       0.628434         578.267         187.988 
       0.644267         562.854         178.024 
       0.660051          546.08         168.841 
       0.675724         540.374         160.362 
       0.691403         522.201         152.458 
       0.707174         504.905         145.042 
       0.722871         498.624         138.149 
        0.73838         489.215         131.777 
       0.754018         478.269         125.759 
       0.769845         469.287         120.052 
        0.78569         460.637         114.694 
       0.801365         448.787         109.716 
       0.817031         436.304         105.039 
       0.832809         432.587         100.605 
       0.848511         422.849         96.4491 
       0.864097         410.038         92.5572 
       0.879701          404.52         88.8775 
       0.895507         401.795         85.3553 
       0.911279         389.815         82.0322 
        0.92691         384.316         78.9144 
       0.942635          374.69         75.9421 
       0.958396         365.265         73.1173 
       0.974128         359.728          70.442 
       0.989692         357.163         67.9275 
        1.00528         347.191         65.5325 
        1.02113         345.388          63.216 
        1.03692         335.138         61.0205 
        1.05264         333.026         58.9397 
        1.06832         323.643         56.9596 
        1.08405         319.368         55.0656 
        1.09979           313.7          53.257 
        1.11537         307.861         51.5478 
        1.13105         302.588         49.9037 
        1.14679         295.171         48.3253 
        1.16256         289.679         46.8123 
        1.17828         288.707         45.3693 
        1.19395         281.227         43.9922 
         1.2097         277.443         42.6655 
        1.22537         271.453         41.4001 
          1.241         269.277           40.19 
        1.25666         264.234         39.0254 
        1.27241         260.344         37.9017 
        1.28819         256.188         36.8205 
        1.30392         250.137         35.7848 
        1.31957         249.779         34.7936 
        1.33529         244.546         33.8364 
        1.35108         239.091         32.9116 
        1.36674         235.806         32.0281 
         1.3824         234.411         31.1779 
        1.39811         230.261         30.3558 
        1.41389         227.322         29.5603 
        1.42964         224.684         28.7948 
        1.44531          221.03         28.0601 
        1.46101         217.211         27.3497 
        1.47667         214.382         26.6659 
        1.49229         212.176         26.0075 
        1.50793         206.773         25.3706 
        1.52367          205.49          24.751 
        1.53953         202.275          24.148 
        1.55526         197.761         23.5699 
        1.57092         196.468         23.0132 
        1.58662          194.06         22.4732 
        1.60235         190.481         21.9495 
        1.61809         188.693         21.4423 
        1.63369         185.627         20.9556 
        1.64941         181.792         20.4806 
        1.66519         180.659         20.0187 
        1.68085         177.913         19.5743 
        1.69652         175.191         19.1433 
        1.71228         171.406         18.7229 
        1.72806         169.804         18.3147 
        1.74368         167.322         17.9229 
        1.75933         164.396         17.5418 
        1.77505         163.288         17.1699 
        1.79081           161.5         16.8083 
         1.8065         158.549         16.4586 
        1.82218         156.763         16.1192 
        1.83797         155.183          15.787 
        1.85367         152.605         15.4661 
        1.86928         149.976          15.156 
        1.88497         148.208         14.8527 
        1.90073         146.782         14.5567 
        1.91647         145.004          14.269 
        1.93218         143.206         13.9897 
        1.94787         140.198         13.7183 
        1.96363         138.303          13.453 
        1.97935         137.551         13.1953 
        1.99499         134.961         12.9458 
        2.01064         133.545         12.7024 
         2.0264         131.976         12.4637 
        2.04216         130.144         12.2313 
        2.05781          128.78         12.0063 
        2.07353         127.334         11.7862 
        2.08928         124.933         11.5711 
        2.10499         123.864          11.362 
        2.12065         121.611         11.1587 
        2.13633         120.716         10.9601 
        2.15211         118.324         10.7652 
        2.16785         117.059         10.5755 
        2.18349         116.051         10.3916 
        2.19916         114.489         10.2116 
        2.21489         113.217         10.0354 
        2.23063         111.076         9.86318 
         2.2463         110.038         9.69579 
        2.26194         108.225         9.53271 
        2.27765          107.31         9.37255 
        2.29341         105.919         9.21565 
        2.30914         104.963         9.06267 
        2.32486         103.331         8.91325 
        2.34061          102.17         8.76695 
        2.35635         100.901         8.62408 
        2.37203         99.6562         8.48488 
        2.38768         98.3395         8.34905 
        2.40339         97.2908          8.2157 
        2.41914         95.9341         8.08495 
        2.43483         94.9811         7.95751 
         2.4505         93.9398         7.83304 
        2.46622         92.8257          7.7108 
        2.48195         91.5218         7.59117 
        2.49759         90.2221         7.47471 
        2.51328         89.8608          7.3604 
        2.52906         88.2968         7.24775 
        2.54479         87.4335         7.13788 
        2.56049          86.359         7.03051 
        2.57618         85.3131         6.92543 
        2.59189         84.3787         6.82235 
        2.60758         83.4323         6.72153 
        2.62325         82.3657         6.62287 
        2.63898         81.2249         6.52585 
        2.65468         80.3597         6.43097 
        2.67044         79.6719         6.33758 
        2.68618         78.6528         6.24626 
        2.70184         78.2237          6.1571 
        2.71755         76.8621         6.06946 
        2.73329         76.2494         5.98339 
        2.74897         75.3413         5.89928 
        2.76462         74.2089         5.81696 
        2.78034         73.7025         5.73588 
        2.79607         72.3191         5.65626 
        2.81179         71.6333         5.57824 
        2.82749         70.8607         5.50179 
        2.84321         70.3011         5.42668 
        2.85893         69.4916         5.35299 
        2.87462         68.5626          5.2808 
        2.89033         67.6737         5.20987 
        2.90605         67.0136         5.14019 
        2.92176         66.1949         5.07182 
        2.93747         65.8077         5.00472 
        2.95318         64.7959         4.93883 
        2.96891         64.3806         4.87409 
        2.98456         63.6932          4.8108 
        3.00023         62.7583         4.74854 
        3.01596         62.1252         4.68719 
        3.03164         61.3593          4.6271 
        3.04738         60.7874         4.56788 
         3.0631         60.1108         4.50973 
        3.07883         59.6148         4.45258 
        3.09456         58.9743         4.39643 
        3.11026         58.1798         4.34134 
        3.12596         57.5341         4.28719 
        3.14163         57.0793          4.2341 
        3.15734         56.3663         4.18178 
        3.17308         55.6723         4.13022 
        3.18879         55.3439         4.07967 
        3.20447         54.5186         4.03003 
         3.2202         54.1859         3.98108 
         3.2359         53.4279         3.93302 
        3.25157         52.8754         3.88586 
        3.26729         52.5028         3.83934 
        3.28304         52.0983         3.79349 
        3.29877         51.4295         3.74845 
        3.31446         50.5664         3.70424 
        3.33014         50.3702         3.66078 
        3.34585         49.7118         3.61795 
        3.36158         49.2917         3.57574 
        3.37727         48.8652         3.53433 
        3.39294         48.3187         3.49362 
        3.40867         47.7901         3.45341 
        3.42439         47.3787         3.41385 
        3.44008         46.8925         3.37498 
        3.45578          46.321          3.3367 
        3.47153         45.9137         3.29892 
        3.48724         45.4291         3.26179 
        3.50292         45.1792         3.22532 
        3.51859         44.5766         3.18943 
        3.53431         44.2771         3.15397 
        3.55007         43.6891         3.11896 
        3.56577         43.4199         3.08462 
        3.58146         42.8569         3.05081 
        3.59719         42.5178         3.01744 
        3.61292         42.0126         2.98457 
        3.62859         41.6544         2.95231 
        3.64429          41.253         2.92048 
        3.66003         40.9277         2.88901 
        3.67578         40.3875         2.85802 
        3.69146         40.1078         2.82759 
        3.70712          39.626         2.79767 
        3.72284         39.2363         2.76807 
        3.73853         38.9301         2.73895 
        3.75422         38.4054         2.71023 
        3.76993         38.1425         2.68191 
        3.78564         37.7667           2.654 
        3.80137         37.4242         2.62644 
        3.81707         37.0942         2.59933 
        3.83279         36.7809         2.57258 
        3.84853         36.4438         2.54616 
        3.86424         36.0527         2.52017 
        3.87992         35.8302         2.49458 
        3.89561         35.4692         2.46934 
        3.91134          35.032          2.4444 
        3.92704         34.8118         2.41983 
        3.94273          34.444         2.39562 
        3.95845         34.2971          2.3717 
        3.97418         33.9032         2.34811 
        3.98988         33.6205         2.32486 
        4.00554         33.2678         2.30199 
        4.02125         33.0461         2.27937 
        4.03698         32.6812         2.25701 
        4.05268         32.4297         2.23501 
        4.06839         32.0926         2.21328 
         4.0841           31.76         2.19184 
        4.09983         31.5124         2.17066 
        4.11555         31.2299         2.14977 
        4.13124          31.016         2.12921 
        4.14693         30.6902          2.1089 
        4.16266         30.4346         2.08881 
        4.17839         30.0858           2.069 
        4.19408         29.8635         2.04948 
        4.20977         29.5591         2.03021 
        4.22551         29.2804         2.01114 
        4.24123         29.1379         1.99234 
        4.25691         28.8824         1.97382 
        4.27259         28.5942         1.95554 
        4.28831         28.3245         1.93745 
        4.30404         28.1626         1.91957 
        4.31974         27.8288         1.90196 
        4.33543         27.5587         1.88457 
        4.35116         27.4254         1.86736 
        4.36688         27.1633         1.85038 
        4.38255         26.9127         1.83367 
        4.39825         26.6609         1.81712 
        4.41398         26.5167         1.80075 
         4.4297         26.1749          1.7846 
        4.44541         25.9895         1.76865 
        4.46111         25.7582         1.75291 
        4.47683         25.5933         1.73734 
        4.49251         25.3044           1.722 
        4.50819         25.1849         1.70685 
         4.5239         24.9609         1.69185 
        4.53962         24.7319         1.67702 
        4.55535         24.5817         1.66236 
        4.57106         24.2998         1.64789 
        4.58678         24.1389          1.6336 
         4.6025         23.8488         1.61947 
        4.61821         23.7245         1.60551 
        4.63391         23.5191         1.59173 
         4.6496         23.3356         1.57812 
        4.66532         23.1451         1.56464 
        4.68103         22.9448         1.55133 
        4.69673         22.7817         1.53819 
        4.71241         22.6413         1.52521 
        4.72811          22.368         1.51236 
        4.74384         22.2322         1.49965 
        4.75955         22.0742         1.48709 
        4.77525         21.8342         1.47469 
        4.79096         21.7159         1.46242 
        4.80669         21.5235         1.45028 
         4.8224         21.3844         1.43829 
        4.83809         21.1947         1.42644 
        4.85379         20.9696         1.41473 
         4.8695         20.8607         1.40313 
        4.88521         20.6714         1.39168 
        4.90093          20.458         1.38034 
        4.91663          20.345         1.36915 
        4.93234         20.2215         1.35806 
        4.94807         19.9806         1.34709 
        4.96377         19.8556         1.33626 
        4.97943         19.7253         1.32558 
        4.99514         19.5597         1.31498 
        5.01086         19.4351         1.30449 
        5.02654         19.2272         1.29415 
        5.04227         19.1415         1.28388 
          5.058         18.9569         1.27372 
        5.07371          18.808         1.26369 
        5.08942         18.6035         1.25377 
        5.10513         18.5306         1.24395 
        5.12084         18.3838         1.23423 
        5.13656         18.1953         1.22462 
        5.15225         18.0745         1.21513 
        5.16796         17.9689         1.20572 
        5.18369         17.7812          1.1964 
         5.1994         17.7066          1.1872 
        5.21509         17.5027          1.1781 
        5.23079         17.4318         1.16909 
        5.24649         17.2691         1.16018 
        5.26217         17.1865         1.15137 
        5.27788         17.0259         1.14263 
        5.29359         16.8761         1.13399 
        5.30933         16.7217         1.12542 
        5.32504         16.6351         1.11696 
        5.34073         16.4982         1.10859 
        5.35646         16.3732         1.10029 
        5.37218         16.2566         1.09208 
        5.38789         16.1357         1.08396 
        5.40357         16.0079         1.07593 
        5.41929         15.8995         1.06797 
        5.43502         15.7754         1.06008 
         5.4507         15.6723          1.0523 
        5.46639         15.5375         1.04459 
        5.48212         15.4468         1.03694 
        5.49786         15.2844         1.02936 
        5.51353         15.2008         1.02189 
        5.52921         15.0954         1.01449 
        5.54495         14.9977         1.00714 
        5.56066         14.8736        0.999866 
        5.57637          14.755        0.992669 
        5.59207         14.6494        0.985549 
        5.60778         14.5372        0.978496 
        5.62346         14.4747        0.971522 
        5.63916         14.3599        0.964609 
        5.65487         14.2319         0.95776 
         5.6706         14.1392        0.950969 
        5.68633         14.0303        0.944242 
        5.70203         13.9449        0.937594 
        5.71773          13.849         0.93101 
        5.73344         13.7151        0.924487 
        5.74916         13.6506        0.918019 
        5.76486         13.5686        0.911623 
        5.78054         13.4635        0.905297 
        5.79626         13.3612        0.899013 
          5.812         13.2737        0.892783 
         5.8277         13.1806         0.88663 
        5.84339         13.0618        0.880535 
        5.85911         12.9725        0.874485 
        5.87484         12.8701        0.868493 
        5.89053          12.801         0.86257 
        5.90623          12.715        0.856698 
        5.92195         12.6203        0.850872 
        5.93767         12.5206        0.845102 
        5.95336         12.4272        0.839396 
        5.96905          12.368        0.833744 
        5.98476         12.2564        0.828136 
        6.00048         12.1833        0.822578 
        6.01617         12.1001        0.817079 
        6.03185         12.0215        0.811636 
        6.04756         11.9239         0.80623 
        6.06331         11.8548        0.800862 
        6.07903         11.7758        0.795553 
        6.09473         11.6702        0.790298 
        6.11044         11.6168        0.785085 
        6.12616         11.5245        0.779921 
        6.14186         11.4493        0.774807 
        6.15755         11.3516         0.76974 
        6.17326          11.293        0.764714 
        6.18898         11.2269        0.759731 
        6.20467         11.1604        0.754801 
        6.22036         11.0573        0.749915 
         6.2361          10.992        0.745059 
         6.2518         10.9236        0.740254 
        6.26748         10.8637        0.735502 
        6.28319         10.7973        0.730779 
        6.29893         10.6965        0.726092 
        6.31463         10.6257        0.721455 
        6.33033         10.5531         0.71686 
        6.34604         10.5177        0.712302 
        6.36177         10.4191        0.707778 
        6.37747         10.3527        0.703303 
