# k  (h/Mpc)    Pcb(k)  (Mpc/h)^3    Pcb_linear(k) (Mpc/h)^3   ShotnoiseSubtracted = true
      0.0200456         3211.58          3253.5 
      0.0350414         2406.33         2365.18 
      0.0492313         1719.94          1718.5 
      0.0637834         1403.67         1428.57 
      0.0800726         1110.01         1133.82 
       0.096163         841.551         822.687 
       0.111083         678.347         656.196 
       0.126058         578.015         581.523 
       0.142273         490.346         492.678 
       0.158546         397.254         389.113 
        0.17375         341.166         327.827 
       0.188953         308.216          296.84 
       0.204907         263.054         262.643 
       0.220756         232.102         222.212 
        0.23588         203.342         193.305 
         0.2514           183.6         175.616 
       0.267535         171.324         158.902 
       0.283568         150.076          140.13 
       0.299022         138.081         124.849 
       0.314451         131.065         114.103 
       0.330372         116.241         104.677 
       0.346141          106.59         95.0103 
       0.361624         98.5412         86.3513 
       0.377134         90.0244         79.4568 
       0.392932         87.2908         73.5199 
       0.408854         80.4174         67.7711 
       0.424564         76.6574         62.4656 
       0.440253         69.8406         57.9128 
       0.455999         64.0725         53.9541 
       0.471626          60.969          50.316 
        0.48727          59.239         46.9127 
       0.502856          54.995         43.8554 
       0.518488         52.0116         41.1275 
       0.534347         49.0452         38.5915 
       0.550082         47.2216         36.2532 
       0.565732         45.5276          34.114 
       0.581496         42.5368         32.1547 
       0.597222         40.4847         30.3579 
       0.612804         38.7824         28.7056 
       0.628434         38.0329         27.1656 
       0.644267         35.9538         25.7258 
       0.660051         34.2835         24.3988 
       0.675724         32.8153         23.1734 
       0.691403         32.2259         22.0312 
       0.707174         30.9887         20.9595 
       0.722871         29.9462         19.9634 
        0.73838         28.4683         19.0427 
       0.754018         27.0146         18.1731 
       0.769845         26.4665         17.3483 
        0.78569         25.5639         16.5741 
       0.801365         24.7148         15.8548 
       0.817031         23.7768         15.1788 
       0.832809         23.2102         14.5382 
       0.848511         22.4445         13.9376 
       0.864097         21.7779         13.3752 
       0.879701         21.4266         12.8434 
       0.895507         20.6082         12.3344 
       0.911279         19.8198         11.8542 
        0.92691         19.4774         11.4037 
       0.942635         19.0273         10.9742 
       0.958396         18.4302          10.566 
       0.974128         17.9544         10.1794 
       0.989692         17.1913         9.81599 
        1.00528           17.08          9.4699 
        1.02113         16.5259         9.13515 
        1.03692         16.1701         8.81788 
        1.05264         15.8337          8.5172 
        1.06832         15.5125         8.23106 
        1.08405         15.0705         7.95737 
        1.09979         14.7415           7.696 
        1.11537         14.3473         7.44901 
        1.13105         14.1271         7.21143 
        1.14679         13.7886         6.98333 
        1.16256         13.5225          6.7647 
        1.17828         13.2504         6.55618 
        1.19395         13.0366         6.35718 
         1.2097         12.6481         6.16546 
        1.22537         12.4417          5.9826 
          1.241         12.1443         5.80773 
        1.25666         12.0525         5.63945 
        1.27241         11.8096         5.47706 
        1.28819         11.3395         5.32082 
        1.30392         11.3775         5.17114 
        1.31957         11.0647         5.02791 
        1.33529         10.9242          4.8896 
        1.35108         10.7252         4.75595 
        1.36674          10.475         4.62828 
         1.3824         10.3349         4.50542 
        1.39811         10.1633         4.38662 
        1.41389         9.96556         4.27167 
        1.42964         9.82827         4.16104 
        1.44531         9.65956         4.05488 
        1.46101         9.54049         3.95221 
        1.47667         9.36152         3.85341 
        1.49229         9.13681         3.75826 
        1.50793         9.05624         3.66623 
        1.52367         8.91581         3.57669 
        1.53953          8.7547         3.48955 
        1.55526         8.63822         3.40602 
        1.57092         8.54027         3.32557 
        1.58662         8.38797         3.24753 
        1.60235         8.29359         3.17186 
        1.61809         8.17723         3.09856 
        1.63369         8.01259         3.02823 
        1.64941         7.90531         2.95959 
        1.66519         7.80773         2.89284 
        1.68085         7.67338         2.82862 
        1.69652         7.62184         2.76634 
        1.71228         7.53259         2.70558 
        1.72806         7.38365          2.6466 
        1.74368         7.31494         2.58998 
        1.75933         7.22254          2.5349 
        1.77505         7.08765         2.48117 
        1.79081         7.03324         2.42891 
         1.8065         6.98064         2.37838 
        1.82218         6.87241         2.32933 
        1.83797         6.75363         2.28133 
        1.85367         6.67629         2.23495 
        1.86928         6.61056         2.19015 
        1.88497         6.52662         2.14632 
        1.90073         6.44033         2.10354 
        1.91647         6.31191         2.06197 
        1.93218         6.28436          2.0216 
        1.94787         6.19221         1.98238 
        1.96363         6.13613         1.94405 
        1.97935         6.10045         1.90681 
        1.99499         6.01096         1.87075 
        2.01064         5.93638         1.83558 
         2.0264         5.87898          1.8011 
        2.04216         5.83018         1.76751 
        2.05781         5.75827           1.735 
        2.07353         5.69072         1.70319 
        2.08928         5.59171         1.67211 
        2.10499         5.55223         1.64189 
        2.12065         5.55337          1.6125 
        2.13633         5.47064         1.58381 
        2.15211         5.39313         1.55564 
        2.16785          5.3175         1.52823 
        2.18349         5.31432         1.50165 
        2.19916         5.23966         1.47565 
        2.21489         5.18779         1.45018 
        2.23063         5.13468          1.4253 
         2.2463         5.06921         1.40111 
        2.26194         5.01351         1.37754 
        2.27765         4.95856          1.3544 
        2.29341         4.89672         1.33172 
        2.30914         4.88089         1.30962 
        2.32486         4.82379         1.28803 
        2.34061         4.78746         1.26689 
        2.35635         4.73449         1.24624 
        2.37203         4.70887         1.22612 
        2.38768         4.66939         1.20649 
        2.40339         4.60813         1.18722 
        2.41914         4.57406         1.16833 
        2.43483         4.52206         1.14992 
         2.4505         4.47738         1.13193 
        2.46622         4.44075         1.11426 
        2.48195         4.42783         1.09698 
        2.49759         4.35185         1.08015 
        2.51328         4.32957         1.06363 
        2.52906         4.28085         1.04735 
        2.54479         4.25064         1.03147 
        2.56049         4.21516         1.01596 
        2.57618         4.17923         1.00077 
        2.59189            4.18        0.985877 
        2.60758         4.12315        0.971308 
        2.62325         4.05395         0.95705 
        2.63898         4.05278         0.94303 
        2.65468         4.00505         0.92932 
        2.67044          3.9868        0.915824 
        2.68618         3.95419        0.902627 
        2.70184         3.92584        0.889743 
        2.71755         3.87306        0.877079 
        2.73329         3.85226        0.864642 
        2.74897         3.82091        0.852486 
        2.76462          3.7867        0.840592 
        2.78034         3.76511        0.828875 
        2.79607         3.72824        0.817369 
        2.81179         3.70059        0.806095 
        2.82749         3.66033        0.795046 
        2.84321         3.64678        0.784192 
        2.85893         3.61115        0.773544 
        2.87462         3.58868        0.763112 
        2.89033         3.57473        0.752863 
        2.90605         3.53789        0.742793 
        2.92176         3.49542        0.732913 
        2.93747         3.48135        0.723217 
        2.95318         3.44864        0.713695 
        2.96891         3.43552         0.70434 
        2.98456         3.40514        0.695194 
        3.00023         3.38903        0.686197 
        3.01596         3.35116        0.677331 
        3.03164          3.3269        0.668647 
        3.04738         3.31353        0.660091 
         3.0631         3.29133        0.651686 
        3.07883         3.26281        0.643428 
        3.09456         3.22677        0.635315 
        3.11026         3.21603        0.627353 
        3.12596          3.1958        0.619529 
        3.14163         3.17232        0.611856 
        3.15734         3.14609        0.604296 
        3.17308         3.12584        0.596845 
        3.18879         3.11137         0.58954 
        3.20447         3.08494        0.582368 
         3.2202         3.06629        0.575293 
         3.2359         3.04803        0.568348 
        3.25157         3.02645        0.561534 
        3.26729         3.00315        0.554812 
        3.28304         2.98176        0.548186 
        3.29877         2.95843        0.541677 
        3.31446         2.94516        0.535288 
        3.33014         2.92317        0.529007 
        3.34585         2.91132        0.522818 
        3.36158         2.88095        0.516719 
        3.37727         2.87433        0.510736 
        3.39294         2.85187        0.504853 
        3.40867         2.83649        0.499041 
        3.42439         2.80544        0.493325 
        3.44008         2.79319        0.487708 
        3.45578          2.7773        0.482176 
        3.47153         2.76143        0.476716 
        3.48724         2.74807        0.471351 
        3.50292         2.72404        0.466081 
        3.51859         2.70834        0.460894 
        3.53431         2.68818         0.45577 
        3.55007         2.68384        0.450711 
        3.56577         2.65639        0.445749 
        3.58146         2.64347        0.440864 
        3.59719         2.63409         0.43604 
        3.61292         2.61163        0.431291 
        3.62859          2.6014         0.42663 
        3.64429         2.57789        0.422029 
        3.66003          2.5681        0.417482 
        3.67578           2.552        0.413003 
        3.69146         2.52965        0.408607 
        3.70712         2.51864        0.404283 
        3.72284         2.50286        0.400005 
        3.73853         2.48968        0.395797 
        3.75422         2.47194        0.391648 
        3.76993         2.45579        0.387554 
        3.78564         2.43939        0.383521 
        3.80137         2.42515        0.379539 
        3.81707         2.41433        0.375621 
        3.83279         2.39959        0.371755 
        3.84853          2.3828        0.367938 
        3.86424         2.36658        0.364182 
        3.87992          2.3531        0.360484 
        3.89561         2.34238        0.356836 
        3.91134         2.32955        0.353232 
        3.92704         2.30932        0.349682 
        3.94273         2.29632        0.346184 
        3.95845         2.28413        0.342728 
        3.97418         2.27161        0.339317 
        3.98988         2.25976        0.335958 
        4.00554         2.24953        0.332654 
        4.02125         2.22738        0.329384 
        4.03698         2.22257        0.326154 
        4.05268         2.20241        0.322974 
        4.06839         2.19232        0.319834 
         4.0841         2.17606        0.316736 
        4.09983         2.15954        0.313676 
        4.11555         2.14971        0.310657 
        4.13124         2.13751        0.307686 
        4.14693         2.12185        0.304751 
        4.16266         2.11615        0.301848 
        4.17839         2.09884        0.298984 
        4.19408         2.08201        0.296164 
        4.20977         2.07075         0.29338 
        4.22551         2.06385        0.290624 
        4.24123         2.04964        0.287906 
        4.25691         2.03686        0.285231 
        4.27259         2.02166        0.282589 
        4.28831         2.01351        0.279975 
        4.30404         2.00323        0.277391 
        4.31974         1.99029        0.274846 
        4.33543           1.971        0.272334 
        4.35116         1.96862        0.269847 
        4.36688         1.95531        0.267392 
        4.38255         1.94738        0.264977 
        4.39825         1.93257        0.262587 
        4.41398         1.92264        0.260221 
         4.4297         1.91231        0.257887 
        4.44541         1.89659        0.255582 
        4.46111         1.89329        0.253307 
        4.47683         1.88318        0.251058 
        4.49251         1.86734        0.248841 
        4.50819         1.86023        0.246651 
         4.5239          1.8491        0.244484 
        4.53962         1.83974        0.242341 
        4.55535         1.83068        0.240222 
        4.57106            1.82        0.238132 
        4.58678         1.80701        0.236066 
         4.6025         1.79936        0.234024 
        4.61821         1.79461        0.232007 
        4.63391         1.78391        0.230015 
         4.6496          1.7742        0.228049 
        4.66532         1.76717        0.226102 
        4.68103         1.75257        0.224178 
        4.69673         1.74623        0.222279 
        4.71241         1.73889        0.220404 
        4.72811         1.73352        0.218547 
        4.74384           1.724        0.216709 
        4.75955         1.71535        0.214895 
        4.77525         1.70476        0.213103 
        4.79096         1.69432        0.211329 
        4.80669         1.68842        0.209575 
         4.8224         1.68265        0.207842 
        4.83809         1.67504        0.206131 
        4.85379         1.67057        0.204438 
         4.8695          1.6542        0.202763 
        4.88521         1.65164        0.201107 
        4.90093         1.64668        0.199469 
        4.91663         1.63486        0.197851 
        4.93234         1.63215        0.196249 
        4.94807         1.62132        0.194664 
        4.96377         1.61246        0.193099 
        4.97943         1.60698        0.191555 
        4.99514         1.59749        0.190024 
        5.01086         1.59039        0.188508 
        5.02654         1.58294        0.187013 
        5.04227         1.58005        0.185529 
          5.058         1.57243        0.184061 
        5.07371         1.56967        0.182612 
        5.08942         1.56131        0.181178 
        5.10513         1.55103        0.179759 
        5.12084         1.54379        0.178355 
        5.13656         1.53929        0.176966 
        5.15225         1.53279        0.175594 
        5.16796         1.52483        0.174235 
        5.18369         1.52062        0.172888 
         5.1994          1.5151        0.171558 
        5.21509          1.5073        0.170244 
        5.23079         1.50277        0.168942 
        5.24649         1.49798        0.167654 
        5.26217         1.49055         0.16638 
        5.27788         1.48042        0.165118 
        5.29359         1.47683        0.163869 
        5.30933         1.47273        0.162631 
        5.32504         1.46568        0.161408 
        5.34073          1.4567        0.160199 
        5.35646         1.45316           0.159 
        5.37218         1.44878        0.157812 
        5.38789         1.44051        0.156639 
        5.40357         1.43808        0.155479 
        5.41929         1.43293        0.154328 
        5.43502         1.42435        0.153189 
         5.4507          1.4194        0.152064 
        5.46639         1.41628         0.15095 
        5.48212         1.41012        0.149845 
        5.49786         1.40221        0.148749 
        5.51353         1.40065         0.14767 
        5.52921          1.3937          0.1466 
        5.54495          1.3908        0.145538 
        5.56066         1.38445        0.144487 
        5.57637         1.37816        0.143447 
        5.59207         1.37175        0.142419 
        5.60778         1.37171        0.141399 
        5.62346         1.36185        0.140392 
        5.63916         1.36158        0.139393 
        5.65487         1.35409        0.138403 
         5.6706         1.34781        0.137422 
        5.68633         1.34292        0.136449 
        5.70203          1.3408        0.135489 
        5.71773         1.33375        0.134537 
        5.73344         1.33306        0.133595 
        5.74916         1.32677         0.13266 
        5.76486         1.32019        0.131736 
        5.78054         1.31642        0.130822 
        5.79626         1.31383        0.129914 
          5.812         1.30855        0.129013 
         5.8277         1.30239        0.128124 
        5.84339         1.30016        0.127243 
        5.85911         1.29562        0.126369 
        5.87484         1.28805        0.125503 
        5.89053         1.28555        0.124647 
        5.90623         1.28319        0.123799 
        5.92195         1.27957        0.122957 
        5.93767          1.2722        0.122123 
        5.95336         1.26831        0.121298 
        5.96905         1.26131        0.120482 
        5.98476          1.2597        0.119671 
        6.00048          1.2569        0.118868 
        6.01617         1.24974        0.118074 
        6.03185         1.24804        0.117287 
        6.04756         1.24553        0.116506 
        6.06331          1.2404         0.11573 
        6.07903         1.23685        0.114963 
        6.09473          1.2321        0.114203 
        6.11044         1.22785         0.11345 
        6.12616         1.22224        0.112704 
        6.14186         1.21982        0.111965 
        6.15755         1.21771        0.111233 
        6.17326         1.21252        0.110506 
        6.18898         1.20927        0.109786 
        6.20467         1.20359        0.109074 
        6.22036         1.20225        0.108368 
         6.2361          1.1989        0.107666 
         6.2518          1.1965        0.106972 
        6.26748         1.18978        0.106285 
        6.28319         1.18805        0.105603 
        6.29893          1.1833        0.104925 
        6.31463         1.18054        0.104255 
        6.33033         1.17438        0.103591 
        6.34604         1.17237        0.102932 
        6.36177         1.16871        0.102279 
        6.37747         1.16594        0.101632 
