# k  (h/Mpc)    Pcb(k)  (Mpc/h)^3    Pcb_linear(k) (Mpc/h)^3   ShotnoiseSubtracted = true
      0.0200456         23058.1         23619.3 
      0.0350414         16348.9         17170.4 
      0.0492313         12190.7         12475.7 
      0.0637834         10570.7           10371 
      0.0800726         8336.78         8231.17 
       0.096163         5774.95         5972.43 
       0.111083         4651.25         4763.76 
       0.126058         4279.36         4221.66 
       0.142273         3706.63         3576.68 
       0.158546         3261.87         2824.83 
        0.17375         2611.78         2379.91 
       0.188953         2556.06         2154.96 
       0.204907         2400.64          1906.7 
       0.220756         2084.22         1613.18 
        0.23588         1866.95         1403.33 
         0.2514          1626.8         1274.91 
       0.267535         1628.73         1153.57 
       0.283568         1476.48          1017.3 
       0.299022         1398.55          906.36 
       0.314451         1332.33         828.351 
       0.330372         1220.69         759.919 
       0.346141         1176.12         689.743 
       0.361624         1129.72         626.882 
       0.377134          1052.9          576.83 
       0.392932         1008.58         533.729 
       0.408854         991.806         491.996 
       0.424564         914.905         453.479 
       0.440253         897.855         420.428 
       0.455999         869.878         391.688 
       0.471626          838.22         365.277 
        0.48727         803.235         340.571 
       0.502856         779.248         318.376 
       0.518488         772.479         298.572 
       0.534347         724.513         280.162 
       0.550082         708.081         263.186 
       0.565732         702.781         247.656 
       0.581496         664.966         233.433 
       0.597222         650.807         220.388 
       0.612804         639.816         208.393 
       0.628434         621.842         197.213 
       0.644267         605.322          186.76 
       0.660051         588.447         177.127 
       0.675724         581.677         168.231 
       0.691403         562.535         159.939 
       0.707174         543.987         152.159 
       0.722871         536.598         144.928 
        0.73838          526.26         138.243 
       0.754018         515.525          131.93 
       0.769845          506.27         125.943 
        0.78569         496.515         120.322 
       0.801365         483.715           115.1 
       0.817031          471.36         110.193 
       0.832809          466.78         105.542 
       0.848511         456.497         101.182 
       0.864097         442.145         97.0992 
       0.879701         436.145         93.2388 
       0.895507         433.921         89.5438 
       0.911279         421.695         86.0577 
        0.92691         415.539         82.7868 
       0.942635         404.704         79.6687 
       0.958396         394.437         76.7053 
       0.974128         388.923         73.8987 
       0.989692         386.494         71.2608 
        1.00528         374.892         68.7483 
        1.02113         372.974         66.3181 
        1.03692         362.287         64.0148 
        1.05264         359.506          61.832 
        1.06832         349.411         59.7547 
        1.08405         345.056         57.7678 
        1.09979         339.369         55.8704 
        1.11537          332.76         54.0773 
        1.13105         327.462         52.3526 
        1.14679         318.587         50.6967 
        1.16256         312.463         49.1094 
        1.17828         311.943         47.5956 
        1.19395         304.107          46.151 
         1.2097         298.697         44.7592 
        1.22537         292.702         43.4316 
          1.241         289.545         42.1622 
        1.25666         285.037         40.9405 
        1.27241         280.472         39.7616 
        1.28819         275.688         38.6273 
        1.30392         269.626         37.5408 
        1.31957         268.407         36.5009 
        1.33529         263.478         35.4968 
        1.35108         257.718         34.5266 
        1.36674          253.41         33.5997 
         1.3824         251.735         32.7078 
        1.39811         247.184         31.8454 
        1.41389         244.371         31.0109 
        1.42964         241.347         30.2078 
        1.44531          237.55         29.4371 
        1.46101         233.014         28.6917 
        1.47667         230.279         27.9745 
        1.49229         227.658         27.2837 
        1.50793         221.748         26.6156 
        1.52367          220.59         25.9656 
        1.53953         216.851          25.333 
        1.55526         212.674         24.7265 
        1.57092         210.858         24.1425 
        1.58662         208.344          23.576 
        1.60235         204.535         23.0266 
        1.61809          202.18         22.4945 
        1.63369          199.51          21.984 
        1.64941         195.456         21.4857 
        1.66519         193.839          21.001 
        1.68085         191.038         20.5348 
        1.69652         188.146         20.0827 
        1.71228         183.712         19.6416 
        1.72806         181.956         19.2135 
        1.74368         179.178         18.8024 
        1.75933         176.321         18.4026 
        1.77505         175.069         18.0125 
        1.79081         172.988         17.6331 
         1.8065         169.528         17.2662 
        1.82218         167.862         16.9102 
        1.83797         166.271         16.5617 
        1.85367         163.399          16.225 
        1.86928         160.596         15.8997 
        1.88497         158.671         15.5816 
        1.90073         156.835          15.271 
        1.91647         155.419         14.9692 
        1.93218         153.138         14.6762 
        1.94787         149.584         14.3914 
        1.96363         147.723         14.1131 
        1.97935         146.893         13.8428 
        1.99499         144.454          13.581 
        2.01064         142.632         13.3257 
         2.0264         141.236         13.0753 
        2.04216          139.16         12.8315 
        2.05781         137.386         12.5955 
        2.07353         135.964         12.3646 
        2.08928          133.54         12.1389 
        2.10499         132.323         11.9195 
        2.12065         129.964         11.7062 
        2.13633         128.534          11.498 
        2.15211         126.424         11.2934 
        2.16785         125.221         11.0944 
        2.18349         124.008         10.9015 
        2.19916         122.152         10.7127 
        2.21489         121.015         10.5278 
        2.23063         118.768         10.3472 
         2.2463         117.458         10.1716 
        2.26194          115.61         10.0005 
        2.27765         114.576         9.83247 
        2.29341          113.13         9.66787 
        2.30914         112.034         9.50739 
        2.32486          110.22         9.35064 
        2.34061         109.001         9.19716 
        2.35635         107.614         9.04727 
        2.37203         106.491         8.90125 
        2.38768         104.816         8.75875 
        2.40339         103.771         8.61885 
        2.41914         102.316         8.48169 
        2.43483          101.19           8.348 
         2.4505         100.144         8.21742 
        2.46622         98.9482         8.08918 
        2.48195         97.4519         7.96368 
        2.49759          96.278         7.84151 
        2.51328         95.6445         7.72158 
        2.52906         94.2041         7.60341 
        2.54479         93.2292         7.48815 
        2.56049         91.9577          7.3755 
        2.57618         91.0474         7.26527 
        2.59189         90.0815         7.15713 
        2.60758          88.889         7.05137 
        2.62325         87.6277         6.94786 
        2.63898         86.5872         6.84608 
        2.65468         85.6239         6.74655 
        2.67044         84.9709         6.64857 
        2.68618         83.9154         6.55277 
        2.70184         83.2972         6.45924 
        2.71755         81.8147          6.3673 
        2.73329         81.2283         6.27701 
        2.74897         80.2967         6.18876 
        2.76462         79.1516         6.10241 
        2.78034          78.505         6.01735 
        2.79607         77.1785         5.93382 
        2.81179         76.4629         5.85198 
        2.82749         75.6945         5.77177 
        2.84321         74.8947         5.69297 
        2.85893         74.1011         5.61567 
        2.87462         73.2377         5.53994 
        2.89033         72.2671         5.46553 
        2.90605         71.4866         5.39243 
        2.92176         70.5946          5.3207 
        2.93747         70.1614         5.25031 
        2.95318         69.1123         5.18118 
        2.96891         68.6532         5.11327 
        2.98456         67.8977         5.04687 
        3.00023         67.0432         4.98156 
        3.01596         66.1641          4.9172 
        3.03164         65.5824         4.85416 
        3.04738         64.7153         4.79204 
         3.0631         64.0281         4.73102 
        3.07883          63.627         4.67107 
        3.09456         63.0455         4.61217 
        3.11026         62.1346         4.55437 
        3.12596         61.3929         4.49757 
        3.14163         61.0124         4.44187 
        3.15734         60.0594         4.38699 
        3.17308         59.4515         4.33289 
        3.18879         58.9995         4.27986 
        3.20447         58.2643         4.22779 
         3.2202         57.8004         4.17643 
         3.2359         57.0176         4.12602 
        3.25157         56.4877         4.07655 
        3.26729         56.0288         4.02775 
        3.28304         55.5759         3.97964 
        3.29877         54.9012         3.93239 
        3.31446         54.0266         3.88601 
        3.33014         53.8185         3.84042 
        3.34585         53.0228         3.79548 
        3.36158         52.6632          3.7512 
        3.37727         52.2039         3.70777 
        3.39294         51.4169         3.66506 
        3.40867         51.0309         3.62287 
        3.42439         50.5982         3.58137 
        3.44008         50.0057          3.5406 
        3.45578         49.4591         3.50043 
        3.47153         48.9674          3.4608 
        3.48724         48.5634         3.42185 
        3.50292         48.1927         3.38359 
        3.51859         47.5764         3.34594 
        3.53431         47.2895         3.30874 
        3.55007         46.7162         3.27201 
        3.56577         46.3728         3.23599 
        3.58146         45.8374         3.20052 
        3.59719         45.3115         3.16551 
        3.61292         44.9086         3.13103 
        3.62859         44.4359         3.09719 
        3.64429         44.0045         3.06379 
        3.66003         43.6904         3.03078 
        3.67578         43.1939         2.99826 
        3.69146         42.7859         2.96635 
        3.70712         42.2989         2.93496 
        3.72284         41.9615          2.9039 
        3.73853         41.5413         2.87335 
        3.75422         41.0795         2.84323 
        3.76993         40.6526         2.81351 
        3.78564         40.3295         2.78423 
        3.80137         39.9462         2.75532 
        3.81707         39.5393         2.72688 
        3.83279         39.1688         2.69882 
        3.84853         38.9312         2.67111 
        3.86424         38.4464         2.64384 
        3.87992         38.1138         2.61699 
        3.89561         37.8205         2.59051 
        3.91134         37.3672         2.56435 
        3.92704         37.0072         2.53857 
        3.94273         36.7028         2.51318 
        3.95845         36.5107         2.48809 
        3.97418         36.1328         2.46333 
        3.98988         35.8342         2.43894 
        4.00554         35.4485         2.41496 
        4.02125         35.2038         2.39122 
        4.03698         34.7989         2.36777 
        4.05268         34.5587         2.34468 
        4.06839         34.2099         2.32189 
         4.0841         33.8836          2.2994 
        4.09983         33.6231         2.27718 
        4.11555         33.3216         2.25526 
        4.13124         33.0838          2.2337 
        4.14693         32.7664         2.21239 
        4.16266         32.4752         2.19132 
        4.17839          32.125         2.17053 
        4.19408         31.8438         2.15005 
        4.20977         31.6022         2.12984 
        4.22551         31.3002         2.10983 
        4.24123         31.0662          2.0901 
        4.25691         30.7876         2.07068 
        4.27259         30.4891          2.0515 
        4.28831         30.2264         2.03252 
        4.30404         29.9923         2.01377 
        4.31974         29.7257         1.99529 
        4.33543         29.3848         1.97705 
        4.35116         29.2429           1.959 
        4.36688         28.9544         1.94118 
        4.38255         28.7027         1.92365 
        4.39825         28.5024         1.90629 
        4.41398         28.2871         1.88912 
         4.4297         27.9518         1.87217 
        4.44541         27.7809         1.85544 
        4.46111         27.4882         1.83892 
        4.47683         27.2758          1.8226 
        4.49251         27.0021          1.8065 
        4.50819         26.8414          1.7906 
         4.5239         26.6448         1.77487 
        4.53962         26.3847         1.75931 
        4.55535         26.2163         1.74393 
        4.57106         25.9381         1.72876 
        4.58678         25.8001         1.71376 
         4.6025         25.4657         1.69894 
        4.61821         25.3447         1.68429 
        4.63391         25.1034         1.66984 
         4.6496         24.8842         1.65556 
        4.66532         24.6955         1.64142 
        4.68103          24.489         1.62746 
        4.69673         24.2845         1.61367 
        4.71241         24.1729         1.60006 
        4.72811         23.8713         1.58658 
        4.74384         23.7677         1.57324 
        4.75955            23.5         1.56007 
        4.77525          23.322         1.54706 
        4.79096         23.1666         1.53418 
        4.80669         22.9394         1.52144 
         4.8224          22.791         1.50886 
        4.83809           22.65         1.49644 
        4.85379         22.4264         1.48415 
         4.8695         22.2253         1.47199 
        4.88521         22.0358         1.45997 
        4.90093         21.8383         1.44808 
        4.91663          21.677         1.43633 
        4.93234         21.5115          1.4247 
        4.94807         21.3891          1.4132 
        4.96377         21.1895         1.40184 
        4.97943          20.976         1.39063 
        4.99514         20.8804         1.37951 
        5.01086         20.7181         1.36851 
        5.02654         20.5273         1.35765 
        5.04227         20.3953         1.34688 
          5.058         20.2522         1.33622 
        5.07371         20.0845          1.3257 
        5.08942         19.8642         1.31529 
        5.10513         19.7783         1.30499 
        5.12084         19.6365          1.2948 
        5.13656         19.4868         1.28471 
        5.15225         19.2982         1.27475 
        5.16796         19.1575         1.26488 
        5.18369         18.9772         1.25511 
         5.1994         18.8656         1.24546 
        5.21509         18.7262         1.23591 
        5.23079         18.5936         1.22646 
        5.24649         18.4773         1.21711 
        5.26217         18.3285         1.20787 
        5.27788         18.2045          1.1987 
        5.29359         18.0528         1.18964 
        5.30933         17.8443         1.18065 
        5.32504         17.7607         1.17177 
        5.34073         17.6346         1.16299 
        5.35646         17.4957         1.15428 
        5.37218         17.3575         1.14567 
        5.38789         17.2465         1.13715 
        5.40357         17.1182         1.12873 
        5.41929         16.9458         1.12037 
        5.43502         16.8887          1.1121 
         5.4507         16.7166         1.10393 
        5.46639         16.6016         1.09585 
        5.48212         16.5092         1.08782 
        5.49786         16.3512         1.07987 
        5.51353         16.2311         1.07203 
        5.52921         16.1366         1.06427 
        5.54495         16.0145         1.05656 
        5.56066         15.8938         1.04893 
        5.57637         15.7644         1.04138 
        5.59207         15.6489         1.03391 
        5.60778         15.4988         1.02651 
        5.62346         15.4331          1.0192 
        5.63916         15.3391         1.01194 
        5.65487         15.2187         1.00476 
         5.6706         15.1145        0.997635 
        5.68633         14.9999        0.990577 
        5.70203         14.8708        0.983603 
        5.71773         14.8031        0.976696 
        5.73344         14.6608        0.969853 
        5.74916         14.5789        0.963068 
        5.76486         14.4901        0.956357 
        5.78054         14.3708        0.949721 
        5.79626          14.248        0.943129 
          5.812         14.1942        0.936593 
         5.8277         14.0489        0.930138 
        5.84339          13.962        0.923744 
        5.85911         13.8862        0.917397 
        5.87484         13.7604        0.911112 
        5.89053         13.6598        0.904897 
        5.90623         13.5915        0.898738 
        5.92195         13.4861        0.892625 
        5.93767         13.3799        0.886573 
        5.95336         13.2952        0.880586 
        5.96905         13.2028        0.874657 
        5.98476          13.118        0.868774 
        6.00048         13.0059        0.862943 
        6.01617          12.945        0.857174 
        6.03185         12.8304        0.851464 
        6.04756         12.7335        0.845793 
        6.06331         12.6687        0.840161 
        6.07903         12.5789        0.834592 
        6.09473         12.4906        0.829079 
        6.11044         12.3883        0.823611 
        6.12616         12.3105        0.818192 
        6.14186         12.2047        0.812828 
        6.15755         12.1272        0.807512 
        6.17326         12.0683         0.80224 
        6.18898         11.9963        0.797012 
        6.20467          11.909         0.79184 
        6.22036         11.8322        0.786715 
         6.2361         11.7379         0.78162 
         6.2518          11.658         0.77658 
        6.26748          11.583        0.771594 
        6.28319         11.5011        0.766639 
        6.29893         11.4194        0.761723 
        6.31463         11.3468        0.756858 
        6.33033         11.2832        0.752037 
        6.34604         11.2119        0.747255 
        6.36177         11.1154         0.74251 
        6.37747         11.0584        0.737815 
