# k  (h/Mpc)    Pcb(k)  (Mpc/h)^3    Pcb_linear(k) (Mpc/h)^3   ShotnoiseSubtracted = true
      0.0200456         11912.6         12145.3 
      0.0350414         8554.08          8829.2 
      0.0492313         6352.71         6415.13 
      0.0637834         5437.16         5332.84 
      0.0800726         4301.36         4232.54 
       0.096163         3003.57         3071.08 
       0.111083         2390.83         2449.57 
       0.126058         2203.03         2170.82 
       0.142273         1903.46         1839.16 
       0.158546         1597.98         1452.55 
        0.17375         1281.26         1223.77 
       0.188953         1237.79          1108.1 
       0.204907         1162.54         980.442 
       0.220756         989.807         829.513 
        0.23588         872.258         721.605 
         0.2514         761.072          655.57 
       0.267535         743.331         593.179 
       0.283568          673.87         523.104 
       0.299022         628.972         466.059 
       0.314451         591.945         425.946 
       0.330372         545.751         390.758 
       0.346141         496.921         354.672 
       0.361624         477.804         322.348 
       0.377134         444.057         296.611 
       0.392932         422.225         274.449 
       0.408854         405.456         252.989 
       0.424564         384.538         233.183 
       0.440253         372.531         216.188 
       0.455999          350.61          201.41 
       0.471626         327.906         187.829 
        0.48727         317.986         175.125 
       0.502856         307.661         163.712 
       0.518488         304.245         153.529 
       0.534347         285.805         144.062 
       0.550082         269.452         135.333 
       0.565732         265.929         127.347 
       0.581496         251.869         120.033 
       0.597222         246.286         113.326 
       0.612804         237.846         107.158 
       0.628434         229.158         101.409 
       0.644267         221.891         96.0339 
       0.660051         218.893         91.0802 
       0.675724         214.353          86.506 
       0.691403         208.212         82.2421 
       0.707174         199.659         78.2416 
       0.722871         197.788         74.5232 
        0.73838         193.581         71.0861 
       0.754018         188.223         67.8399 
       0.769845          182.28         64.7611 
        0.78569         180.617         61.8708 
       0.801365         174.944         59.1856 
       0.817031         169.392         56.6623 
       0.832809         167.134         54.2708 
       0.848511         162.895         52.0287 
       0.864097         160.487         49.9293 
       0.879701         156.843         47.9443 
       0.895507         152.837         46.0443 
       0.911279          149.37         44.2517 
        0.92691         148.512         42.5698 
       0.942635         144.801         40.9664 
       0.958396         144.463         39.4426 
       0.974128         140.433         37.9994 
       0.989692         137.035         36.6429 
        1.00528         134.638          35.351 
        1.02113         133.849         34.1014 
        1.03692         128.873          32.917 
        1.05264         127.538         31.7946 
        1.06832         124.934         30.7264 
        1.08405          123.25         29.7047 
        1.09979         122.674         28.7291 
        1.11537         118.628         27.8071 
        1.13105         118.093         26.9202 
        1.14679          117.08         26.0687 
        1.16256         115.287         25.2525 
        1.17828         112.566         24.4741 
        1.19395         111.051         23.7313 
         1.2097         109.034         23.0156 
        1.22537         108.581          22.333 
          1.241         106.157         21.6802 
        1.25666         104.212          21.052 
        1.27241         102.772         20.4458 
        1.28819         101.328         19.8625 
        1.30392         100.016         19.3038 
        1.31957         98.6761         18.7691 
        1.33529          96.667         18.2528 
        1.35108         95.5692         17.7539 
        1.36674         94.6278         17.2773 
         1.3824         92.7782         16.8187 
        1.39811         91.8576         16.3752 
        1.41389         90.5091         15.9461 
        1.42964         89.1488         15.5331 
        1.44531         87.2176         15.1368 
        1.46101         86.3873         14.7536 
        1.47667         85.9052         14.3847 
        1.49229         84.2249         14.0296 
        1.50793         83.5944          13.686 
        1.52367         82.3335         13.3517 
        1.53953         81.0207         13.0264 
        1.55526         80.2882         12.7146 
        1.57092         79.7776         12.4143 
        1.58662         78.0109          12.123 
        1.60235         77.5782         11.8405 
        1.61809         76.3496         11.5669 
        1.63369         75.4509         11.3044 
        1.64941         74.7317         11.0481 
        1.66519         73.0141         10.7989 
        1.68085         72.5911         10.5592 
        1.69652         71.1514         10.3267 
        1.71228         70.9549         10.0999 
        1.72806         69.9157         9.87974 
        1.74368         69.0987         9.66836 
        1.75933         68.0765         9.46276 
        1.77505          67.573         9.26219 
        1.79081         66.4615         9.06709 
         1.8065          65.809         8.87845 
        1.82218         64.8514         8.69536 
        1.83797         64.2376         8.51618 
        1.85367         63.5066         8.34305 
        1.86928         63.1444         8.17579 
        1.88497         61.9801          8.0122 
        1.90073         61.0669         7.85249 
        1.91647         60.8077         7.69729 
        1.93218         59.9109         7.54662 
        1.94787         59.1682          7.4002 
        1.96363         58.3993          7.2571 
        1.97935          58.084         7.11809 
        1.99499         57.0738          6.9835 
        2.01064          56.845         6.85221 
         2.0264         55.5003         6.72347 
        2.04216         55.1691          6.5981 
        2.05781         54.5077         6.47673 
        2.07353          53.818         6.35798 
        2.08928          53.179         6.24195 
        2.10499         52.8073         6.12914 
        2.12065         52.1508         6.01945 
        2.13633         51.7644         5.91236 
        2.15211           51.43         5.80718 
        2.16785         50.5854         5.70486 
        2.18349         50.2074         5.60565 
        2.19916         49.5563         5.50859 
        2.21489         49.1297         5.41351 
        2.23063         48.5052         5.32062 
         2.2463          48.047         5.23032 
        2.26194          47.197         5.14235 
        2.27765          46.811         5.05595 
        2.29341         46.2618         4.97131 
        2.30914         45.6265         4.88879 
        2.32486         44.9558         4.80818 
        2.34061          44.699         4.72927 
        2.35635         44.1628         4.65219 
        2.37203         43.5999          4.5771 
        2.38768         43.2272         4.50383 
        2.40339         42.8151         4.43189 
        2.41914         42.4723         4.36136 
        2.43483         41.8968         4.29262 
         2.4505         41.5314         4.22547 
        2.46622          41.091         4.15953 
        2.48195         40.6012           4.095 
        2.49759         40.1035         4.03217 
        2.51328         39.5941         3.97051 
        2.52906         39.3187         3.90974 
        2.54479          38.771         3.85048 
        2.56049         38.2784         3.79255 
        2.57618         38.0061         3.73587 
        2.59189         37.5023         3.68027 
        2.60758         37.2787         3.62588 
        2.62325          36.791         3.57266 
        2.63898         36.3985         3.52032 
        2.65468         35.9466         3.46914 
        2.67044         35.5025         3.41876 
        2.68618         35.2857          3.3695 
        2.70184         34.8963          3.3214 
        2.71755         34.6533         3.27412 
        2.73329         34.1769          3.2277 
        2.74897         33.8312         3.18232 
        2.76462         33.3461         3.13792 
        2.78034         33.2354         3.09418 
        2.79607         32.8158         3.05123 
        2.81179         32.5147         3.00914 
        2.82749         32.1178          2.9679 
        2.84321         31.8061         2.92738 
        2.85893         31.4663         2.88763 
        2.87462         31.0947         2.84869 
        2.89033          30.793         2.81043 
        2.90605         30.6079         2.77284 
        2.92176         30.3311         2.73595 
        2.93747         30.0131         2.69976 
        2.95318         29.5975         2.66421 
        2.96891         29.3164         2.62929 
        2.98456           29.04         2.59515 
        3.00023         28.6901         2.56156 
        3.01596         28.4077         2.52847 
        3.03164         28.2918         2.49605 
        3.04738         27.9758         2.46411 
         3.0631         27.6944         2.43274 
        3.07883         27.3843         2.40191 
        3.09456         27.1146         2.37162 
        3.11026         26.8671          2.3419 
        3.12596         26.6514         2.31269 
        3.14163         26.3266         2.28405 
        3.15734         26.1003         2.25583 
        3.17308         25.7663         2.22801 
        3.18879         25.6184         2.20074 
        3.20447         25.3019         2.17397 
         3.2202         25.0672         2.14756 
         3.2359         24.7912         2.12164 
        3.25157         24.7232          2.0962 
        3.26729         24.4408          2.0711 
        3.28304         24.1456         2.04637 
        3.29877         23.8557         2.02207 
        3.31446         23.6636         1.99822 
        3.33014         23.4395         1.97478 
        3.34585         23.3082         1.95167 
        3.36158         22.9688          1.9289 
        3.37727         22.7268         1.90657 
        3.39294         22.6274         1.88461 
        3.40867         22.3645         1.86291 
        3.42439         22.1325         1.84157 
        3.44008         21.9568         1.82061 
        3.45578         21.8127         1.79996 
        3.47153         21.5001         1.77958 
        3.48724         21.3434         1.75955 
        3.50292         21.2111         1.73987 
        3.51859         20.9182         1.72051 
        3.53431         20.7442         1.70138 
        3.55007         20.5084          1.6825 
        3.56577         20.3098         1.66398 
        3.58146         20.2263         1.64574 
        3.59719         19.9352         1.62773 
        3.61292         19.8001            1.61 
        3.62859         19.5768          1.5926 
        3.64429         19.4153         1.57543 
        3.66003         19.2794         1.55845 
        3.67578         19.0243         1.54173 
        3.69146         18.9565         1.52532 
        3.70712         18.7413         1.50918 
        3.72284         18.6122         1.49321 
        3.73853         18.3831          1.4775 
        3.75422          18.207         1.46202 
        3.76993         18.0676         1.44674 
        3.78564         17.8806         1.43168 
        3.80137         17.7504         1.41681 
        3.81707         17.5724         1.40219 
        3.83279         17.4234         1.38776 
        3.84853         17.2505         1.37351 
        3.86424          17.102         1.35949 
        3.87992          16.964         1.34568 
        3.89561         16.7778         1.33207 
        3.91134          16.681         1.31861 
        3.92704         16.5254         1.30536 
        3.94273         16.3707          1.2923 
        3.95845         16.1876          1.2794 
        3.97418         16.1203         1.26667 
        3.98988         15.9275         1.25413 
        4.00554         15.7979         1.24179 
        4.02125         15.6793         1.22959 
        4.03698          15.544         1.21753 
        4.05268         15.3939         1.20566 
        4.06839         15.2452         1.19394 
         4.0841         15.1659         1.18237 
        4.09983         14.9686         1.17095 
        4.11555         14.8859         1.15968 
        4.13124         14.7602         1.14859 
        4.14693         14.6216         1.13763 
        4.16266         14.4934         1.12679 
        4.17839         14.3727         1.11611 
        4.19408         14.2191         1.10558 
        4.20977         14.1499         1.09518 
        4.22551         13.9989         1.08489 
        4.24123         13.9049         1.07475 
        4.25691         13.8147         1.06476 
        4.27259         13.6434          1.0549 
        4.28831         13.4958         1.04514 
        4.30404         13.4441          1.0355 
        4.31974          13.321           1.026 
        4.33543         13.2203         1.01662 
        4.35116            13.1         1.00734 
        4.36688          12.997        0.998172 
        4.38255         12.8618        0.989157 
        4.39825         12.7779        0.980234 
        4.41398         12.6876        0.971402 
         4.4297         12.5406        0.962689 
        4.44541         12.4626        0.954085 
        4.46111         12.3636        0.945592 
        4.47683         12.2619        0.937196 
        4.49251         12.1561        0.928919 
        4.50819         12.0652        0.920745 
         4.5239         11.9786        0.912657 
        4.53962         11.8772        0.904655 
        4.55535         11.7735        0.896746 
        4.57106         11.6566        0.888943 
        4.58678         11.5694        0.881231 
         4.6025         11.4771        0.873608 
        4.61821         11.3958        0.866077 
        4.63391         11.3138        0.858645 
         4.6496         11.2036        0.851302 
        4.66532          11.098        0.844034 
        4.68103         11.0068        0.836855 
        4.69673         10.9561        0.829765 
        4.71241         10.8394        0.822764 
        4.72811         10.7479        0.815833 
        4.74384         10.6871        0.808973 
        4.75955         10.5846        0.802201 
        4.77525         10.5084        0.795512 
        4.79096         10.4274         0.78889 
        4.80669         10.3655         0.78234 
         4.8224         10.2875        0.775872 
        4.83809         10.1978        0.769484 
        4.85379         10.1115        0.763164 
         4.8695         10.0755         0.75691 
        4.88521         9.94581        0.750728 
        4.90093         9.89171        0.744615 
        4.91663         9.79855        0.738575 
        4.93234         9.73252        0.732596 
        4.94807         9.65758        0.726678 
        4.96377         9.58382        0.720838 
        4.97943         9.51237        0.715073 
        4.99514         9.44724        0.709357 
        5.01086          9.3748        0.703699 
        5.02654         9.30998        0.698117 
        5.04227         9.23321        0.692579 
          5.058         9.14303        0.687098 
        5.07371         9.10295        0.681688 
        5.08942         9.03273        0.676335 
        5.10513         8.95966        0.671039 
        5.12084          8.8881        0.665797 
        5.13656         8.82777        0.660612 
        5.15225         8.76667         0.65549 
        5.16796          8.7025        0.650415 
        5.18369         8.64057        0.645389 
         5.1994         8.54573        0.640425 
        5.21509         8.51357        0.635518 
        5.23079          8.4424        0.630657 
        5.24649         8.37093         0.62585 
        5.26217         8.31891        0.621096 
        5.27788         8.24929        0.616385 
        5.29359          8.2013        0.611722 
        5.30933          8.1148        0.607101 
        5.32504         8.06744        0.602535 
        5.34073         8.02314        0.598021 
        5.35646         7.94727        0.593544 
        5.37218         7.89592        0.589112 
        5.38789         7.84893        0.584732 
        5.40357         7.79882        0.580402 
        5.41929         7.73531        0.576106 
        5.43502         7.66751        0.571853 
         5.4507         7.62231        0.567653 
        5.46639          7.5716        0.563495 
        5.48212         7.51801        0.559369 
        5.49786         7.47448        0.555279 
        5.51353         7.40488         0.55125 
        5.52921         7.36689        0.547257 
        5.54495         7.31499        0.543291 
        5.56066         7.25221         0.53937 
        5.57637          7.1946        0.535488 
        5.59207         7.15962        0.531647 
        5.60778         7.09567        0.527842 
        5.62346         7.04717         0.52408 
        5.63916         6.99819        0.520351 
        5.65487         6.95809        0.516656 
         5.6706         6.89249        0.512993 
        5.68633          6.8576        0.509364 
        5.70203         6.81276        0.505778 
        5.71773         6.75318        0.502226 
        5.73344         6.71488        0.498707 
        5.74916         6.68249        0.495218 
        5.76486         6.64153        0.491768 
        5.78054         6.57828        0.488355 
        5.79626         6.52705        0.484966 
          5.812         6.49144        0.481605 
         5.8277         6.45192        0.478286 
        5.84339         6.39931        0.474998 
        5.85911         6.36441        0.471734 
        5.87484         6.32012        0.468502 
        5.89053         6.27956        0.465307 
        5.90623         6.23094        0.462139 
        5.92195         6.18012        0.458996 
        5.93767         6.15606        0.455884 
        5.95336         6.10852        0.452806 
        5.96905          6.0635        0.449757 
        5.98476         6.02659        0.446732 
        6.00048         6.00015        0.443734 
        6.01617            5.95        0.440767 
        6.03185          5.9069        0.437831 
        6.04756         5.87475        0.434915 
        6.06331         5.83843        0.432019 
        6.07903         5.79647        0.429155 
        6.09473         5.75142         0.42632 
        6.11044          5.7119        0.423508 
        6.12616         5.68286        0.420722 
        6.14186         5.65622        0.417964 
        6.15755         5.61488         0.41523 
        6.17326         5.56321        0.412519 
        6.18898         5.52858        0.409831 
        6.20467         5.49724        0.407172 
        6.22036         5.47036        0.404536 
         6.2361         5.41988        0.401916 
         6.2518         5.39009        0.399324 
        6.26748         5.36427        0.396761 
        6.28319          5.3202        0.394213 
        6.29893         5.28728        0.391685 
        6.31463         5.26517        0.389183 
        6.33033          5.2228        0.386705 
        6.34604         5.19042        0.384246 
        6.36177         5.15823        0.381806 
        6.37747         5.13372        0.379391 
