# k  (h/Mpc)    Pcb(k)  (Mpc/h)^3    Pcb_linear(k) (Mpc/h)^3   ShotnoiseSubtracted = true
      0.0200456         703.371         712.403 
      0.0350414         523.383         517.893 
      0.0492313         377.671         376.291 
      0.0637834         310.291         312.807 
      0.0800726         245.693         248.267 
       0.096163         182.593          180.14 
       0.111083         146.301         143.684 
       0.126058         126.732         127.333 
       0.142273         107.095         107.879 
       0.158546         85.7132          85.202 
        0.17375         72.9165         71.7826 
       0.188953         65.4657         64.9976 
       0.204907         56.6641         57.5096 
       0.220756          49.033         48.6566 
        0.23588         42.7156          42.327 
         0.2514         38.7657         38.4537 
       0.267535         35.2943          34.794 
       0.283568         31.0949         30.6836 
       0.299022          27.892         27.3375 
       0.314451         25.9146         24.9846 
       0.330372         23.4619         22.9206 
       0.346141         21.3343         20.8039 
       0.361624         19.3851         18.9079 
       0.377134          17.767         17.3983 
       0.392932          16.925         16.0983 
       0.408854         15.2953         14.8395 
       0.424564         14.4437         13.6778 
       0.440253         13.2175         12.6809 
       0.455999         12.1392         11.8141 
       0.471626         11.3624         11.0174 
        0.48727          10.862         10.2722 
       0.502856         10.1734         9.60281 
       0.518488         9.37252         9.00549 
       0.534347         8.75879          8.4502 
       0.550082         8.38041         7.93819 
       0.565732         7.99428         7.46977 
       0.581496         7.49639         7.04076 
       0.597222         7.05969         6.64732 
       0.612804         6.65291         6.28553 
       0.628434         6.37926         5.94831 
       0.644267          6.0636         5.63304 
       0.660051          5.7431         5.34247 
       0.675724         5.41616         5.07417 
       0.691403         5.19858         4.82406 
       0.707174         4.94255          4.5894 
       0.722871         4.81702         4.37129 
        0.73838         4.49245         4.16968 
       0.754018         4.29119         3.97927 
       0.769845         4.06732         3.79868 
        0.78569         3.95733         3.62914 
       0.801365         3.78398         3.47164 
       0.817031         3.64741         3.32363 
       0.832809         3.45658         3.18335 
       0.848511          3.3487         3.05184 
       0.864097         3.22714         2.92869 
       0.879701         3.13035         2.81226 
       0.895507         2.97976         2.70081 
       0.911279         2.88162         2.59566 
        0.92691         2.79687           2.497 
       0.942635         2.65924         2.40296 
       0.958396         2.57475         2.31357 
       0.974128         2.49689         2.22892 
       0.989692         2.39358         2.14936 
        1.00528           2.321         2.07358 
        1.02113         2.25764         2.00028 
        1.03692         2.19502         1.93081 
        1.05264         2.09542         1.86497 
        1.06832         2.03981         1.80231 
        1.08405         1.96673         1.74238 
        1.09979         1.91974         1.68515 
        1.11537         1.85408         1.63107 
        1.13105         1.78412         1.57905 
        1.14679         1.74158         1.52911 
        1.16256         1.68528         1.48123 
        1.17828         1.65407         1.43557 
        1.19395         1.59378           1.392 
         1.2097         1.54625         1.35002 
        1.22537         1.49412         1.30998 
          1.241         1.46141         1.27169 
        1.25666         1.43344         1.23484 
        1.27241         1.39109         1.19928 
        1.28819         1.33998         1.16507 
        1.30392         1.30784          1.1323 
        1.31957         1.28084         1.10094 
        1.33529          1.2312         1.07065 
        1.35108         1.20642         1.04139 
        1.36674         1.17193         1.01343 
         1.3824         1.15587        0.986529 
        1.39811         1.12025        0.960517 
        1.41389         1.09212        0.935346 
        1.42964         1.06439        0.911123 
        1.44531          1.0422        0.887878 
        1.46101         1.01054        0.865397 
        1.47667        0.992757        0.843763 
        1.49229        0.958811        0.822928 
        1.50793        0.938991        0.802776 
        1.52367        0.915107         0.78317 
        1.53953        0.893229        0.764089 
        1.55526        0.881079        0.745798 
        1.57092        0.866139        0.728183 
        1.58662        0.850026        0.711096 
        1.60235        0.822202        0.694526 
        1.61809        0.804978        0.678476 
        1.63369        0.781647        0.663077 
        1.64941        0.770118        0.648047 
        1.66519        0.756791         0.63343 
        1.68085        0.735706        0.619369 
        1.69652        0.721045        0.605731 
        1.71228        0.704402        0.592428 
        1.72806        0.691199        0.579514 
        1.74368        0.677824        0.567115 
        1.75933        0.665512        0.555055 
        1.77505        0.653941         0.54329 
        1.79081        0.632673        0.531846 
         1.8065        0.627669        0.520782 
        1.82218        0.610125        0.510042 
        1.83797        0.595025        0.499532 
        1.85367        0.589319        0.489377 
        1.86928         0.57694        0.479565 
        1.88497         0.56225         0.46997 
        1.90073         0.55663        0.460602 
        1.91647         0.54213        0.451498 
        1.93218        0.533602         0.44266 
        1.94787        0.523503        0.434072 
        1.96363        0.514846        0.425678 
        1.97935        0.503711        0.417524 
        1.99499        0.495596         0.40963 
        2.01064        0.486878        0.401928 
         2.0264        0.474553        0.394377 
        2.04216        0.467752        0.387023 
        2.05781         0.46086        0.379904 
        2.07353        0.451743        0.372939 
        2.08928        0.444826        0.366133 
        2.10499        0.435771        0.359516 
        2.12065        0.428527        0.353082 
        2.13633        0.421949          0.3468 
        2.15211         0.41284        0.340631 
        2.16785        0.407594        0.334629 
        2.18349        0.400938        0.328809 
        2.19916        0.393534        0.323116 
        2.21489         0.38596        0.317539 
        2.23063        0.379259         0.31209 
         2.2463        0.374121        0.306794 
        2.26194         0.36889        0.301634 
        2.27765        0.361773        0.296566 
        2.29341        0.356149        0.291601 
        2.30914        0.348617        0.286761 
        2.32486        0.343894        0.282033 
        2.34061        0.337417        0.277404 
        2.35635        0.332904        0.272883 
        2.37203        0.329875        0.268478 
        2.38768        0.323508         0.26418 
        2.40339        0.318233        0.259961 
        2.41914        0.313899        0.255824 
        2.43483        0.308283        0.251791 
         2.4505        0.303776        0.247853 
        2.46622         0.29949        0.243985 
        2.48195        0.293601        0.240199 
        2.49759         0.29256        0.236514 
        2.51328        0.285363        0.232897 
        2.52906        0.280874        0.229333 
        2.54479        0.277148        0.225857 
        2.56049        0.272384        0.222459 
        2.57618        0.270146        0.219134 
        2.59189        0.264542        0.215873 
        2.60758         0.26258        0.212682 
        2.62325        0.258388        0.209561 
        2.63898        0.255552        0.206491 
        2.65468        0.249577        0.203489 
        2.67044        0.247009        0.200533 
        2.68618        0.243673        0.197644 
        2.70184        0.240222        0.194823 
        2.71755        0.236166         0.19205 
        2.73329         0.23503        0.189326 
        2.74897        0.229679        0.186665 
        2.76462        0.227686         0.18406 
        2.78034        0.223843        0.181495 
        2.79607        0.221808        0.178975 
        2.81179        0.216991        0.176507 
        2.82749        0.215489        0.174087 
        2.84321        0.212773        0.171711 
        2.85893        0.209466        0.169379 
        2.87462        0.206382        0.167095 
        2.89033        0.203997        0.164851 
        2.90605        0.201611        0.162646 
        2.92176        0.199994        0.160482 
        2.93747         0.19625        0.158359 
        2.95318        0.194083        0.156274 
        2.96891        0.191851        0.154226 
        2.98456        0.189998        0.152223 
        3.00023        0.186945        0.150253 
        3.01596        0.184513        0.148312 
        3.03164        0.182139         0.14641 
        3.04738        0.180555        0.144537 
         3.0631        0.178368        0.142697 
        3.07883        0.176026        0.140888 
        3.09456        0.173971        0.139112 
        3.11026        0.171342        0.137368 
        3.12596        0.169055        0.135655 
        3.14163        0.167732        0.133975 
        3.15734        0.166057         0.13232 
        3.17308        0.163861        0.130688 
        3.18879         0.16187        0.129089 
        3.20447        0.159678        0.127518 
         3.2202        0.158593        0.125969 
         3.2359        0.156308        0.124448 
        3.25157        0.154159        0.122956 
        3.26729        0.153107        0.121484 
        3.28304        0.151457        0.120034 
        3.29877        0.149325        0.118608 
        3.31446        0.148358        0.117209 
        3.33014        0.146537        0.115834 
        3.34585        0.144309        0.114479 
        3.36158        0.143104        0.113143 
        3.37727        0.142087        0.111833 
        3.39294        0.140561        0.110545 
        3.40867        0.138604        0.109273 
        3.42439        0.137619        0.108021 
        3.44008         0.13634        0.106791 
        3.45578        0.134676         0.10558 
        3.47153        0.133634        0.104384 
        3.48724         0.13224        0.103209 
        3.50292        0.131249        0.102055 
        3.51859        0.129619         0.10092 
        3.53431         0.12818       0.0997977 
        3.55007        0.127138         0.09869 
        3.56577        0.126361       0.0976035 
        3.58146        0.124803       0.0965337 
        3.59719        0.123565       0.0954776 
        3.61292        0.122543       0.0944376 
        3.62859        0.121599        0.093417 
        3.64429         0.11989       0.0924095 
        3.66003        0.119418       0.0914139 
        3.67578        0.118115       0.0904332 
        3.69146        0.117116       0.0894706 
        3.70712        0.116061       0.0885238 
        3.72284        0.115369       0.0875871 
        3.73853        0.114389       0.0866657 
        3.75422        0.113084       0.0857571 
        3.76993        0.112156       0.0848608 
        3.78564        0.111333       0.0839777 
        3.80137        0.110708       0.0831057 
        3.81707        0.109055       0.0822479 
        3.83279        0.108452       0.0814014 
        3.84853        0.107542       0.0805656 
        3.86424        0.106584       0.0797431 
        3.87992        0.105712       0.0789333 
        3.89561        0.104922       0.0781347 
        3.91134        0.103911       0.0773455 
        3.92704        0.102977       0.0765681 
        3.94273        0.102106       0.0758022 
        3.95845        0.100993       0.0750453 
        3.97418        0.100427       0.0742986 
        3.98988       0.0989615       0.0735631 
        4.00554       0.0984558       0.0728396 
        4.02125       0.0973082       0.0721237 
        4.03698       0.0958517       0.0714163 
        4.05268       0.0951626       0.0707199 
        4.06839       0.0937011       0.0700324 
         4.0841       0.0924805       0.0693542 
        4.09983       0.0914258        0.068684 
        4.11555       0.0901578        0.068023 
        4.13124       0.0890993       0.0673725 
        4.14693       0.0880309       0.0667299 
        4.16266       0.0869118       0.0660942 
        4.17839       0.0859492       0.0654671 
        4.19408        0.084795       0.0648497 
        4.20977       0.0840239       0.0642399 
        4.22551       0.0832204       0.0636365 
        4.24123       0.0821327       0.0630414 
        4.25691       0.0813715       0.0624556 
        4.27259       0.0805596        0.061877 
        4.28831       0.0800821       0.0613046 
        4.30404       0.0787448       0.0607389 
        4.31974       0.0782939       0.0601816 
        4.33543       0.0775884       0.0596315 
        4.35116       0.0770825       0.0590871 
        4.36688       0.0762643       0.0585496 
        4.38255       0.0757137       0.0580208 
        4.39825       0.0753074       0.0574974 
        4.41398       0.0745992       0.0569793 
         4.4297       0.0742048       0.0564683 
        4.44541       0.0736273       0.0559636 
        4.46111       0.0730794       0.0554654 
        4.47683       0.0726211       0.0549729 
        4.49251        0.072272       0.0544874 
        4.50819        0.072063       0.0540079 
         4.5239       0.0715093       0.0535335 
        4.53962        0.071159       0.0530642 
        4.55535        0.071086       0.0526003 
        4.57106       0.0706563       0.0521425 
        4.58678       0.0704764       0.0516902 
         4.6025       0.0702741       0.0512431 
        4.61821       0.0701483       0.0508013 
        4.63391       0.0699427       0.0503653 
         4.6496       0.0697671       0.0499347 
        4.66532       0.0696804       0.0495083 
        4.68103       0.0696365       0.0490872 
        4.69673       0.0694835       0.0486713 
        4.71241       0.0697873       0.0482607 
        4.72811        0.069502       0.0478541 
        4.74384       0.0693308       0.0474517 
        4.75955       0.0694263       0.0470546 
        4.77525       0.0696536       0.0466622 
        4.79096       0.0696898       0.0462737 
        4.80669       0.0695046       0.0458896 
         4.8224       0.0699055       0.0455102 
        4.83809       0.0699884       0.0451355 
        4.85379       0.0701429       0.0447648 
         4.8695        0.070414       0.0443979 
        4.88521       0.0706282       0.0440353 
        4.90093        0.071117       0.0436767 
        4.91663       0.0712234       0.0433224 
        4.93234       0.0714089       0.0429717 
        4.94807       0.0717729       0.0426246 
        4.96377       0.0721853        0.042282 
        4.97943       0.0729145       0.0419439 
        4.99514       0.0730484       0.0416086 
        5.01086         0.07327       0.0412767 
        5.02654       0.0741205       0.0409493 
        5.04227       0.0745217       0.0406244 
          5.058       0.0748388        0.040303 
        5.07371       0.0754939       0.0399856 
        5.08942       0.0763401       0.0396716 
        5.10513       0.0769552        0.039361 
        5.12084       0.0774962       0.0390535 
        5.13656       0.0780535       0.0387494 
        5.15225         0.07901        0.038449 
        5.16796       0.0797344       0.0381513 
        5.18369       0.0803952       0.0378565 
         5.1994       0.0811575       0.0375653 
        5.21509       0.0821132       0.0372775 
        5.23079       0.0828618       0.0369923 
        5.24649       0.0838403       0.0367103 
        5.26217       0.0848127       0.0364315 
        5.27788       0.0858085       0.0361552 
        5.29359       0.0868146       0.0358817 
        5.30933       0.0877704       0.0356106 
        5.32504       0.0889254       0.0353427 
        5.34073       0.0896862        0.035078 
        5.35646       0.0911381       0.0348154 
        5.37218       0.0923323       0.0345554 
        5.38789       0.0935722       0.0342985 
        5.40357       0.0944835       0.0340445 
        5.41929       0.0957542       0.0337925 
        5.43502       0.0975291       0.0335431 
         5.4507       0.0989211       0.0332967 
        5.46639        0.100066       0.0330528 
        5.48212        0.101396       0.0328108 
        5.49786        0.103158       0.0325709 
        5.51353        0.105336       0.0323345 
        5.52921         0.10583       0.0321003 
        5.54495        0.108387       0.0318677 
        5.56066        0.109718       0.0316377 
        5.57637        0.111305         0.03141 
        5.59207        0.112503       0.0311847 
        5.60778        0.114765       0.0309615 
        5.62346        0.116361       0.0307408 
        5.63916        0.118325       0.0305221 
        5.65487        0.120782       0.0303054 
         5.6706          0.1219       0.0300905 
        5.68633        0.124522       0.0298777 
        5.70203        0.126592       0.0296673 
        5.71773        0.128821        0.029459 
        5.73344        0.131257       0.0292526 
        5.74916        0.133692       0.0290479 
        5.76486         0.13566       0.0288455 
        5.78054        0.137602       0.0286454 
        5.79626        0.140606       0.0284465 
          5.812        0.142412       0.0282494 
         5.8277        0.144929       0.0280547 
        5.84339        0.147688       0.0278618 
        5.85911        0.149857       0.0276704 
        5.87484        0.152557       0.0274808 
        5.89053        0.154787       0.0272934 
        5.90623        0.159287       0.0271076 
        5.92195        0.160706       0.0269232 
        5.93767        0.163597       0.0267407 
        5.95336        0.166706       0.0265601 
        5.96905        0.169962       0.0263813 
        5.98476        0.171987       0.0262039 
        6.00048        0.175773        0.026028 
        6.01617        0.178635        0.025854 
        6.03185        0.181674       0.0256818 
        6.04756        0.184456       0.0255107 
        6.06331        0.189057       0.0253408 
        6.07903        0.192459       0.0251729 
        6.09473        0.194476       0.0250066 
        6.11044        0.200119       0.0248416 
        6.12616        0.200636       0.0246782 
        6.14186        0.205207       0.0245164 
        6.15755        0.209289       0.0243561 
        6.17326        0.213311       0.0241971 
        6.18898        0.216038       0.0240394 
        6.20467        0.219711       0.0238834 
        6.22036        0.222952       0.0237288 
         6.2361        0.225282       0.0235751 
         6.2518        0.230559       0.0234231 
        6.26748        0.235235       0.0232727 
        6.28319        0.239749       0.0231233 
        6.29893        0.243858        0.022975 
        6.31463        0.247578       0.0228283 
        6.33033        0.250216       0.0226829 
        6.34604        0.255611       0.0225386 
        6.36177        0.259174       0.0223955 
        6.37747        0.263162       0.0222539 
