# k  (h/Mpc)    Pcb(k)  (Mpc/h)^3    Pcb_linear(k) (Mpc/h)^3   ShotnoiseSubtracted = true
      0.0200456         3966.33         4023.31 
      0.0350414         2813.41          2851.7 
      0.0492313         2063.48         2062.82 
      0.0637834         1717.29         1690.97 
      0.0800726         1327.71         1305.77 
       0.096163         934.449         941.801 
       0.111083         748.075         759.255 
       0.126058         674.609         666.721 
       0.142273         565.793         549.524 
       0.158546         453.881         432.633 
        0.17375         374.559         369.992 
       0.188953          349.04         332.924 
       0.204907         317.922          287.82 
       0.220756         264.173         242.326 
        0.23588         231.869         213.293 
         0.2514         205.702         193.503 
       0.267535         189.782         172.218 
       0.283568         169.743          150.88 
       0.299022         155.313         135.293 
       0.314451         139.878         123.729 
       0.330372          129.29         112.371 
       0.346141         116.237         101.327 
       0.361624         108.868         92.2833 
       0.377134         102.291         84.9736 
       0.392932         91.2548         78.2047 
       0.408854         87.5071         71.7069 
       0.424564         83.0283          66.046 
       0.440253          76.794         61.2324 
       0.455999          72.067         56.8776 
       0.471626         66.9277         52.8399 
        0.48727         64.2108          49.177 
       0.502856         60.5822         45.9375 
       0.518488         57.9874         42.9963 
       0.534347         55.6185         40.2385 
       0.550082         50.8683         37.7241 
       0.565732          47.901          35.454 
       0.581496         46.4958          33.364 
       0.597222         44.8874         31.4376 
       0.612804         42.0563         29.6722 
       0.628434         40.7025          28.039 
       0.644267         39.5269         26.5146 
       0.660051         37.7167         25.1078 
       0.675724         35.7999         23.8102 
       0.691403         34.6576         22.6027 
       0.707174         33.5249         21.4715 
       0.722871         32.2125         20.4218 
        0.73838         31.1249         19.4529 
       0.754018         29.7416         18.5392 
       0.769845         28.9044         17.6738 
        0.78569         28.0002         16.8626 
       0.801365         26.9237           16.11 
       0.817031         26.2595         15.4037 
       0.832809         25.7112         14.7352 
       0.848511         24.1804         14.1093 
       0.864097         23.7421         13.5239 
       0.879701         23.1517         12.9711 
       0.895507         22.5865         12.4426 
       0.911279         21.8456         11.9446 
        0.92691         21.3127         11.4778 
       0.942635         20.4617         11.0334 
       0.958396         20.1107         10.6115 
       0.974128         19.4736         10.2124 
       0.989692         19.2467         9.83762 
        1.00528         18.7636         9.48107 
        1.02113         17.9977         9.13655 
        1.03692         17.6006         8.81036 
        1.05264         17.3014         8.50153 
        1.06832         16.8221         8.20793 
        1.08405         16.3821         7.92737 
        1.09979         16.0363         7.65971 
        1.11537         15.7125         7.40701 
        1.13105         15.4357         7.16416 
        1.14679         15.1971         6.93122 
        1.16256         14.6117         6.70815 
        1.17828         14.5668         6.49559 
        1.19395         14.0547         6.29291 
         1.2097         13.9174         6.09783 
        1.22537         13.5589         5.91192 
          1.241         13.3095         5.73429 
        1.25666          12.977         5.56348 
        1.27241         12.6988         5.39881 
        1.28819         12.4523          5.2405 
        1.30392         12.3389         5.08897 
        1.31957         12.1374         4.94408 
        1.33529         11.9051         4.80428 
        1.35108         11.6186         4.66931 
        1.36674         11.5033         4.54047 
         1.3824         11.2036         4.41659 
        1.39811          11.032         4.29689 
        1.41389         10.8844         4.18116 
        1.42964         10.7191         4.06987 
        1.44531         10.5873         3.96315 
        1.46101         10.2845         3.86002 
        1.47667         10.1753         3.76084 
        1.49229         10.0333          3.6654 
        1.50793         9.86816         3.57315 
        1.52367         9.69627         3.48347 
        1.53953         9.56343         3.39625 
        1.55526         9.41673         3.31269 
        1.57092          9.2608         3.23228 
        1.58662         9.16658         3.15434 
        1.60235         9.00263          3.0788 
        1.61809         8.88742         3.00569 
        1.63369         8.75427         2.93558 
        1.64941         8.59718          2.8672 
        1.66519         8.53533         2.80075 
        1.68085         8.38327         2.73686 
        1.69652          8.2628         2.67493 
        1.71228         8.13585         2.61456 
        1.72806          8.0788         2.55599 
        1.74368         7.92572          2.4998 
        1.75933         7.85039         2.44517 
        1.77505         7.74101         2.39192 
        1.79081         7.60299         2.34014 
         1.8065         7.54988         2.29012 
        1.82218         7.40806         2.24159 
        1.83797         7.35578         2.19412 
        1.85367         7.23162         2.14829 
        1.86928         7.22026         2.10403 
        1.88497         7.03983         2.06077 
        1.90073         7.00547         2.01857 
        1.91647         6.93561         1.97757 
        1.93218         6.85818         1.93779 
        1.94787         6.74288         1.89916 
        1.96363         6.68859         1.86143 
        1.97935         6.56881         1.82479 
        1.99499         6.48645         1.78934 
        2.01064         6.43113         1.75477 
         2.0264         6.36833         1.72089 
        2.04216         6.29053         1.68792 
        2.05781         6.20104         1.65602 
        2.07353         6.16019         1.62482 
        2.08928         6.09155         1.59436 
        2.10499          6.0482         1.56475 
        2.12065         5.94744         1.53597 
        2.13633         5.92041          1.5079 
        2.15211         5.82478         1.48034 
        2.16785         5.77116         1.45354 
        2.18349         5.71389         1.42756 
        2.19916         5.64942         1.40217 
        2.21489          5.5851          1.3773 
        2.23063          5.5327         1.35302 
         2.2463         5.46598         1.32943 
        2.26194         5.39876         1.30645 
        2.27765         5.37775          1.2839 
        2.29341         5.31272         1.26182 
        2.30914         5.24084          1.2403 
        2.32486          5.1782         1.21929 
        2.34061         5.14946         1.19872 
        2.35635          5.1166         1.17865 
        2.37203         5.06147         1.15911 
        2.38768         4.98949         1.14004 
        2.40339         4.95737         1.12133 
        2.41914         4.88414           1.103 
        2.43483          4.8701         1.08514 
         2.4505         4.81503          1.0677 
        2.46622         4.77436         1.05058 
        2.48195         4.70946         1.03384 
        2.49759         4.69629         1.01754 
        2.51328         4.64004         1.00155 
        2.52906         4.61586        0.985806 
        2.54479         4.55371        0.970454 
        2.56049         4.52773        0.955456 
        2.57618         4.48128        0.940786 
        2.59189         4.42483          0.9264 
        2.60758         4.41424        0.912336 
        2.62325          4.3527        0.898578 
        2.63898         4.30375        0.885055 
        2.65468         4.26685        0.871836 
        2.67044         4.24079        0.858829 
        2.68618         4.21247        0.846116 
        2.70184         4.16406        0.833708 
        2.71755         4.12849        0.821518 
        2.73329         4.10394         0.80955 
        2.74897         4.08537        0.797859 
        2.76462         4.04401        0.786422 
        2.78034         3.98214        0.775162 
        2.79607         3.96005        0.764108 
        2.81179         3.94074        0.753281 
        2.82749         3.88519        0.742674 
        2.84321         3.88529        0.732259 
        2.85893         3.84471        0.722045 
        2.87462         3.80273        0.712042 
        2.89033         3.77923        0.702218 
        2.90605         3.74335         0.69257 
        2.92176          3.7042        0.683106 
        2.93747         3.67977        0.673823 
        2.95318         3.65555         0.66471 
        2.96891         3.62759        0.655759 
        2.98456         3.60105        0.647012 
        3.00023         3.56032        0.638411 
        3.01596         3.54045        0.629938 
        3.03164         3.52774        0.621642 
        3.04738         3.49239         0.61347 
         3.0631         3.45894        0.605447 
        3.07883         3.43893        0.597566 
        3.09456         3.41513        0.589825 
        3.11026         3.38888        0.582233 
        3.12596         3.35833        0.574774 
        3.14163         3.32879        0.567462 
        3.15734         3.30542         0.56026 
        3.17308         3.28571        0.553164 
        3.18879         3.25812        0.546209 
        3.20447         3.24641        0.539384 
         3.2202         3.20331        0.532653 
         3.2359         3.19461        0.526048 
        3.25157         3.16336         0.51957 
        3.26729         3.14977         0.51318 
        3.28304         3.12267        0.506885 
        3.29877         3.10041        0.500703 
        3.31446         3.07277        0.494637 
        3.33014         3.06232        0.488676 
        3.34585         3.03831        0.482803 
        3.36158         3.01761        0.477018 
        3.37727         2.98938        0.471344 
        3.39294         2.98274        0.465768 
        3.40867         2.94856        0.460261 
        3.42439         2.93173        0.454845 
        3.44008         2.90945        0.449527 
        3.45578         2.88828        0.444289 
        3.47153         2.87095        0.439122 
        3.48724         2.85044        0.434046 
        3.50292         2.83799        0.429061 
        3.51859          2.8173        0.424157 
        3.53431         2.79161        0.419313 
        3.55007          2.7792        0.414533 
        3.56577         2.76391        0.409845 
        3.58146         2.74979        0.405231 
        3.59719         2.72771        0.400678 
        3.61292         2.70757        0.396195 
        3.62859         2.68166        0.391797 
        3.64429         2.66324        0.387457 
        3.66003         2.65598        0.383169 
        3.67578         2.63969        0.378947 
        3.69146         2.61483        0.374805 
        3.70712         2.60522        0.370731 
        3.72284         2.58184        0.366702 
        3.73853         2.56967        0.362739 
        3.75422         2.55284        0.358834 
        3.76993         2.53022        0.354982 
        3.78564         2.52011        0.351187 
        3.80137          2.5084        0.347442 
        3.81707         2.48248        0.343758 
        3.83279         2.47006        0.340125 
        3.84853         2.45417        0.336538 
        3.86424         2.43956        0.333009 
        3.87992         2.42349        0.329536 
        3.89561         2.41182        0.326112 
        3.91134         2.39614        0.322729 
        3.92704         2.38077        0.319397 
        3.94273          2.3628        0.316116 
        3.95845         2.34939        0.312874 
        3.97418         2.33144        0.309677 
        3.98988         2.31742        0.306528 
        4.00554          2.2977        0.303432 
        4.02125         2.28289        0.300369 
        4.03698         2.27442        0.297343 
        4.05268         2.25686        0.294365 
        4.06839         2.24696        0.291426 
         4.0841         2.22946        0.288528 
        4.09983         2.21049        0.285664 
        4.11555          2.2019         0.28284 
        4.13124         2.18287        0.280062 
        4.14693         2.16712        0.277319 
        4.16266         2.15574        0.274606 
        4.17839         2.14312         0.27193 
        4.19408         2.12541        0.269296 
        4.20977         2.11035        0.266695 
        4.22551         2.09908        0.264122 
        4.24123         2.08748        0.261586 
        4.25691         2.07314        0.259089 
        4.27259         2.06368        0.256624 
        4.28831         2.05216        0.254186 
        4.30404         2.03741        0.251777 
        4.31974         2.02637        0.249405 
        4.33543          2.0145        0.247064 
        4.35116           1.997        0.244747 
        4.36688         1.99454         0.24246 
        4.38255         1.97851        0.240211 
        4.39825         1.96561        0.237986 
        4.41398         1.95473        0.235784 
         4.4297         1.93919        0.233612 
        4.44541         1.92899        0.231467 
        4.46111         1.91796        0.229351 
        4.47683          1.9035         0.22726 
        4.49251         1.89971        0.225199 
        4.50819         1.88852        0.223163 
         4.5239          1.8753         0.22115 
        4.53962         1.86895        0.219159 
        4.55535         1.85923        0.217191 
        4.57106         1.84719         0.21525 
        4.58678         1.83772        0.213333 
         4.6025         1.82622        0.211437 
        4.61821         1.81358        0.209566 
        4.63391         1.80682        0.207719 
         4.6496         1.79533        0.205894 
        4.66532         1.78341        0.204089 
        4.68103         1.77934        0.202306 
        4.69673         1.76733        0.200546 
        4.71241         1.75556        0.198808 
        4.72811         1.74803        0.197088 
        4.74384         1.74149        0.195386 
        4.75955         1.73268        0.193707 
        4.77525         1.72469        0.192048 
        4.79096         1.71243        0.190406 
        4.80669         1.70551        0.188783 
         4.8224         1.69824         0.18718 
        4.83809         1.68989        0.185597 
        4.85379         1.67984        0.184032 
         4.8695         1.66946        0.182483 
        4.88521         1.66126        0.180953 
        4.90093         1.65344        0.179439 
        4.91663         1.64599        0.177945 
        4.93234           1.638        0.176465 
        4.94807          1.6319        0.175002 
        4.96377         1.62148        0.173557 
        4.97943         1.61639        0.172132 
        4.99514         1.60606        0.170719 
        5.01086         1.59766         0.16932 
        5.02654         1.59023        0.167941 
        5.04227         1.58696        0.166573 
          5.058         1.57859        0.165219 
        5.07371         1.57017        0.163883 
        5.08942         1.56514        0.162562 
        5.10513         1.55442        0.161255 
        5.12084         1.55153        0.159961 
        5.13656         1.53983        0.158682 
        5.15225         1.53543        0.157418 
        5.16796         1.52646        0.156167 
        5.18369         1.52168        0.154928 
         5.1994         1.51633        0.153704 
        5.21509         1.50692        0.152495 
        5.23079         1.50217        0.151297 
        5.24649         1.49456        0.150112 
        5.26217         1.49042        0.148942 
        5.27788         1.48082        0.147782 
        5.29359         1.48023        0.146633 
        5.30933         1.47205        0.145496 
        5.32504         1.46379        0.144372 
        5.34073         1.45832        0.143262 
        5.35646          1.4498         0.14216 
        5.37218         1.44363         0.14107 
        5.38789          1.4448        0.139993 
        5.40357          1.4362        0.138929 
        5.41929         1.42843        0.137873 
        5.43502         1.42283        0.136828 
         5.4507         1.41749        0.135796 
        5.46639         1.41415        0.134774 
        5.48212         1.40609        0.133761 
        5.49786         1.40282        0.132756 
        5.51353         1.39361        0.131767 
        5.52921         1.38812        0.130787 
        5.54495         1.38324        0.129814 
        5.56066          1.3765        0.128852 
        5.57637         1.37138          0.1279 
        5.59207          1.3673        0.126958 
        5.60778         1.36026        0.126025 
        5.62346          1.3574        0.125102 
        5.63916          1.3501        0.124188 
        5.65487         1.34519        0.123283 
         5.6706         1.34208        0.122385 
        5.68633          1.3341        0.121496 
        5.70203         1.32892        0.120618 
        5.71773          1.3257        0.119748 
        5.73344         1.31779        0.118887 
        5.74916         1.31168        0.118033 
        5.76486         1.30919        0.117188 
        5.78054         1.30667        0.116353 
        5.79626         1.29927        0.115524 
          5.812         1.29684        0.114702 
         5.8277         1.28928         0.11389 
        5.84339         1.28545        0.113086 
        5.85911         1.28271        0.112288 
        5.87484         1.27865        0.111498 
        5.89053         1.27372        0.110717 
        5.90623         1.26736        0.109944 
        5.92195         1.26393        0.109176 
        5.93767         1.25935        0.108416 
        5.95336         1.25471        0.107664 
        5.96905         1.25204         0.10692 
        5.98476         1.24474        0.106181 
        6.00048          1.2398         0.10545 
        6.01617         1.23686        0.104726 
        6.03185         1.23211        0.104009 
        6.04756         1.22913        0.103298 
        6.06331         1.22469        0.102592 
        6.07903         1.22198        0.101894 
        6.09473         1.21998        0.101202 
        6.11044         1.21261        0.100517 
        6.12616         1.20765        0.099838 
        6.14186         1.20316       0.0991659 
        6.15755         1.20159          0.0985 
        6.17326         1.19607       0.0978397 
        6.18898         1.19317        0.097185 
        6.20467         1.19021       0.0965375 
        6.22036         1.18457       0.0958959 
         6.2361         1.17919       0.0952583 
         6.2518         1.17758       0.0946275 
        6.26748         1.17293       0.0940038 
        6.28319         1.16811       0.0933839 
        6.29893         1.16554        0.092769 
        6.31463         1.16265       0.0921607 
        6.33033         1.15967        0.091558 
        6.34604         1.15378       0.0909602 
        6.36177         1.15202       0.0903671 
        6.37747         1.14763       0.0897804 
