# k  (h/Mpc)    Pcb(k)  (Mpc/h)^3    Pcb_linear(k) (Mpc/h)^3   ShotnoiseSubtracted = true
      0.0200456         19279.2         19681.8 
      0.0350414         13386.1         13950.4 
      0.0492313         9923.76         10091.2 
      0.0637834         8466.24         8272.16 
      0.0800726         6535.77         6387.78 
       0.096163         4506.98         4607.25 
       0.111083         3640.57         3714.24 
       0.126058         3331.37         3261.57 
       0.142273         2839.39         2688.24 
       0.158546         2448.69         2116.42 
        0.17375         1965.89         1809.98 
       0.188953          1911.7         1628.65 
       0.204907         1780.43            1408 
       0.220756         1531.95         1185.45 
        0.23588         1365.47         1043.42 
         0.2514         1184.93         946.606 
       0.267535         1173.28         842.482 
       0.283568         1060.76         738.099 
       0.299022         1000.32         661.848 
       0.314451         950.567         605.277 
       0.330372         872.345         549.714 
       0.346141         818.188         495.688 
       0.361624         786.127         451.446 
       0.377134         729.057         415.687 
       0.392932         699.372         382.574 
       0.408854         680.806         350.787 
       0.424564          632.01         323.094 
       0.440253          621.47         299.546 
       0.455999         590.383         278.243 
       0.471626         565.712          258.49 
        0.48727         541.773         240.571 
       0.502856         526.629         224.724 
       0.518488          519.99         210.336 
       0.534347         485.544         196.845 
       0.550082         468.701         184.544 
       0.565732         467.527         173.439 
       0.581496         438.523         163.215 
       0.597222         431.585         153.791 
       0.612804         420.877         145.155 
       0.628434         406.382         137.165 
       0.644267         395.474         129.708 
       0.660051         382.989         122.826 
       0.675724         378.855         116.479 
       0.691403         366.092         110.571 
       0.707174         353.509         105.038 
       0.722871         349.042         99.9024 
        0.73838         343.595         95.1627 
       0.754018         334.004         90.6928 
       0.769845         325.525         86.4596 
        0.78569         322.429         82.4911 
       0.801365          312.38         78.8094 
       0.817031          302.28         75.3543 
       0.832809         300.405         72.0839 
       0.848511          292.24         69.0219 
       0.864097         286.057         66.1582 
       0.879701         281.909         63.4539 
       0.895507         277.156         60.8686 
       0.911279         268.024         58.4322 
        0.92691         266.292          56.149 
       0.942635         259.309         53.9749 
       0.958396         254.427          51.911 
       0.974128         249.993         49.9584 
       0.989692         246.298         48.1252 
        1.00528         241.792         46.3809 
        1.02113          239.26         44.6956 
        1.03692         233.443         43.0999 
        1.05264         230.427         41.5891 
        1.06832         225.019         40.1528 
        1.08405         221.294         38.7803 
        1.09979         217.039         37.4709 
        1.11537         214.279         36.2347 
        1.13105         208.658         35.0467 
        1.14679         207.295         33.9072 
        1.16256         203.839         32.8159 
        1.17828         200.852         31.7761 
        1.19395         196.601         30.7846 
         1.2097         196.167         29.8303 
        1.22537         191.571         28.9208 
          1.241         190.211         28.0519 
        1.25666          186.27         27.2163 
        1.27241         183.497         26.4107 
        1.28819         181.076         25.6363 
        1.30392         176.681          24.895 
        1.31957         177.086         24.1862 
        1.33529         172.661         23.5023 
        1.35108         169.158         22.8421 
        1.36674          168.23         22.2118 
         1.3824         166.653         21.6057 
        1.39811         164.613         21.0202 
        1.41389         161.323         20.4541 
        1.42964         159.165         19.9096 
        1.44531         156.846         19.3876 
        1.46101         154.719          18.883 
        1.47667         151.953         18.3979 
        1.49229         150.456          17.931 
        1.50793         147.758         17.4797 
        1.52367         146.681          17.041 
        1.53953         143.911         16.6143 
        1.55526         141.413         16.2055 
        1.57092         140.313         15.8122 
        1.58662         138.408         15.4309 
        1.60235         136.105         15.0613 
        1.61809         135.139         14.7037 
        1.63369         132.309         14.3607 
        1.64941         130.099         14.0262 
        1.66519          128.88         13.7011 
        1.68085         127.751         13.3886 
        1.69652         125.908         13.0856 
        1.71228         123.547         12.7903 
        1.72806         122.237         12.5038 
        1.74368         121.185         12.2289 
        1.75933         119.155         11.9617 
        1.77505         117.694         11.7011 
        1.79081         116.723         11.4479 
         1.8065         115.224         11.2031 
        1.82218         112.936         10.9657 
        1.83797         111.634         10.7336 
        1.85367         110.625         10.5093 
        1.86928         108.566         10.2928 
        1.88497         106.954         10.0812 
        1.90073          105.74         9.87473 
        1.91647           104.5         9.67418 
        1.93218         103.271         9.47959 
        1.94787         101.682         9.29062 
        1.96363         100.562         9.10601 
        1.97935         98.8228         8.92677 
        1.99499         97.7888         8.75335 
        2.01064         96.5931         8.58425 
         2.0264         95.2824         8.41853 
        2.04216         94.3262         8.25724 
        2.05781         93.3727         8.10117 
        2.07353         92.3101         7.94855 
        2.08928         90.4063         7.79951 
        2.10499          89.233         7.65467 
        2.12065         88.4348         7.51392 
        2.13633         87.6393         7.37656 
        2.15211         86.2144         7.24173 
        2.16785         84.9327         7.11063 
        2.18349         84.1331         6.98358 
        2.19916         83.0607         6.85934 
        2.21489         82.0977          6.7377 
        2.23063         80.8939          6.6189 
         2.2463          79.882         6.50349 
        2.26194         79.2688          6.3911 
        2.27765         78.0135         6.28077 
        2.29341         77.3141         6.17275 
        2.30914         76.2633         6.06747 
        2.32486         75.6074         5.96469 
        2.34061         74.4846          5.8641 
        2.35635         73.0454         5.76591 
        2.37203         72.2929          5.6703 
        2.38768         71.6231         5.57703 
        2.40339         70.7248         5.48552 
        2.41914         69.7268         5.39583 
        2.43483         69.1689         5.30845 
         2.4505         68.1792         5.22314 
        2.46622         67.3223          5.1394 
        2.48195         66.7211         5.05748 
        2.49759         65.8717         4.97777 
        2.51328         65.3215         4.89956 
        2.52906         64.3603         4.82252 
        2.54479         63.7621         4.74742 
        2.56049         62.9143         4.67405 
        2.57618          62.338         4.60228 
        2.59189          61.388         4.53191 
        2.60758         60.5953          4.4631 
        2.62325         59.9253          4.3958 
        2.63898          59.275         4.32965 
        2.65468         58.6943         4.26498 
        2.67044         57.9748         4.20135 
        2.68618         57.3917         4.13916 
        2.70184         57.0244         4.07846 
        2.71755         56.1621         4.01883 
        2.73329         55.5526         3.96028 
        2.74897         55.0151         3.90309 
        2.76462         54.3437         3.84714 
        2.78034         53.6129         3.79205 
        2.79607         52.9789         3.73798 
        2.81179         52.5661         3.68502 
        2.82749         51.7888         3.63313 
        2.84321         51.4548         3.58218 
        2.85893          50.651         3.53221 
        2.87462         50.1838         3.48328 
        2.89033         49.6331         3.43522 
        2.90605         48.9256         3.38802 
        2.92176         48.6182         3.34172 
        2.93747         48.1864         3.29631 
        2.95318         47.5028         3.25173 
        2.96891         46.8064         3.20794 
        2.98456         46.4822         3.16515 
        3.00023         45.7029         3.12308 
        3.01596         45.2825         3.08163 
        3.03164          44.876         3.04104 
        3.04738         44.3626         3.00107 
         3.0631         43.8849         2.96182 
        3.07883         43.4648         2.92326 
        3.09456         43.0156          2.8854 
        3.11026         42.5163         2.84826 
        3.12596         42.0402         2.81177 
        3.14163         41.6029           2.776 
        3.15734         41.2411         2.74076 
        3.17308          40.869         2.70605 
        3.18879         40.4672         2.67203 
        3.20447          39.699         2.63864 
         3.2202         39.5951         2.60571 
         3.2359         39.1507          2.5734 
        3.25157          38.777         2.54171 
        3.26729         38.3309         2.51045 
        3.28304         37.9551         2.47966 
        3.29877         37.4665         2.44942 
        3.31446         36.9954         2.41974 
        3.33014         36.7455         2.39058 
        3.34585         36.5293         2.36185 
        3.36158         36.1231         2.33355 
        3.37727         35.6659          2.3058 
        3.39294         35.3639         2.27852 
        3.40867         34.9401         2.25158 
        3.42439         34.5631         2.22508 
        3.44008         34.1847         2.19906 
        3.45578          33.865         2.17344 
        3.47153         33.6393         2.14816 
        3.48724         33.2604         2.12333 
        3.50292         32.9568         2.09895 
        3.51859         32.5049         2.07495 
        3.53431          32.211         2.05126 
        3.55007         31.9123         2.02787 
        3.56577         31.5911         2.00494 
        3.58146         31.3589         1.98237 
        3.59719         30.9766          1.9601 
        3.61292         30.7348         1.93817 
        3.62859         30.4147         1.91665 
        3.64429         30.1543         1.89542 
        3.66003         29.7907         1.87445 
        3.67578         29.4784         1.85379 
        3.69146         29.3166         1.83353 
        3.70712         28.9481          1.8136 
        3.72284         28.7164         1.79389 
        3.73853          28.471          1.7745 
        3.75422         28.1761          1.7554 
        3.76993         27.9009         1.73655 
        3.78564         27.6994         1.71799 
        3.80137         27.3197         1.69967 
        3.81707          27.096         1.68165 
        3.83279         26.8873         1.66388 
        3.84853          26.702         1.64633 
        3.86424         26.4084         1.62907 
        3.87992         26.1846         1.61207 
        3.89561         25.9688         1.59532 
        3.91134         25.6862         1.57877 
        3.92704         25.4915         1.56248 
        3.94273         25.1796         1.54642 
        3.95845         24.9561         1.53056 
        3.97418         24.7693         1.51492 
        3.98988         24.5152         1.49952 
        4.00554         24.2578         1.48437 
        4.02125         24.1318         1.46939 
        4.03698         23.8587         1.45459 
        4.05268         23.7098         1.44002 
        4.06839         23.5104         1.42564 
         4.0841         23.2324         1.41146 
        4.09983         22.9695         1.39746 
        4.11555         22.8046         1.38364 
        4.13124         22.5938         1.37005 
        4.14693         22.4493         1.35663 
        4.16266         22.2077         1.34336 
        4.17839         21.9631         1.33027 
        4.19408         21.7269         1.31738 
        4.20977         21.6055         1.30466 
        4.22551         21.4474         1.29207 
        4.24123         21.2256         1.27967 
        4.25691         21.0812         1.26745 
        4.27259         20.9295         1.25539 
        4.28831          20.662         1.24347 
        4.30404         20.5241         1.23168 
        4.31974         20.3621         1.22008 
        4.33543         20.1235         1.20862 
        4.35116         20.0058         1.19729 
        4.36688         19.8246          1.1861 
        4.38255         19.6615          1.1751 
        4.39825           19.45         1.16422 
        4.41398         19.2727         1.15344 
         4.4297         19.0852         1.14282 
        4.44541         18.9915         1.13233 
        4.46111          18.848         1.12198 
        4.47683         18.6433         1.11175 
        4.49251         18.5373         1.10166 
        4.50819         18.2919         1.09171 
         4.5239         18.2092         1.08186 
        4.53962         18.0436         1.07212 
        4.55535         17.9265         1.06249 
        4.57106         17.7251           1.053 
        4.58678         17.5856         1.04361 
         4.6025         17.4127         1.03434 
        4.61821         17.3273         1.02519 
        4.63391         17.1505         1.01615 
         4.6496         17.0124         1.00723 
        4.66532         16.8789        0.998395 
        4.68103         16.7481        0.989673 
        4.69673         16.5611        0.981062 
        4.71241         16.4421        0.972562 
        4.72811         16.3055        0.964148 
        4.74384         16.1832        0.955821 
        4.75955          16.079        0.947606 
        4.77525          15.914         0.93949 
        4.79096         15.8314        0.931459 
        4.80669         15.6724        0.923517 
         4.8224         15.5252        0.915676 
        4.83809         15.4126        0.907934 
        4.85379         15.2914        0.900276 
         4.8695         15.1996        0.892699 
        4.88521         15.0742        0.885212 
        4.90093         14.9349        0.877809 
        4.91663         14.8043        0.870497 
        4.93234         14.6902         0.86326 
        4.94807         14.5505        0.856099 
        4.96377          14.475        0.849033 
        4.97943         14.3658        0.842061 
        4.99514         14.2274        0.835148 
        5.01086         14.1044        0.828307 
        5.02654         14.0236         0.82156 
        5.04227         13.9125        0.814867 
          5.058         13.8361        0.808245 
        5.07371          13.681         0.80171 
        5.08942         13.5924        0.795244 
        5.10513         13.4834         0.78885 
        5.12084          13.386        0.782521 
        5.13656         13.2538        0.776263 
        5.15225         13.1687        0.770084 
        5.16796         13.0604        0.763961 
        5.18369          12.965        0.757899 
         5.1994         12.8507        0.751913 
        5.21509         12.7676        0.745996 
        5.23079         12.6595        0.740136 
        5.24649         12.5913        0.734343 
        5.26217         12.4879        0.728615 
        5.27788         12.3822         0.72294 
        5.29359         12.2885        0.717324 
        5.30933         12.2079        0.711759 
        5.32504         12.0817        0.706262 
        5.34073         12.0211        0.700829 
        5.35646         11.9338        0.695441 
        5.37218         11.8261        0.690109 
        5.38789         11.7391         0.68484 
        5.40357         11.6343        0.679633 
        5.41929         11.5635        0.674467 
        5.43502          11.456        0.669354 
         5.4507         11.3802        0.664306 
        5.46639          11.307        0.659309 
        5.48212         11.2121        0.654351 
        5.49786         11.1633        0.649438 
        5.51353         11.0622          0.6446 
        5.52921         10.9854        0.639805 
        5.54495         10.9087        0.635045 
        5.56066         10.7938        0.630338 
        5.57637         10.7195        0.625679 
        5.59207          10.665        0.621071 
        5.60778         10.5755        0.616507 
        5.62346         10.5223        0.611995 
        5.63916         10.4305        0.607523 
        5.65487         10.3597        0.603094 
         5.6706         10.2711        0.598703 
        5.68633         10.2068        0.594354 
        5.70203         10.1488        0.590057 
        5.71773         10.0633        0.585803 
        5.73344         9.97773        0.581588 
        5.74916         9.92493         0.57741 
        5.76486         9.83851        0.573279 
        5.78054         9.77837        0.569194 
        5.79626         9.68872        0.565137 
          5.812         9.65623        0.561116 
         5.8277           9.583        0.557145 
        5.84339         9.48498        0.553212 
        5.85911         9.43293        0.549309 
        5.87484          9.3634        0.545445 
        5.89053         9.30076        0.541625 
        5.90623         9.23513        0.537839 
        5.92195         9.17064        0.534083 
        5.93767         9.10794        0.530365 
        5.95336         9.05438        0.526687 
        5.96905         8.99566        0.523046 
        5.98476         8.92731        0.519434 
        6.00048         8.85177        0.515854 
        6.01617          8.7851        0.512313 
        6.03185         8.73753        0.508809 
        6.04756          8.6626        0.505329 
        6.06331         8.60334        0.501874 
        6.07903         8.55604        0.498458 
        6.09473          8.4848        0.495077 
        6.11044         8.42547        0.491725 
        6.12616         8.38723        0.488403 
        6.14186         8.31861        0.485115 
        6.15755         8.27198        0.481858 
        6.17326         8.21899        0.478627 
        6.18898         8.15902        0.475425 
        6.20467         8.10176        0.472257 
        6.22036         8.05526        0.469118 
         6.2361         7.99199        0.465999 
         6.2518         7.94512        0.462913 
        6.26748         7.88285        0.459862 
        6.28319         7.82215         0.45683 
        6.29893         7.78524        0.453822 
        6.31463         7.72055        0.450846 
        6.33033         7.68439        0.447897 
        6.34604         7.61736        0.444973 
        6.36177         7.57757        0.442072 
        6.37747         7.52419        0.439202 
