# k  (h/Mpc)    Pcb(k)  (Mpc/h)^3    Pcb_linear(k) (Mpc/h)^3   ShotnoiseSubtracted = true
      0.0200456         23571.7           24104 
      0.0350414         16296.2         17084.8 
      0.0492313         12096.5         12358.5 
      0.0637834         10367.9         10130.8 
      0.0800726         7999.22            7823 
       0.096163         5505.58         5642.41 
       0.111083         4467.29         4548.76 
       0.126058         4082.37         3994.38 
       0.142273         3487.15         3292.24 
       0.158546         3055.16         2591.94 
        0.17375         2454.56         2216.65 
       0.188953         2394.77         1994.57 
       0.204907          2232.4         1724.35 
       0.220756         1932.16          1451.8 
        0.23588         1732.88         1277.85 
         0.2514         1506.87         1159.29 
       0.267535         1501.76         1031.77 
       0.283568         1358.81         903.935 
       0.299022         1286.86         810.553 
       0.314451         1224.02         741.272 
       0.330372         1120.86         673.224 
       0.346141         1075.12          607.06 
       0.361624         1032.79         552.877 
       0.377134         961.629         509.084 
       0.392932         919.329         468.531 
       0.408854         904.217         429.602 
       0.424564         833.234         395.687 
       0.440253         818.488         366.848 
       0.455999         789.625         340.759 
       0.471626         761.635         316.568 
        0.48727         728.491         294.623 
       0.502856         706.889         275.215 
       0.518488         699.837         257.594 
       0.534347         655.878         241.072 
       0.550082         640.046         226.008 
       0.565732         635.981         212.408 
       0.581496         600.116         199.887 
       0.597222         587.909         188.345 
       0.612804          577.11         177.768 
       0.628434         560.503         167.984 
       0.644267         545.994         158.851 
       0.660051         529.736         150.423 
       0.675724         523.638         142.649 
       0.691403         505.861         135.415 
       0.707174         488.907         128.638 
       0.722871         482.716         122.349 
        0.73838         473.597         116.544 
       0.754018         463.365          111.07 
       0.769845         454.646         105.885 
        0.78569          445.92         101.025 
       0.801365         434.447         96.5164 
       0.817031         422.844          92.285 
       0.832809         418.819         88.2798 
       0.848511         409.507         84.5297 
       0.864097         396.704         81.0227 
       0.879701          391.14         77.7108 
       0.895507         388.388         74.5446 
       0.911279         377.186         71.5609 
        0.92691          372.25         68.7647 
       0.942635          361.98         66.1021 
       0.958396         353.428         63.5744 
       0.974128          348.09         61.1831 
       0.989692         345.584          58.938 
        1.00528         335.631         56.8018 
        1.02113         333.639         54.7378 
        1.03692         324.352         52.7836 
        1.05264         322.033         50.9334 
        1.06832         312.641         49.1744 
        1.08405         308.609         47.4935 
        1.09979         303.525           45.89 
        1.11537         297.968          44.376 
        1.13105         292.781         42.9211 
        1.14679         284.672         41.5255 
        1.16256         280.362         40.1891 
        1.17828         279.282         38.9156 
        1.19395          272.15         37.7014 
         1.2097         267.831         36.5326 
        1.22537         262.462         35.4188 
          1.241         260.073         34.3546 
        1.25666         255.884         33.3313 
        1.27241          251.56         32.3447 
        1.28819         247.514         31.3963 
        1.30392         242.061         30.4884 
        1.31957         241.498         29.6204 
        1.33529         236.772         28.7828 
        1.35108         231.365         27.9742 
        1.36674         227.927         27.2023 
         1.3824         226.737         26.4601 
        1.39811         222.638          25.743 
        1.41389         219.886         25.0497 
        1.42964         217.363         24.3829 
        1.44531         214.118         23.7436 
        1.46101         210.089         23.1257 
        1.47667         207.505         22.5315 
        1.49229         205.398         21.9597 
        1.50793         200.003          21.407 
        1.52367         199.083         20.8697 
        1.53953         195.815         20.3472 
        1.55526         191.896         19.8466 
        1.57092         190.157         19.3649 
        1.58662         187.971         18.8979 
        1.60235         184.849         18.4453 
        1.61809         182.887         18.0073 
        1.63369         180.078         17.5873 
        1.64941         176.279         17.1777 
        1.66519         175.242         16.7795 
        1.68085         172.416         16.3967 
        1.69652          170.15         16.0257 
        1.71228         166.202          15.664 
        1.72806         164.454         15.3132 
        1.74368         162.345         14.9765 
        1.75933         159.711         14.6492 
        1.77505         158.408         14.3302 
        1.79081         156.706           14.02 
         1.8065         153.579         13.7203 
        1.82218         152.385         13.4295 
        1.83797         150.507         13.1452 
        1.85367         148.281         12.8706 
        1.86928          145.59         12.6054 
        1.88497         144.269         12.3463 
        1.90073         142.446         12.0934 
        1.91647         140.899         11.8478 
        1.93218         139.082         11.6095 
        1.94787         135.994          11.378 
        1.96363         134.418          11.152 
        1.97935         133.516         10.9324 
        1.99499         131.234         10.7201 
        2.01064         129.693          10.513 
         2.0264         128.353           10.31 
        2.04216         126.459         10.1125 
        2.05781         125.205         9.92135 
        2.07353         123.901         9.73444 
        2.08928         121.505         9.55191 
        2.10499         120.518         9.37453 
        2.12065         118.383         9.20215 
        2.13633         116.984         9.03393 
        2.15211         115.216         8.86881 
        2.16785         113.912         8.70825 
        2.18349         112.932         8.55265 
        2.19916         111.359          8.4005 
        2.21489         110.133         8.25153 
        2.23063         108.127         8.10604 
         2.2463         107.313          7.9647 
        2.26194         105.392         7.82706 
        2.27765         104.427         7.69194 
        2.29341          103.05         7.55964 
        2.30914         102.177         7.43071 
        2.32486         100.565         7.30484 
        2.34061         99.5353         7.18166 
        2.35635         98.3236          7.0614 
        2.37203         97.1461         6.94431 
        2.38768         95.7564         6.83009 
        2.40339         94.8198         6.71801 
        2.41914          93.397         6.60817 
        2.43483         92.4651         6.50116 
         2.4505         91.4082         6.39668 
        2.46622         90.4684         6.29412 
        2.48195         89.0575         6.19379 
        2.49759         87.8838         6.09617 
        2.51328         87.5268         6.00039 
        2.52906         86.0467         5.90605 
        2.54479         85.1342         5.81407 
        2.56049         84.0231         5.72422 
        2.57618         83.1152         5.63633 
        2.59189         82.1984         5.55014 
        2.60758         81.1924         5.46588 
        2.62325          80.092         5.38345 
        2.63898         79.1006         5.30243 
        2.65468          78.111         5.22324 
        2.67044         77.6038         5.14531 
        2.68618          76.695         5.06915 
        2.70184         76.1369         4.99482 
        2.71755         74.7574         4.92178 
        2.73329         74.2905         4.85008 
        2.74897         73.4521         4.78004 
        2.76462         72.3169         4.71152 
        2.78034         71.7369         4.64406 
        2.79607         70.4838         4.57783 
        2.81179         69.8029         4.51297 
        2.82749         69.1545         4.44942 
        2.84321         68.3836         4.38702 
        2.85893         67.6284         4.32583 
        2.87462         66.8638          4.2659 
        2.89033         65.9722         4.20705 
        2.90605         65.2451         4.14924 
        2.92176          64.451         4.09255 
        2.93747         64.0702         4.03693 
        2.95318         63.1835         3.98233 
        2.96891         62.7177         3.92871 
        2.98456         62.1676          3.8763 
        3.00023         61.1238         3.82477 
        3.01596          60.496         3.77401 
        3.03164         59.7994         3.72431 
        3.04738         59.2425         3.67535 
         3.0631         58.4813         3.62728 
        3.07883          58.142         3.58007 
        3.09456         57.4504         3.53369 
        3.11026         56.6301         3.48821 
        3.12596         56.0668         3.44352 
        3.14163         55.6378         3.39971 
        3.15734         54.8538         3.35656 
        3.17308         54.2172         3.31405 
        3.18879         53.8987         3.27238 
        3.20447         53.1809         3.23149 
         3.2202         52.7885         3.19117 
         3.2359         52.0388          3.1516 
        3.25157          51.524         3.11279 
        3.26729         51.1425         3.07451 
        3.28304          50.735         3.03679 
        3.29877         50.1248         2.99975 
        3.31446          49.281         2.96341 
        3.33014         49.1251          2.9277 
        3.34585          48.389         2.89251 
        3.36158         48.0212         2.85785 
        3.37727         47.5943         2.82386 
        3.39294         47.0334         2.79045 
        3.40867         46.5113         2.75746 
        3.42439         46.1536         2.72502 
        3.44008         45.6316         2.69315 
        3.45578         45.1512         2.66177 
        3.47153         44.7079         2.63082 
        3.48724         44.2506          2.6004 
        3.50292         43.9725         2.57054 
        3.51859         43.3426         2.54116 
        3.53431         43.0763         2.51214 
        3.55007         42.5437          2.4835 
        3.56577         42.1516         2.45542 
        3.58146         41.8198         2.42777 
        3.59719         41.3386         2.40049 
        3.61292         40.9444         2.37364 
        3.62859         40.5519         2.34729 
        3.64429         40.1511         2.32129 
        3.66003         39.8072          2.2956 
        3.67578         39.3357         2.27031 
        3.69146         38.9972         2.24548 
        3.70712          38.549         2.22108 
        3.72284         38.2201         2.19694 
        3.73853         37.8874          2.1732 
        3.75422         37.4236          2.1498 
        3.76993         37.1295         2.12672 
        3.78564         36.8019         2.10399 
        3.80137         36.4136         2.08155 
        3.81707         36.0485         2.05948 
        3.83279         35.7319         2.03772 
        3.84853         35.4513         2.01623 
        3.86424          35.107         1.99509 
        3.87992         34.8179         1.97428 
        3.89561         34.5095         1.95376 
        3.91134         34.1031         1.93349 
        3.92704         33.8152         1.91353 
        3.94273         33.5122         1.89387 
        3.95845         33.3659         1.87445 
        3.97418         32.9788          1.8553 
        3.98988         32.6883         1.83643 
        4.00554         32.3323         1.81788 
        4.02125          32.103         1.79953 
        4.03698         31.8588          1.7814 
        4.05268          31.535         1.76357 
        4.06839         31.2061         1.74596 
         4.0841         30.9158         1.72859 
        4.09983         30.6831         1.71144 
        4.11555         30.3385         1.69452 
        4.13124         30.1642         1.67788 
        4.14693         29.8499         1.66144 
        4.16266         29.5907         1.64518 
        4.17839         29.2488         1.62915 
        4.19408         29.0811         1.61337 
        4.20977         28.7805         1.59779 
        4.22551         28.4588         1.58238 
        4.24123         28.2592         1.56718 
        4.25691         28.0313         1.55223 
        4.27259         27.7878         1.53746 
        4.28831         27.5675         1.52285 
        4.30404         27.3684         1.50842 
        4.31974         27.0669          1.4942 
        4.33543         26.7743         1.48018 
        4.35116         26.6422          1.4663 
        4.36688         26.4184          1.4526 
        4.38255         26.1725         1.43913 
        4.39825         25.9499         1.42579 
        4.41398         25.7927          1.4126 
         4.4297          25.439         1.39959 
        4.44541         25.3051         1.38674 
        4.46111         25.0038         1.37406 
        4.47683         24.8424         1.36153 
        4.49251         24.5904         1.34918 
        4.50819         24.4455         1.33699 
         4.5239          24.305         1.32493 
        4.53962         23.9825           1.313 
        4.55535         23.8579         1.30121 
        4.57106         23.6418         1.28958 
        4.58678         23.4262         1.27809 
         4.6025         23.1392         1.26674 
        4.61821         23.0298         1.25552 
        4.63391         22.8488         1.24446 
         4.6496         22.6614         1.23353 
        4.66532          22.488         1.22271 
        4.68103         22.2886         1.21203 
        4.69673         22.1372         1.20149 
        4.71241         21.9689         1.19108 
        4.72811         21.7125         1.18077 
        4.74384         21.6344         1.17058 
        4.75955         21.3898         1.16051 
        4.77525         21.2257         1.15058 
        4.79096         21.0909         1.14074 
        4.80669         20.8608         1.13101 
         4.8224         20.7138         1.12141 
        4.83809         20.6108         1.11193 
        4.85379         20.4081         1.10255 
         4.8695         20.2498         1.09327 
        4.88521         20.0603          1.0841 
        4.90093         19.8647         1.07504 
        4.91663         19.7474         1.06608 
        4.93234          19.629         1.05722 
        4.94807         19.4574         1.04845 
        4.96377         19.2767         1.03979 
        4.97943         19.1327         1.03126 
        4.99514         19.0145         1.02279 
        5.01086         18.8682         1.01441 
        5.02654          18.669         1.00615 
        5.04227         18.5839        0.997952 
          5.058          18.405        0.989842 
        5.07371         18.2469        0.981838 
        5.08942         18.0877        0.973921 
        5.10513         18.0009        0.966089 
        5.12084         17.8487        0.958339 
        5.13656         17.7011        0.950675 
        5.15225         17.5257        0.943107 
        5.16796         17.4614        0.935608 
        5.18369         17.2895        0.928184 
         5.1994         17.1896        0.920853 
        5.21509         17.0246        0.913607 
        5.23079         16.9235         0.90643 
        5.24649         16.7914        0.899336 
        5.26217          16.678        0.892321 
        5.27788         16.5324        0.885371 
        5.29359         16.4076        0.878493 
        5.30933         16.2456        0.871678 
        5.32504         16.1587        0.864946 
        5.34073         15.9902        0.858291 
        5.35646         15.8508        0.851693 
        5.37218         15.7842        0.845163 
        5.38789          15.654        0.838711 
        5.40357         15.5374        0.832333 
        5.41929         15.4214        0.826007 
        5.43502         15.3199        0.819745 
         5.4507           15.21        0.813563 
        5.46639         15.0717        0.807443 
        5.48212         15.0027        0.801372 
        5.49786         14.8683        0.795355 
        5.51353         14.7401        0.789429 
        5.52921         14.6648        0.783557 
        5.54495         14.5407        0.777727 
        5.56066         14.4256        0.771963 
        5.57637         14.3139        0.766257 
        5.59207         14.2192        0.760613 
        5.60778         14.0965        0.755024 
        5.62346         14.0111        0.749498 
        5.63916         13.9132        0.744022 
        5.65487         13.7955        0.738598 
         5.6706          13.724         0.73322 
        5.68633         13.6158        0.727894 
        5.70203         13.5114        0.722631 
        5.71773         13.4388        0.717421 
        5.73344         13.2972        0.712259 
        5.74916         13.2213        0.707143 
        5.76486         13.1476        0.702084 
        5.78054          13.065        0.697081 
        5.79626         12.9396        0.692113 
          5.812         12.8713        0.687188 
         5.8277         12.7599        0.682325 
        5.84339         12.6702        0.677508 
        5.85911         12.5827        0.672729 
        5.87484         12.4808        0.667996 
        5.89053         12.4005        0.663317 
        5.90623         12.3234        0.658681 
        5.92195         12.2258        0.654081 
        5.93767         12.1487        0.649527 
        5.95336         12.0529        0.645024 
        5.96905         11.9559        0.640564 
        5.98476         11.8888        0.636141 
        6.00048         11.8142        0.631757 
        6.01617         11.7324         0.62742 
        6.03185          11.655        0.623129 
        6.04756         11.5637        0.618867 
        6.06331         11.4866        0.614636 
        6.07903         11.4125        0.610452 
        6.09473         11.3216        0.606312 
        6.11044         11.2435        0.602206 
        6.12616         11.1625        0.598138 
        6.14186         11.0737        0.594111 
        6.15755         10.9921        0.590122 
        6.17326         10.9464        0.586166 
        6.18898         10.8743        0.582243 
        6.20467         10.7968        0.578364 
        6.22036         10.7143         0.57452 
         6.2361         10.6393          0.5707 
         6.2518         10.5706        0.566921 
        6.26748         10.4981        0.563184 
        6.28319         10.4416        0.559471 
        6.29893         10.3546        0.555787 
        6.31463         10.2896        0.552142 
        6.33033         10.2286        0.548531 
        6.34604         10.1585         0.54495 
        6.36177          10.099        0.541397 
        6.37747         10.0339        0.537882 
