# k  (h/Mpc)    Pcb(k)  (Mpc/h)^3    Pcb_linear(k) (Mpc/h)^3   ShotnoiseSubtracted = true
      0.0200456           11046         11194.3 
      0.0350414         8154.76         7934.51 
      0.0492313         5695.93         5739.53 
      0.0637834         4551.97         4704.92 
      0.0800726         3500.18         3633.15 
       0.096163         2724.73         2620.44 
       0.111083         2228.42         2112.53 
       0.126058         1847.55         1855.07 
       0.142273         1558.94         1528.98 
       0.158546         1274.91         1203.75 
        0.17375         1120.63         1029.45 
       0.188953         1031.73         926.319 
       0.204907         869.091         800.823 
       0.220756         775.439         674.243 
        0.23588         690.499          593.46 
         0.2514         616.692         538.397 
       0.267535         592.978         479.175 
       0.283568          515.56         419.805 
       0.299022         490.337         376.437 
       0.314451         491.206         344.261 
       0.330372          420.62         312.658 
       0.346141         388.734          281.93 
       0.361624         369.749         256.767 
       0.377134         343.744         236.428 
       0.392932         332.917         217.595 
       0.408854         315.779         199.515 
       0.424564         303.799         183.765 
       0.440253         273.959         170.371 
       0.455999         260.802         158.255 
       0.471626         259.409          147.02 
        0.48727         246.361         136.829 
       0.502856         225.031         127.815 
       0.518488         225.377         119.632 
       0.534347         209.078         111.958 
       0.550082         203.475         104.962 
       0.565732         201.516         98.6464 
       0.581496         188.489         92.8312 
       0.597222         183.762         87.4712 
       0.612804         177.839          82.559 
       0.628434         171.935         78.0149 
       0.644267         163.612         73.7736 
       0.660051         159.956         69.8593 
       0.675724           157.9          66.249 
       0.691403         153.661         62.8891 
       0.707174          148.03         59.7419 
       0.722871         145.581          56.821 
        0.73838         143.805         54.1253 
       0.754018         135.171         51.5829 
       0.769845         134.917         49.1752 
        0.78569         131.061         46.9181 
       0.801365          126.91         44.8241 
       0.817031         123.593         42.8589 
       0.832809         121.328         40.9989 
       0.848511         118.232         39.2572 
       0.864097         115.919         37.6285 
       0.879701         114.381         36.0904 
       0.895507         110.933         34.6199 
       0.911279         108.098         33.2342 
        0.92691         105.801         31.9356 
       0.942635         103.557         30.6991 
       0.958396         102.518         29.5252 
       0.974128         100.182         28.4146 
       0.989692         97.5869         27.3719 
        1.00528         96.3489         26.3799 
        1.02113         93.7633         25.4213 
        1.03692         93.3209         24.5137 
        1.05264         92.0167         23.6544 
        1.06832         89.1485         22.8375 
        1.08405         88.1414         22.0569 
        1.09979         87.4077         21.3122 
        1.11537         84.9152         20.6091 
        1.13105         83.8819         19.9334 
        1.14679          82.467         19.2853 
        1.16256         80.7239         18.6646 
        1.17828         79.9769         18.0731 
        1.19395         77.8699         17.5092 
         1.2097         77.5525         16.9664 
        1.22537         75.7617         16.4492 
          1.241         75.5331         15.9549 
        1.25666          72.819         15.4797 
        1.27241         72.2883         15.0215 
        1.28819         71.7344          14.581 
        1.30392         70.2943         14.1594 
        1.31957         69.5611         13.7563 
        1.33529         68.4817         13.3673 
        1.35108         68.0163         12.9918 
        1.36674         66.7549         12.6333 
         1.3824         66.2152         12.2886 
        1.39811          64.522         11.9556 
        1.41389         63.6349         11.6336 
        1.42964         62.7945         11.3239 
        1.44531         62.2635          11.027 
        1.46101         61.5763           10.74 
        1.47667         60.6322         10.4641 
        1.49229         59.8308         10.1985 
        1.50793         59.0258         9.94184 
        1.52367         58.6022         9.69231 
        1.53953         57.6431         9.44963 
        1.55526         56.5421         9.21715 
        1.57092         56.4601         8.99342 
        1.58662         55.5931         8.77655 
        1.60235         54.8575         8.56637 
        1.61809         53.8006         8.36294 
        1.63369         53.2149         8.16789 
        1.64941         52.9322         7.97763 
        1.66519           51.64         7.79272 
        1.68085         51.2665         7.61496 
        1.69652         50.3162         7.44265 
        1.71228         49.9273         7.27468 
        1.72806         49.5264         7.11173 
        1.74368         48.7295         6.95538 
        1.75933         48.3227         6.80339 
        1.77505         47.7592         6.65521 
        1.79081         47.0736         6.51116 
         1.8065         46.7549         6.37196 
        1.82218         45.4817         6.23693 
        1.83797         45.1614         6.10487 
        1.85367         44.7842         5.97735 
        1.86928          44.366          5.8542 
        1.88497         43.6387         5.73384 
        1.90073         43.0253          5.6164 
        1.91647         42.9116         5.50234 
        1.93218         42.4672         5.39167 
        1.94787         41.8093         5.28418 
        1.96363         41.1885         5.17919 
        1.97935          40.783         5.07724 
        1.99499         40.3372          4.9786 
        2.01064         39.7374         4.88242 
         2.0264         39.6427         4.78817 
        2.04216          38.939         4.69643 
        2.05781         38.5349         4.60767 
        2.07353         37.8897         4.52086 
        2.08928         37.7859         4.43609 
        2.10499         37.3835         4.35371 
        2.12065         36.8946         4.27366 
        2.13633         36.6498         4.19553 
        2.15211          36.088         4.11885 
        2.16785         35.4528         4.04428 
        2.18349         35.1697         3.97202 
        2.19916         34.8307         3.90136 
        2.21489         34.6247         3.83217 
        2.23063          34.105          3.7646 
         2.2463         33.8029         3.69896 
        2.26194         33.4276         3.63504 
        2.27765         33.0135         3.57229 
        2.29341         32.5725         3.51084 
        2.30914         32.2512         3.45097 
        2.32486         31.8273         3.39251 
        2.34061         31.5659          3.3353 
        2.35635         31.2445         3.27945 
        2.37203         30.9306         3.22507 
        2.38768         30.7185         3.17202 
        2.40339         30.3916         3.11997 
        2.41914         30.1138         3.06896 
        2.43483         29.6815         3.01926 
         2.4505          29.471         2.97074 
        2.46622         29.0828         2.92311 
        2.48195         28.8655         2.87652 
        2.49759         28.4772         2.83118 
        2.51328         28.1939          2.7867 
        2.52906         27.9351         2.74288 
        2.54479         27.6919         2.70017 
        2.56049         27.4353         2.65844 
        2.57618         27.1307         2.61762 
        2.59189         26.8433         2.57759 
        2.60758         26.4925         2.53846 
        2.62325          26.393         2.50018 
        2.63898         26.0976         2.46255 
        2.65468         25.7109         2.42577 
        2.67044         25.5896         2.38958 
        2.68618         25.3143         2.35421 
        2.70184          25.023         2.31969 
        2.71755         24.7808         2.28577 
        2.73329          24.556         2.25247 
        2.74897         24.2657         2.21994 
        2.76462         24.0594         2.18812 
        2.78034          23.815         2.15679 
        2.79607         23.5971         2.12603 
        2.81179         23.3589         2.09591 
        2.82749         23.1178          2.0664 
        2.84321         22.8885         2.03742 
        2.85893         22.6867           2.009 
        2.87462         22.4797         1.98117 
        2.89033         22.2354         1.95383 
        2.90605          22.044         1.92699 
        2.92176          21.846         1.90066 
        2.93747         21.6143         1.87483 
        2.95318         21.5059         1.84947 
        2.96891         21.2077         1.82457 
        2.98456         21.0402         1.80023 
        3.00023         20.7424          1.7763 
        3.01596          20.511         1.75272 
        3.03164         20.3619         1.72964 
        3.04738         20.2293          1.7069 
         3.0631         20.0234         1.68458 
        3.07883           19.76         1.66265 
        3.09456         19.5582         1.64112 
        3.11026         19.3782         1.61999 
        3.12596         19.1715         1.59924 
        3.14163         19.0518         1.57889 
        3.15734         18.9198         1.55885 
        3.17308         18.6302         1.53911 
        3.18879          18.502         1.51976 
        3.20447         18.3828         1.50077 
         3.2202         18.1558         1.48204 
         3.2359         17.9497         1.46366 
        3.25157         17.7988         1.44564 
        3.26729         17.6941         1.42786 
        3.28304         17.4973         1.41034 
        3.29877         17.3461         1.39314 
        3.31446          17.192         1.37627 
        3.33014         16.9685         1.35968 
        3.34585         16.8981         1.34334 
        3.36158         16.6631         1.32724 
        3.37727         16.5454         1.31146 
        3.39294         16.4585         1.29594 
        3.40867          16.255         1.28062 
        3.42439         16.0675         1.26555 
        3.44008         15.9396         1.25075 
        3.45578         15.8007         1.23618 
        3.47153         15.6688          1.2218 
        3.48724         15.5581         1.20768 
        3.50292         15.3472         1.19381 
        3.51859         15.2611         1.18016 
        3.53431         15.1149         1.16669 
        3.55007          14.949         1.15338 
        3.56577         14.8499         1.14034 
        3.58146           14.69         1.12751 
        3.59719         14.5738         1.11484 
        3.61292         14.4585         1.10236 
        3.62859         14.2722         1.09013 
        3.64429         14.1445         1.07805 
        3.66003         14.0722         1.06612 
        3.67578         13.9806         1.05437 
        3.69146         13.8347         1.04285 
        3.70712         13.6806         1.03151 
        3.72284         13.5672          1.0203 
        3.73853         13.4791         1.00928 
        3.75422         13.3054         0.99841 
        3.76993         13.2332        0.987692 
        3.78564          13.096        0.977134 
        3.80137         12.9541        0.966713 
        3.81707         12.8527        0.956465 
        3.83279         12.7873        0.946355 
        3.84853         12.6319        0.936374 
        3.86424         12.5197        0.926556 
        3.87992         12.4571        0.916892 
        3.89561          12.325        0.907364 
        3.91134         12.2469        0.897952 
        3.92704         12.1368        0.888682 
        3.94273         12.0151        0.879552 
        3.95845         11.8983        0.870532 
        3.97418         11.7892        0.861636 
        3.98988           11.71        0.852876 
        4.00554         11.5827         0.84426 
        4.02125         11.4974        0.835738 
        4.03698         11.4126        0.827319 
        4.05268         11.3324        0.819034 
        4.06839         11.1924        0.810856 
         4.0841         11.1183        0.802792 
        4.09983         10.9893        0.794824 
        4.11555         10.9201        0.786968 
        4.13124         10.8357        0.779238 
        4.14693         10.7423        0.771605 
        4.16266         10.6553        0.764056 
        4.17839         10.5368        0.756611 
        4.19408         10.4855        0.749282 
        4.20977         10.3925        0.742046 
        4.22551         10.3011        0.734887 
        4.24123         10.2118         0.72783 
        4.25691          10.121        0.720884 
        4.27259         10.0292        0.714025 
        4.28831         9.98386        0.707242 
        4.30404         9.88277        0.700539 
        4.31974         9.80506        0.693937 
        4.33543         9.69557        0.687423 
        4.35116         9.65262        0.680977 
        4.36688         9.53951        0.674615 
        4.38255         9.45975        0.668358 
        4.39825         9.40071        0.662166 
        4.41398         9.31949        0.656039 
         4.4297         9.22981        0.649996 
        4.44541         9.16855        0.644029 
        4.46111         9.08808        0.638141 
        4.47683         9.00402        0.632322 
        4.49251         8.93849        0.626587 
        4.50819         8.86714        0.620924 
         4.5239         8.79354        0.615323 
        4.53962         8.72617        0.609783 
        4.55535         8.65399        0.604308 
        4.57106         8.61629        0.598907 
        4.58678         8.52031        0.593571 
         4.6025         8.46458        0.588298 
        4.61821         8.41601         0.58309 
        4.63391         8.32807        0.577951 
         4.6496         8.24521        0.572875 
        4.66532          8.2029        0.567852 
        4.68103         8.12445        0.562892 
        4.69673         8.05681        0.557994 
        4.71241         8.01167         0.55316 
        4.72811         7.92765        0.548374 
        4.74384         7.88607        0.543638 
        4.75955         7.82869        0.538965 
        4.77525         7.75407        0.534349 
        4.79096         7.70688        0.529782 
        4.80669          7.6259        0.525265 
         4.8224         7.58504        0.520805 
        4.83809         7.51669        0.516401 
        4.85379         7.47683        0.512046 
         4.8695         7.40629        0.507736 
        4.88521         7.33475        0.503478 
        4.90093         7.31361        0.499268 
        4.91663         7.23341        0.495109 
        4.93234          7.1867        0.490992 
        4.94807         7.12333         0.48692 
        4.96377         7.07995        0.482901 
        4.97943         7.01921        0.478935 
        4.99514         6.96994        0.475003 
        5.01086         6.92688        0.471112 
        5.02654          6.8529        0.467275 
        5.04227         6.81375        0.463468 
          5.058          6.7727        0.459702 
        5.07371         6.71034        0.455985 
        5.08942         6.66377        0.452308 
        5.10513         6.59777         0.44867 
        5.12084          6.5567        0.445071 
        5.13656         6.52209        0.441512 
        5.15225         6.46324        0.437997 
        5.16796         6.42431        0.434515 
        5.18369         6.37372        0.431067 
         5.1994          6.3313        0.427662 
        5.21509         6.28085        0.424297 
        5.23079         6.22344        0.420964 
        5.24649         6.18887        0.417669 
        5.26217         6.15182        0.414411 
        5.27788         6.09979        0.411183 
        5.29359         6.04534        0.407989 
        5.30933         6.00326        0.404824 
        5.32504         5.96962        0.401697 
        5.34073         5.92092        0.398607 
        5.35646         5.88284        0.395543 
        5.37218         5.84991         0.39251 
        5.38789         5.80152        0.389513 
        5.40357         5.76278        0.386552 
        5.41929         5.72343        0.383614 
        5.43502         5.68206        0.380706 
         5.4507         5.63729        0.377834 
        5.46639         5.58912        0.374992 
        5.48212         5.55879        0.372172 
        5.49786         5.52055        0.369378 
        5.51353         5.49381        0.366626 
        5.52921         5.43906        0.363899 
        5.54495         5.40158        0.361192 
        5.56066         5.37112        0.358514 
        5.57637         5.33542        0.355865 
        5.59207         5.28449        0.353244 
        5.60778         5.25896        0.350648 
        5.62346         5.21912        0.348082 
        5.63916         5.18493        0.345538 
        5.65487         5.15193        0.343019 
         5.6706         5.11878        0.340522 
        5.68633         5.08111        0.338048 
        5.70203         5.04508        0.335604 
        5.71773         5.01547        0.333184 
        5.73344          4.9846        0.330787 
        5.74916         4.94106        0.328411 
        5.76486         4.91468        0.326061 
        5.78054         4.87708        0.323738 
        5.79626          4.8465        0.321431 
          5.812         4.82013        0.319143 
         5.8277         4.77708        0.316885 
        5.84339         4.74971        0.314648 
        5.85911         4.72049        0.312428 
        5.87484         4.68865         0.31023 
        5.89053         4.65575        0.308057 
        5.90623          4.6205        0.305904 
        5.92195          4.5972        0.303768 
        5.93767         4.56636        0.301653 
        5.95336         4.53024        0.299562 
        5.96905         4.50394         0.29749 
        5.98476         4.47385        0.295436 
        6.00048         4.44765          0.2934 
        6.01617         4.41852        0.291386 
        6.03185         4.40068        0.289393 
        6.04756         4.36806        0.287414 
        6.06331         4.33681        0.285449 
        6.07903         4.30331        0.283506 
        6.09473         4.27793        0.281583 
        6.11044         4.24087        0.279676 
        6.12616         4.22084        0.277787 
        6.14186         4.19894        0.275917 
        6.15755         4.17119        0.274064 
        6.17326         4.14339        0.272227 
        6.18898         4.12402        0.270405 
        6.20467           4.091        0.268603 
        6.22036         4.06829        0.266818 
         6.2361          4.0423        0.265044 
         6.2518          4.0159        0.263289 
        6.26748         3.98965        0.261554 
        6.28319         3.96975        0.259829 
        6.29893         3.94188        0.258118 
        6.31463         3.91905        0.256426 
        6.33033           3.893        0.254749 
        6.34604         3.86704        0.253085 
        6.36177         3.84728        0.251435 
        6.37747         3.81933        0.249803 
