# k  (h/Mpc)    Pcb(k)  (Mpc/h)^3    Pcb_linear(k) (Mpc/h)^3   ShotnoiseSubtracted = true
      0.0200456         17114.6         17370.2 
      0.0350414         12700.2         12311.9 
      0.0492313         8778.15            8906 
      0.0637834         6997.15          7300.6 
      0.0800726         5371.83         5637.54 
       0.096163         4251.24         4066.13 
       0.111083         3481.83            3278 
       0.126058         2868.55          2878.5 
       0.142273         2450.61         2372.51 
       0.158546         2006.38         1867.85 
        0.17375          1781.8          1597.4 
       0.188953         1665.38         1437.36 
       0.204907         1413.66         1242.63 
       0.220756         1268.53         1046.22 
        0.23588         1132.66         920.869 
         0.2514         1015.14         835.427 
       0.267535         980.391         743.532 
       0.283568         861.367         651.409 
       0.299022         821.683         584.114 
       0.314451         845.056         534.187 
       0.330372         729.109          485.15 
       0.346141         671.329          437.47 
       0.361624         642.565         398.423 
       0.377134         609.319         366.864 
       0.392932         584.527          337.64 
       0.408854         557.439         309.587 
       0.424564         541.549         285.147 
       0.440253         494.167         264.364 
       0.455999         472.564         245.563 
       0.471626         479.351         228.131 
        0.48727         451.801         212.316 
       0.502856         422.246          198.33 
       0.518488         418.139         185.632 
       0.534347         393.075         173.725 
       0.550082         376.712          162.87 
       0.565732         373.518         153.069 
       0.581496         361.649         144.046 
       0.597222          351.27         135.729 
       0.612804         342.296         128.106 
       0.628434         328.625         121.055 
       0.644267         315.916         114.474 
       0.660051         311.551           108.4 
       0.675724         305.459         102.798 
       0.691403         298.455         97.5847 
       0.707174          286.75         92.7011 
       0.722871         282.081         88.1688 
        0.73838         278.367         83.9858 
       0.754018         267.376         80.0409 
       0.769845         266.241         76.3049 
        0.78569         259.345         72.8025 
       0.801365         251.489         69.5533 
       0.817031         248.666         66.5039 
       0.832809         243.559         63.6177 
       0.848511         237.494         60.9152 
       0.864097         231.301         58.3879 
       0.879701         230.148         56.0013 
       0.895507         224.055         53.7196 
       0.911279          218.33         51.5694 
        0.92691         215.552         49.5543 
       0.942635         213.709         47.6356 
       0.958396         207.972          45.814 
       0.974128         205.051         44.0908 
       0.989692          197.56         42.4729 
        1.00528         197.285         40.9335 
        1.02113         194.093         39.4461 
        1.03692         189.459         38.0378 
        1.05264         186.142         36.7044 
        1.06832          185.75         35.4369 
        1.08405         180.423         34.2256 
        1.09979         179.004           33.07 
        1.11537         175.566          31.979 
        1.13105         172.345         30.9305 
        1.14679         170.653         29.9248 
        1.16256         167.785         28.9617 
        1.17828         165.888          28.044 
        1.19395         161.468          27.169 
         1.2097         160.596         26.3267 
        1.22537         159.311         25.5241 
          1.241          154.84         24.7572 
        1.25666         153.398         24.0197 
        1.27241         150.045         23.3088 
        1.28819         148.481         22.6253 
        1.30392          146.59         21.9711 
        1.31957         142.821         21.3455 
        1.33529         141.096          20.742 
        1.35108         139.704         20.1593 
        1.36674         136.966          19.603 
         1.3824          136.07         19.0681 
        1.39811         133.475         18.5514 
        1.41389         131.069         18.0517 
        1.42964          129.32         17.5712 
        1.44531         128.129         17.1105 
        1.46101         125.319         16.6652 
        1.47667         124.922          16.237 
        1.49229         122.945          15.825 
        1.50793           120.6         15.4267 
        1.52367         119.076         15.0395 
        1.53953         116.898         14.6629 
        1.55526         116.387         14.3022 
        1.57092         114.898          13.955 
        1.58662         112.563         13.6185 
        1.60235         111.182         13.2924 
        1.61809         109.873         12.9767 
        1.63369         107.985         12.6741 
        1.64941         107.489         12.3788 
        1.66519         105.775         12.0919 
        1.68085         103.595         11.8161 
        1.69652         102.786         11.5487 
        1.71228         101.679         11.2881 
        1.72806         100.623         11.0352 
        1.74368         98.8823         10.7926 
        1.75933         98.1009         10.5568 
        1.77505          96.399         10.3268 
        1.79081         95.1051         10.1033 
         1.8065         93.3453         9.88733 
        1.82218          92.437         9.67781 
        1.83797         92.0292         9.47289 
        1.85367         90.3105         9.27501 
        1.86928         89.7877         9.08393 
        1.88497         88.0674         8.89717 
        1.90073         87.4058         8.71494 
        1.91647         85.8954         8.53794 
        1.93218         84.8875         8.36621 
        1.94787         83.5486         8.19943 
        1.96363         82.9045         8.03651 
        1.97935         82.0614         7.87832 
        1.99499         81.2829         7.72526 
        2.01064         79.3226         7.57603 
         2.0264         78.9077         7.42977 
        2.04216          77.338         7.28743 
        2.05781         76.8719         7.14969 
        2.07353         75.9407         7.01499 
        2.08928         74.8267         6.88346 
        2.10499         73.9045         6.75563 
        2.12065         73.4307         6.63141 
        2.13633         72.3977         6.51018 
        2.15211         71.2167         6.39119 
        2.16785         70.1872         6.27549 
        2.18349         69.4234         6.16335 
        2.19916         68.5637         6.05371 
        2.21489         67.7963         5.94635 
        2.23063         66.7543         5.84151 
         2.2463         66.3203         5.73965 
        2.26194         65.5002         5.64046 
        2.27765         64.6408         5.54309 
        2.29341         63.9465         5.44776 
        2.30914         63.1542         5.35484 
        2.32486         61.9775         5.26413 
        2.34061         61.4352         5.17536 
        2.35635         60.7948         5.08871 
        2.37203         59.8946         5.00432 
        2.38768         59.3307         4.92201 
        2.40339         58.7435         4.84124 
        2.41914          57.608         4.76209 
        2.43483         57.3958         4.68497 
         2.4505         56.5235         4.60968 
        2.46622         56.0957         4.53578 
        2.48195         55.3162         4.46348 
        2.49759         54.7092         4.39313 
        2.51328         54.0754          4.3241 
        2.52906         53.4355         4.25611 
        2.54479         52.8584         4.18983 
        2.56049         52.0883         4.12508 
        2.57618         51.5318         4.06174 
        2.59189          51.056         3.99963 
        2.60758          50.343         3.93891 
        2.62325         49.8546         3.87951 
        2.63898         49.4003         3.82113 
        2.65468         48.8385         3.76406 
        2.67044         48.3202          3.7079 
        2.68618         47.8529         3.65301 
        2.70184         47.2535         3.59945 
        2.71755         46.4308         3.54681 
        2.73329         46.1548         3.49515 
        2.74897          45.714         3.44467 
        2.76462         45.3317         3.39529 
        2.78034         44.7639         3.34668 
        2.79607         44.0568         3.29895 
        2.81179         43.6209         3.25221 
        2.82749         43.2483         3.20642 
        2.84321         42.9007         3.16145 
        2.85893         42.3492         3.11735 
        2.87462         41.7113         3.07416 
        2.89033         41.2987         3.03175 
        2.90605         40.7777          2.9901 
        2.92176         40.5588         2.94924 
        2.93747         40.0123         2.90916 
        2.95318         39.5918         2.86981 
        2.96891         39.1423         2.83117 
        2.98456          38.848         2.79341 
        3.00023         38.2444         2.75627 
        3.01596         37.8868         2.71969 
        3.03164         37.5164         2.68387 
        3.04738         37.1465         2.64859 
         3.0631         36.8765         2.61395 
        3.07883         36.3681         2.57993 
        3.09456         35.9852         2.54651 
        3.11026         35.6111         2.51373 
        3.12596         35.2619         2.48153 
        3.14163          34.826         2.44996 
        3.15734         34.5672         2.41886 
        3.17308         34.2183         2.38822 
        3.18879         33.9064          2.3582 
        3.20447         33.4274         2.32873 
         3.2202         33.1125         2.29967 
         3.2359         32.8727         2.27115 
        3.25157         32.3964         2.24319 
        3.26729         32.1899          2.2156 
        3.28304         31.8909         2.18842 
        3.29877         31.4388         2.16173 
        3.31446         31.1863         2.13554 
        3.33014         30.8206         2.10981 
        3.34585         30.4736         2.08445 
        3.36158         30.2318         2.05947 
        3.37727         29.8924         2.03498 
        3.39294         29.5959          2.0109 
        3.40867         29.3806         1.98713 
        3.42439         29.0404         1.96375 
        3.44008         28.7787         1.94078 
        3.45578         28.4589         1.91817 
        3.47153           28.31         1.89586 
        3.48724         27.8997         1.87395 
        3.50292         27.7136         1.85243 
        3.51859         27.4223         1.83125 
        3.53431         27.1957         1.81034 
        3.55007         26.7793          1.7897 
        3.56577          26.627         1.76946 
        3.58146         26.3278         1.74954 
        3.59719         26.1125         1.72988 
        3.61292         25.8579         1.71053 
        3.62859         25.5962         1.69154 
        3.64429         25.3437         1.67281 
        3.66003          25.079         1.65429 
        3.67578         24.8927         1.63607 
        3.69146         24.6577         1.61818 
        3.70712         24.3717         1.60059 
        3.72284         24.2044          1.5832 
        3.73853          24.011         1.56609 
        3.75422         23.7439         1.54923 
        3.76993         23.5389          1.5326 
        3.78564          23.268         1.51621 
        3.80137         23.1309         1.50004 
        3.81707         22.8826         1.48414 
        3.83279         22.6316         1.46845 
        3.84853         22.4391         1.45297 
        3.86424         22.1264         1.43773 
        3.87992         21.9771         1.42274 
        3.89561         21.8432         1.40795 
        3.91134         21.5528         1.39335 
        3.92704          21.378         1.37896 
        3.94273           21.15          1.3648 
        3.95845         21.0004          1.3508 
        3.97418         20.8147           1.337 
        3.98988         20.5991          1.3234 
        4.00554         20.3663         1.31003 
        4.02125         20.2394         1.29681 
        4.03698         20.0396         1.28375 
        4.05268          19.852         1.27089 
        4.06839         19.6794          1.2582 
         4.0841         19.4813         1.24569 
        4.09983         19.3082         1.23332 
        4.11555         19.1587         1.22113 
        4.13124         19.0587         1.20914 
        4.14693         18.8319         1.19729 
        4.16266         18.6867         1.18558 
        4.17839         18.4986         1.17403 
        4.19408          18.313         1.16266 
        4.20977         18.1791         1.15143 
        4.22551         18.0542         1.14032 
        4.24123         17.8349         1.12937 
        4.25691         17.7246         1.11859 
        4.27259         17.5861         1.10795 
        4.28831          17.427         1.09742 
        4.30404         17.2265         1.08702 
        4.31974         17.1154         1.07678 
        4.33543          16.964         1.06667 
        4.35116         16.8351         1.05667 
        4.36688         16.6488          1.0468 
        4.38255         16.5129         1.03709 
        4.39825         16.3934         1.02748 
        4.41398          16.237         1.01797 
         4.4297         16.1538         1.00859 
        4.44541         15.9739        0.999336 
        4.46111         15.7822          0.9902 
        4.47683         15.6814        0.981171 
        4.49251         15.5611        0.972272 
        4.50819         15.4291        0.963484 
         4.5239         15.3097        0.954792 
        4.53962         15.1943        0.946196 
        4.55535         15.0567          0.9377 
        4.57106           14.96        0.929321 
        4.58678         14.7792        0.921041 
         4.6025         14.6566        0.912859 
        4.61821         14.5728        0.904777 
        4.63391         14.4322        0.896803 
         4.6496         14.3104        0.888927 
        4.66532         14.1738        0.881133 
        4.68103         14.0906        0.873436 
        4.69673         13.9666        0.865836 
        4.71241         13.8685        0.858334 
        4.72811         13.7419        0.850908 
        4.74384         13.6403         0.84356 
        4.75955         13.4915        0.836309 
        4.77525          13.397        0.829147 
        4.79096         13.2969        0.822059 
        4.80669         13.2168         0.81505 
         4.8224          13.105         0.80813 
        4.83809          12.954        0.801297 
        4.85379         12.8635        0.794538 
         4.8695            12.8        0.787851 
        4.88521         12.6644        0.781244 
        4.90093         12.5476        0.774711 
        4.91663         12.4778        0.768257 
        4.93234         12.3824         0.76187 
        4.94807         12.2791         0.75555 
        4.96377          12.186        0.749314 
        4.97943         12.0964         0.74316 
        4.99514         11.9729         0.73706 
        5.01086         11.8975        0.731022 
        5.02654          11.815        0.725067 
        5.04227         11.7216        0.719161 
          5.058          11.614        0.713317 
        5.07371         11.5384        0.707549 
        5.08942         11.4563        0.701843 
        5.10513          11.353        0.696199 
        5.12084         11.2855        0.690614 
        5.13656         11.1807        0.685091 
        5.15225         11.1115        0.679637 
        5.16796         11.0223        0.674234 
        5.18369         10.9296        0.668883 
         5.1994         10.8563          0.6636 
        5.21509         10.7487        0.658379 
        5.23079         10.6914        0.653207 
        5.24649         10.5856        0.648094 
        5.26217         10.5182        0.643039 
        5.27788         10.4454        0.638031 
        5.29359         10.3523        0.633074 
        5.30933         10.2766        0.628163 
        5.32504         10.2183        0.623311 
        5.34073         10.1435        0.618516 
        5.35646         10.0807        0.613761 
        5.37218         9.98437        0.609055 
        5.38789         9.90041        0.604406 
        5.40357         9.84228         0.59981 
        5.41929         9.75868        0.595251 
        5.43502         9.68843        0.590739 
         5.4507         9.61555        0.586283 
        5.46639         9.52471        0.581873 
        5.48212           9.492        0.577498 
        5.49786         9.41835        0.573162 
        5.51353         9.34417        0.568891 
        5.52921         9.27982         0.56466 
        5.54495         9.22607        0.560459 
        5.56066         9.13492        0.556305 
        5.57637         9.08159        0.552193 
        5.59207         9.00132        0.548126 
        5.60778          8.9508        0.544098 
        5.62346         8.87707        0.540116 
        5.63916           8.816         0.53617 
        5.65487         8.77415         0.53226 
         5.6706         8.68336        0.528385 
        5.68633         8.61907        0.524547 
        5.70203         8.56579        0.520755 
        5.71773         8.49729           0.517 
        5.73344         8.45736         0.51328 
        5.74916         8.39779        0.509593 
        5.76486         8.32302        0.505947 
        5.78054         8.27468        0.502342 
        5.79626         8.21195        0.498762 
          5.812         8.15378        0.495213 
         5.8277         8.10056        0.491708 
        5.84339         8.00895        0.488237 
        5.85911         7.99068        0.484793 
        5.87484         7.92054        0.481382 
        5.89053         7.86489        0.478011 
        5.90623         7.82748         0.47467 
        5.92195          7.7613        0.471355 
        5.93767         7.72517        0.468073 
        5.95336         7.64034        0.464828 
        5.96905         7.60187        0.461614 
        5.98476         7.55382        0.458426 
        6.00048         7.50345        0.455267 
        6.01617         7.45059        0.452142 
        6.03185         7.40222        0.449049 
        6.04756         7.35243        0.445978 
        6.06331         7.30006        0.442929 
        6.07903         7.25295        0.439914 
        6.09473         7.19305         0.43693 
        6.11044         7.14282        0.433971 
        6.12616         7.10767         0.43104 
        6.14186         7.06857        0.428138 
        6.15755          7.0171        0.425263 
        6.17326         6.97621        0.422412 
        6.18898         6.91832        0.419586 
        6.20467         6.87557         0.41679 
        6.22036         6.82234         0.41402 
         6.2361          6.7798        0.411267 
         6.2518         6.74148        0.408544 
        6.26748         6.69436        0.405851 
        6.28319         6.65481        0.403175 
        6.29893         6.60302         0.40052 
        6.31463         6.55837        0.397894 
        6.33033         6.51086        0.395292 
        6.34604         6.47677        0.392711 
        6.36177         6.44277         0.39015 
        6.37747         6.38129        0.387617 
