# k  (h/Mpc)    Pcb(k)  (Mpc/h)^3    Pcb_linear(k) (Mpc/h)^3   ShotnoiseSubtracted = true
      0.0200456         28665.8         29369.1 
      0.0350414         19726.4         20816.7 
      0.0492313         14659.4           15058 
      0.0637834         12627.5         12343.7 
      0.0800726         9736.64         9531.81 
       0.096163         6692.53          6874.9 
       0.111083         5462.98         5542.37 
       0.126058         4979.33         4866.89 
       0.142273         4264.13         4011.38 
       0.158546         3795.67         3158.11 
        0.17375         3061.71         2700.84 
       0.188953         2993.63         2430.26 
       0.204907         2793.04         2101.01 
       0.220756         2429.37         1768.92 
        0.23588          2196.3         1556.98 
         0.2514         1921.67         1412.52 
       0.267535         1920.71         1257.15 
       0.283568         1739.63         1101.39 
       0.299022         1656.88         987.606 
       0.314451         1574.04         903.191 
       0.330372         1437.17         820.279 
       0.346141         1409.33         739.663 
       0.361624         1355.13         673.644 
       0.377134         1269.76         620.285 
       0.392932         1208.16         570.874 
       0.408854         1195.56         523.442 
       0.424564         1097.46         482.119 
       0.440253          1076.2         446.981 
       0.455999         1056.05         415.192 
       0.471626         1018.14         385.718 
        0.48727         977.412         358.979 
       0.502856         941.108         335.332 
       0.518488         942.753         313.862 
       0.534347          884.22          293.73 
       0.550082         872.309         275.376 
       0.565732         859.952         258.805 
       0.581496         819.291         243.549 
       0.597222         798.355         229.487 
       0.612804         788.475         216.599 
       0.628434          767.23         204.677 
       0.644267          749.39          193.55 
       0.660051          735.08          183.28 
       0.675724         723.325         173.809 
       0.691403         704.133         164.994 
       0.707174         678.996         156.737 
       0.722871         666.006         149.074 
        0.73838          656.47         142.001 
       0.754018         644.291         135.331 
       0.769845         634.043         129.014 
        0.78569         625.001         123.093 
       0.801365          606.46         117.599 
       0.817031         597.618         112.443 
       0.832809         588.252         107.563 
       0.848511         577.562         102.994 
       0.864097          557.87         98.7209 
       0.879701         549.395         94.6856 
       0.895507         547.719         90.8277 
       0.911279         537.156         87.1922 
        0.92691         527.685         83.7852 
       0.942635         512.466          80.541 
       0.958396         503.898         77.4612 
       0.974128         498.153         74.5476 
       0.989692         493.725         71.8121 
        1.00528         478.495         69.2093 
        1.02113         474.782         66.6944 
        1.03692         466.981         64.3133 
        1.05264         458.807          62.059 
        1.06832         449.372         59.9158 
        1.08405         441.255         57.8678 
        1.09979         436.311         55.9139 
        1.11537         430.029         54.0693 
        1.13105         423.142         52.2965 
        1.14679         411.604         50.5961 
        1.16256         405.053         48.9677 
        1.17828         402.384         47.4161 
        1.19395         395.186         45.9366 
         1.2097         384.324         44.5126 
        1.22537         378.438         43.1555 
          1.241         371.888         41.8588 
        1.25666         370.148          40.612 
        1.27241         362.461         39.4099 
        1.28819         354.066         38.2543 
        1.30392         350.048         37.1482 
        1.31957         343.069         36.0905 
        1.33529         341.555           35.07 
        1.35108         334.001         34.0848 
        1.36674         328.759         33.1443 
         1.3824         324.941         32.2399 
        1.39811         318.429         31.3662 
        1.41389         315.403         30.5214 
        1.42964         310.415          29.709 
        1.44531         308.159           28.93 
        1.46101         300.394         28.1771 
        1.47667         295.183         27.4532 
        1.49229         292.388         26.7565 
        1.50793         285.919         26.0831 
        1.52367         283.855         25.4284 
        1.53953         276.924         24.7917 
        1.55526         275.572         24.1818 
        1.57092         271.676         23.5948 
        1.58662         267.551         23.0259 
        1.60235         263.471         22.4744 
        1.61809         258.993         21.9407 
        1.63369          256.14          21.429 
        1.64941         251.036         20.9298 
        1.66519         249.381         20.4447 
        1.68085          246.01         19.9783 
        1.69652         243.088         19.5263 
        1.71228         237.242         19.0856 
        1.72806          233.83         18.6581 
        1.74368         229.905         18.2479 
        1.75933         229.095         17.8491 
        1.77505         225.301         17.4604 
        1.79081         222.937         17.0824 
         1.8065         217.655         16.7173 
        1.82218         215.281          16.363 
        1.83797         213.474         16.0165 
        1.85367         210.295          15.682 
        1.86928         205.871         15.3589 
        1.88497         204.712         15.0431 
        1.90073         200.528          14.735 
        1.91647         198.897         14.4357 
        1.93218         195.441         14.1454 
        1.94787         192.779         13.8634 
        1.96363         189.863         13.5879 
        1.97935         187.235         13.3205 
        1.99499          184.81         13.0617 
        2.01064         182.506         12.8094 
         2.0264         180.621         12.5621 
        2.04216         178.191         12.3214 
        2.05781         176.403         12.0885 
        2.07353         173.814         11.8608 
        2.08928         169.965         11.6384 
        2.10499         168.936         11.4222 
        2.12065         166.759         11.2122 
        2.13633         164.242         11.0073 
        2.15211         161.787         10.8061 
        2.16785         160.793         10.6104 
        2.18349         158.964         10.4208 
        2.19916           156.3         10.2355 
        2.21489         154.967         10.0539 
        2.23063         152.364         9.87668 
         2.2463         150.184         9.70447 
        2.26194         148.117         9.53676 
        2.27765         146.303         9.37213 
        2.29341         144.188         9.21093 
        2.30914         142.836         9.05384 
        2.32486         141.373         8.90047 
        2.34061         138.769         8.75038 
        2.35635         137.554         8.60386 
        2.37203         135.666         8.46118 
        2.38768         134.209         8.32202 
        2.40339         132.364         8.18546 
        2.41914         131.017         8.05162 
        2.43483         128.832         7.92124 
         2.4505         127.574         7.79393 
        2.46622         126.219         7.66898 
        2.48195         124.097         7.54673 
        2.49759         122.694         7.42779 
        2.51328         121.885         7.31108 
        2.52906         120.748         7.19613 
        2.54479         118.618         7.08406 
        2.56049         116.698         6.97458 
        2.57618         115.947          6.8675 
        2.59189         114.584         6.76248 
        2.60758         113.013         6.65981 
        2.62325         111.304         6.55939 
        2.63898         110.377         6.46067 
        2.65468          108.93         6.36418 
        2.67044         107.761         6.26923 
        2.68618         106.408         6.17643 
        2.70184         105.371         6.08586 
        2.71755          104.23         5.99687 
        2.73329         102.899         5.90951 
        2.74897         101.805         5.82416 
        2.76462         100.611         5.74068 
        2.78034         99.0378         5.65848 
        2.79607         98.1357         5.57779 
        2.81179         97.0871         5.49876 
        2.82749         96.3604         5.42133 
        2.84321         94.3987          5.3453 
        2.85893         93.9934         5.27074 
        2.87462         93.0361         5.19772 
        2.89033         91.5082         5.12601 
        2.90605         90.7636         5.05558 
        2.92176         89.5243          4.9865 
        2.93747         88.8989         4.91874 
        2.95318         87.8627         4.85221 
        2.96891         87.0243         4.78687 
        2.98456         86.1641         4.72302 
        3.00023         85.2781         4.66023 
        3.01596         84.1572         4.59838 
        3.03164         83.3578         4.53783 
        3.04738         82.4656         4.47817 
         3.0631         81.7002         4.41961 
        3.07883          80.285         4.36208 
        3.09456           79.43         4.30557 
        3.11026         79.0984         4.25015 
        3.12596         78.1908          4.1957 
        3.14163           77.34         4.14233 
        3.15734          76.733         4.08975 
        3.17308          75.735         4.03795 
        3.18879         74.7842         3.98719 
        3.20447         74.2813         3.93736 
         3.2202         73.3096         3.88823 
         3.2359         72.7559         3.84001 
        3.25157         71.8934         3.79273 
        3.26729         71.3005         3.74608 
        3.28304          70.452         3.70013 
        3.29877         69.5466         3.65501 
        3.31446          69.118         3.61072 
        3.33014         68.1576         3.56721 
        3.34585         67.7862         3.52434 
        3.36158         66.8088         3.48211 
        3.37727         66.1622         3.44069 
        3.39294         65.4885         3.39999 
        3.40867         64.8549         3.35979 
        3.42439         64.2376         3.32025 
        3.44008         63.4509         3.28143 
        3.45578         62.9421         3.24319 
        3.47153         62.2049         3.20548 
        3.48724         61.8777         3.16842 
        3.50292         61.0762         3.13204 
        3.51859         60.5272         3.09623 
        3.53431         59.9113         3.06088 
        3.55007         59.2603         3.02598 
        3.56577         58.6909         2.99176 
        3.58146          58.193         2.95808 
        3.59719         57.7306         2.92484 
        3.61292         57.0066         2.89212 
        3.62859          56.442         2.86002 
        3.64429         55.9735         2.82834 
        3.66003         55.3748         2.79704 
        3.67578         54.8761         2.76622 
        3.69146          54.329         2.73598 
        3.70712         53.9113         2.70624 
        3.72284         53.4097         2.67683 
        3.73853         52.8429          2.6479 
        3.75422         52.2953         2.61939 
        3.76993         51.8727         2.59127 
        3.78564         51.3837         2.56358 
        3.80137         50.9118         2.53624 
        3.81707         50.4264         2.50935 
        3.83279          49.847         2.48283 
        3.84853         49.5311         2.45664 
        3.86424         49.0445         2.43088 
        3.87992         48.6698         2.40553 
        3.89561         48.2051         2.38053 
        3.91134         47.6774         2.35584 
        3.92704         47.3245         2.33152 
        3.94273         46.9106         2.30756 
        3.95845         46.4921          2.2839 
        3.97418         46.0483         2.26056 
        3.98988         45.5406         2.23758 
        4.00554         45.2463         2.21497 
        4.02125         44.7606         2.19261 
        4.03698         44.2694         2.17053 
        4.05268         43.9101         2.14879 
        4.06839         43.4898         2.12733 
         4.0841         43.1515         2.10618 
        4.09983         42.7465         2.08527 
        4.11555         42.3808         2.06466 
        4.13124         42.0649         2.04438 
        4.14693         41.6669         2.02436 
        4.16266         41.2711         2.00455 
        4.17839         40.9373         1.98502 
        4.19408           40.56         1.96579 
        4.20977         40.1357         1.94681 
        4.22551          39.919         1.92803 
        4.24123          39.494         1.90951 
        4.25691         39.2115         1.89129 
        4.27259         38.8017         1.87329 
        4.28831         38.6061         1.85549 
        4.30404         38.2267         1.83791 
        4.31974         37.9744         1.82059 
        4.33543         37.6289          1.8035 
        4.35116         37.1911         1.78659 
        4.36688         36.8754          1.7699 
        4.38255         36.5865         1.75348 
        4.39825          36.284         1.73724 
        4.41398         36.0289         1.72116 
         4.4297         35.6936         1.70531 
        4.44541         35.3153         1.68965 
        4.46111         35.0613         1.67421 
        4.47683         34.7214         1.65894 
        4.49251         34.4572         1.64389 
        4.50819         34.1992         1.62904 
         4.5239         33.9595         1.61434 
        4.53962         33.5744          1.5998 
        4.55535         33.4065         1.58544 
        4.57106         33.0679         1.57127 
        4.58678         32.7673         1.55727 
         4.6025         32.5484         1.54344 
        4.61821         32.2946         1.52977 
        4.63391         31.9318         1.51629 
         4.6496         31.6275         1.50298 
        4.66532         31.3879          1.4898 
        4.68103         31.1948         1.47678 
        4.69673         30.9005         1.46393 
        4.71241         30.5957         1.45125 
        4.72811         30.4564         1.43869 
        4.74384         30.1271         1.42627 
        4.75955          29.846         1.41401 
        4.77525         29.7057          1.4019 
        4.79096         29.4752         1.38992 
        4.80669         29.1745         1.37807 
         4.8224         28.9838         1.36637 
        4.83809         28.7985         1.35481 
        4.85379           28.46         1.34339 
         4.8695         28.2527         1.33208 
        4.88521         28.0352         1.32091 
        4.90093          27.877         1.30986 
        4.91663         27.6341         1.29895 
        4.93234         27.4207         1.28815 
        4.94807         27.1689         1.27747 
        4.96377         26.9019         1.26692 
        4.97943         26.8175         1.25652 
        4.99514          26.478          1.2462 
        5.01086         26.2967         1.23599 
        5.02654         26.1106         1.22593 
        5.04227         25.9341         1.21594 
          5.058         25.7058         1.20606 
        5.07371         25.5048         1.19631 
        5.08942         25.3221         1.18666 
        5.10513         25.0883         1.17712 
        5.12084          24.913         1.16767 
        5.13656         24.7087         1.15834 
        5.15225         24.5489         1.14911 
        5.16796         24.3181         1.13998 
        5.18369         24.1949         1.13093 
         5.1994          23.956           1.122 
        5.21509         23.8369         1.11317 
        5.23079         23.5446         1.10443 
        5.24649         23.4075         1.09578 
        5.26217         23.2429         1.08724 
        5.27788         23.0559         1.07877 
        5.29359         22.8802         1.07039 
        5.30933         22.7375         1.06208 
        5.32504         22.5277         1.05388 
        5.34073         22.3442         1.04577 
        5.35646         22.2637         1.03773 
        5.37218         22.0753         1.02978 
        5.38789         21.8635         1.02191 
        5.40357         21.7101         1.01414 
        5.41929         21.5401         1.00644 
        5.43502         21.3938        0.998806 
         5.4507         21.2712        0.991274 
        5.46639         21.0965        0.983817 
        5.48212         20.9464        0.976419 
        5.49786         20.7714        0.969088 
        5.51353         20.6162        0.961868 
        5.52921         20.4196        0.954713 
        5.54495          20.339         0.94761 
        5.56066         20.1667        0.940586 
        5.57637          20.011        0.933634 
        5.59207         19.9007        0.926758 
        5.60778         19.6898        0.919948 
        5.62346         19.5779        0.913215 
        5.63916         19.4468        0.906543 
        5.65487         19.3138        0.899933 
         5.6706         19.1388        0.893381 
        5.68633         19.0116        0.886892 
        5.70203         18.8604        0.880479 
        5.71773         18.6996        0.874131 
        5.73344         18.5434        0.867842 
        5.74916         18.4539        0.861608 
        5.76486         18.3436        0.855443 
        5.78054         18.1763        0.849348 
        5.79626         18.0899        0.843294 
          5.812         17.9702        0.837294 
         5.8277         17.8326        0.831368 
        5.84339         17.6817          0.8255 
        5.85911         17.5786        0.819676 
        5.87484         17.4487        0.813909 
        5.89053         17.3398        0.808209 
        5.90623          17.185         0.80256 
        5.92195         17.1035        0.796955 
        5.93767         16.9653        0.791407 
        5.95336         16.8445        0.785919 
        5.96905         16.7435        0.780486 
        5.98476         16.6073        0.775096 
        6.00048         16.4996        0.769754 
        6.01617         16.3649         0.76447 
        6.03185         16.2801        0.759241 
        6.04756         16.1394        0.754049 
        6.06331         16.0359        0.748893 
        6.07903         15.9274        0.743796 
        6.09473         15.7768        0.738751 
        6.11044         15.6963        0.733748 
        6.12616         15.5972        0.728792 
        6.14186          15.501        0.723886 
        6.15755         15.3719        0.719025 
        6.17326         15.2786        0.714204 
        6.18898         15.1604        0.709426 
        6.20467         15.0475        0.704699 
        6.22036         14.9704        0.700015 
         6.2361         14.8597        0.695361 
         6.2518         14.7703        0.690756 
        6.26748         14.6527        0.686203 
        6.28319         14.5608        0.681678 
        6.29893         14.4714         0.67719 
        6.31463         14.3872        0.672749 
        6.33033         14.2712         0.66835 
        6.34604         14.1657        0.663986 
        6.36177          14.075        0.659657 
        6.37747         13.9888        0.655374 
