# k  (h/Mpc)    Pcb(k)  (Mpc/h)^3    Pcb_linear(k) (Mpc/h)^3   ShotnoiseSubtracted = true
      0.0200456         8200.78         8305.52 
      0.0350414         6035.84         5886.92 
      0.0492313         4239.49         4258.38 
      0.0637834         3394.47         3490.76 
      0.0800726         2612.34         2695.58 
       0.096163          2013.9         1944.21 
       0.111083         1644.62         1567.37 
       0.126058         1370.26         1376.35 
       0.142273          1148.7         1134.41 
       0.158546         936.941         893.106 
        0.17375         819.856         763.793 
       0.188953         748.712         687.272 
       0.204907         628.275         594.162 
       0.220756         558.712         500.247 
        0.23588         496.207         440.311 
         0.2514         443.689         399.457 
       0.267535         422.697         355.518 
       0.283568         366.755          311.47 
       0.299022         346.742         279.293 
       0.314451         340.954         255.421 
       0.330372         293.369         231.973 
       0.346141         270.653         209.175 
       0.361624         255.678         190.505 
       0.377134         235.268         175.415 
       0.392932         228.218         161.442 
       0.408854         215.393         148.028 
       0.424564         205.788         136.342 
       0.440253         185.649         126.405 
       0.455999         174.726         117.415 
       0.471626         171.105          109.08 
        0.48727         163.804         101.519 
       0.502856         149.191         94.8311 
       0.518488         147.757         88.7595 
       0.534347         137.664         83.0664 
       0.550082         134.298         77.8757 
       0.565732         131.688         73.1896 
       0.581496         121.288         68.8751 
       0.597222         118.535         64.8983 
       0.612804         114.251         61.2538 
       0.628434         111.042         57.8823 
       0.644267         105.177         54.7355 
       0.660051         101.996         51.8313 
       0.675724         100.217         49.1527 
       0.691403         97.7176         46.6599 
       0.707174         94.0624         44.3248 
       0.722871         92.2838         42.1577 
        0.73838         89.8585         40.1576 
       0.754018         84.3208         38.2714 
       0.769845         83.7879          36.485 
        0.78569         81.2905         34.8104 
       0.801365         78.6085         33.2567 
       0.817031         76.0095         31.7987 
       0.832809         74.5525         30.4186 
       0.848511         72.8085         29.1265 
       0.864097         71.3861         27.9181 
       0.879701         69.9656         26.7769 
       0.895507         67.2884         25.6859 
       0.911279         66.1545         24.6578 
        0.92691         64.3156         23.6943 
       0.942635         62.7881         22.7768 
       0.958396         62.6488         21.9059 
       0.974128         61.0737         21.0819 
       0.989692         59.4816         20.3083 
        1.00528         58.3277         19.5723 
        1.02113         56.9535          18.861 
        1.03692         56.7451         18.1877 
        1.05264         55.5546         17.5501 
        1.06832         53.8624         16.9441 
        1.08405         53.0824         16.3649 
        1.09979         52.6629         15.8123 
        1.11537         51.1755         15.2907 
        1.13105         50.0329         14.7893 
        1.14679          49.473         14.3085 
        1.16256         48.6053          13.848 
        1.17828         48.0839         13.4092 
        1.19395         46.7107         12.9908 
         1.2097         46.8076         12.5881 
        1.22537         45.5453         12.2043 
          1.241         45.1581         11.8376 
        1.25666          43.798          11.485 
        1.27241         43.7063          11.145 
        1.28819         42.8893         10.8182 
        1.30392         42.1245         10.5054 
        1.31957         41.8722         10.2063 
        1.33529         41.1511         9.91773 
        1.35108         40.4497          9.6391 
        1.36674         39.7829         9.37313 
         1.3824         39.2001         9.11739 
        1.39811         38.5325          8.8703 
        1.41389         37.9839         8.63139 
        1.42964         37.7156         8.40164 
        1.44531         36.9229         8.18134 
        1.46101         36.6432         7.96843 
        1.47667         36.1184          7.7637 
        1.49229         35.4996         7.56668 
        1.50793         35.2182         7.37624 
        1.52367         34.6236          7.1911 
        1.53953         34.4049         7.01105 
        1.55526         33.7611         6.83857 
        1.57092         33.4171         6.67257 
        1.58662          32.921         6.51166 
        1.60235         32.4692         6.35573 
        1.61809         32.0673         6.20479 
        1.63369          31.646         6.06008 
        1.64941         31.2624         5.91892 
        1.66519         30.7969         5.78172 
        1.68085         30.4015         5.64983 
        1.69652         30.0131         5.52199 
        1.71228         29.8397         5.39737 
        1.72806         29.3583         5.27647 
        1.74368         28.9053         5.16047 
        1.75933         28.7631          5.0477 
        1.77505         28.4909         4.93776 
        1.79081         28.0916         4.83088 
         1.8065         27.6826          4.7276 
        1.82218          27.282         4.62742 
        1.83797          27.123         4.52944 
        1.85367         26.6954         4.43483 
        1.86928         26.7209         4.34346 
        1.88497         26.1289         4.25416 
        1.90073         25.9442         4.16703 
        1.91647         25.7122          4.0824 
        1.93218         25.5581         4.00029 
        1.94787         25.2051         3.92054 
        1.96363         24.7925         3.84264 
        1.97935         24.6039           3.767 
        1.99499          24.402         3.69382 
        2.01064         24.0031         3.62246 
         2.0264         23.8254         3.55253 
        2.04216         23.7004         3.48447 
        2.05781         23.3914         3.41861 
        2.07353         23.1019          3.3542 
        2.08928         22.8461         3.29131 
        2.10499         22.6178         3.23019 
        2.12065         22.3589         3.17079 
        2.13633         22.2067         3.11283 
        2.15211         21.8203         3.05593 
        2.16785         21.7338         3.00061 
        2.18349         21.4923         2.94699 
        2.19916         21.2741         2.89457 
        2.21489         21.0378         2.84324 
        2.23063         20.9124         2.79311 
         2.2463         20.6822          2.7444 
        2.26194          20.423         2.69697 
        2.27765         20.2364         2.65042 
        2.29341         19.9581         2.60483 
        2.30914         19.7902         2.56041 
        2.32486         19.6444         2.51703 
        2.34061         19.4434         2.47459 
        2.35635         19.1854         2.43315 
        2.37203         19.0599          2.3928 
        2.38768         18.8596         2.35345 
        2.40339         18.7658         2.31483 
        2.41914           18.56         2.27698 
        2.43483         18.4512         2.24011 
         2.4505         18.1054         2.20411 
        2.46622         17.9666         2.16877 
        2.48195         17.8183          2.1342 
        2.49759         17.5684         2.10056 
        2.51328         17.4431         2.06756 
        2.52906         17.3241         2.03505 
        2.54479         17.1423         2.00336 
        2.56049         17.0471          1.9724 
        2.57618         16.8977         1.94211 
        2.59189         16.6354         1.91242 
        2.60758         16.4677         1.88338 
        2.62325         16.3436         1.85498 
        2.63898         16.2516         1.82706 
        2.65468         16.0864         1.79978 
        2.67044         15.8876         1.77292 
        2.68618         15.7352         1.74668 
        2.70184         15.5901         1.72107 
        2.71755         15.4197          1.6959 
        2.73329         15.3019          1.6712 
        2.74897         15.1876         1.64706 
        2.76462         15.0709         1.62345 
        2.78034         14.8483         1.60021 
        2.79607         14.7657         1.57739 
        2.81179         14.6516         1.55504 
        2.82749          14.459         1.53314 
        2.84321         14.3984         1.51164 
        2.85893         14.2018         1.49055 
        2.87462         14.0947          1.4699 
        2.89033         13.9968         1.44962 
        2.90605         13.8338         1.42971 
        2.92176         13.6891         1.41017 
        2.93747         13.6024         1.39101 
        2.95318         13.4817         1.37219 
        2.96891         13.3338         1.35372 
        2.98456         13.2669         1.33566 
        3.00023         13.1164          1.3179 
        3.01596         13.0185         1.30041 
        3.03164         12.8992         1.28329 
        3.04738         12.7743         1.26642 
         3.0631         12.6757         1.24986 
        3.07883         12.5708         1.23359 
        3.09456         12.4416         1.21761 
        3.11026         12.3605         1.20193 
        3.12596         12.2514         1.18654 
        3.14163         12.1184         1.17144 
        3.15734         12.0279         1.15657 
        3.17308          11.951         1.14192 
        3.18879         11.7845         1.12757 
        3.20447         11.7615         1.11348 
         3.2202         11.6028         1.09958 
         3.2359         11.5182         1.08595 
        3.25157         11.4506         1.07257 
        3.26729         11.3029         1.05938 
        3.28304         11.2295         1.04639 
        3.29877         11.1976         1.03363 
        3.31446         11.0534         1.02111 
        3.33014         10.9817          1.0088 
        3.34585         10.8468        0.996676 
        3.36158         10.7672        0.984733 
        3.37727         10.6966        0.973021 
        3.39294         10.6015        0.961509 
        3.40867         10.4956         0.95014 
        3.42439         10.4097        0.938961 
        3.44008         10.3447        0.927981 
        3.45578         10.2197        0.917168 
        3.47153         10.1448        0.906502 
        3.48724         10.1011        0.896023 
        3.50292         10.0065        0.885733 
        3.51859         9.92124        0.875608 
        3.53431         9.81802        0.865609 
        3.55007         9.76437        0.855741 
        3.56577         9.64691        0.846064 
        3.58146         9.56516         0.83654 
        3.59719         9.49532         0.82714 
        3.61292         9.45466        0.817886 
        3.62859         9.34905        0.808807 
        3.64429         9.28024        0.799848 
        3.66003          9.1854        0.790996 
        3.67578         9.12406        0.782281 
        3.69146         9.04815        0.773728 
        3.70712          8.9666        0.765319 
        3.72284           8.902        0.757002 
        3.73853         8.84317        0.748822 
        3.75422         8.75618        0.740759 
        3.76993         8.67271        0.732807 
        3.78564          8.6352        0.724974 
        3.80137         8.54874        0.717242 
        3.81707         8.46728        0.709638 
        3.83279         8.41827        0.702138 
        3.84853         8.34287        0.694733 
        3.86424          8.2594        0.687448 
        3.87992         8.22794        0.680278 
        3.89561         8.14775        0.673209 
        3.91134         8.08348        0.666225 
        3.92704         8.03982        0.659348 
        3.94273         7.95755        0.652574 
        3.95845         7.87792        0.645882 
        3.97418         7.82229        0.639282 
        3.98988         7.79668        0.632782 
        4.00554         7.70014        0.626389 
        4.02125         7.65659        0.620066 
        4.03698         7.61117         0.61382 
        4.05268         7.53556        0.607673 
        4.06839         7.47178        0.601606 
         4.0841         7.40717        0.595622 
        4.09983         7.34078        0.589711 
        4.11555         7.27327        0.583882 
        4.13124          7.2296        0.578147 
        4.14693         7.16111        0.572484 
        4.16266         7.12675        0.566883 
        4.17839         7.04087        0.561359 
        4.19408         7.02166        0.555921 
        4.20977         6.92494        0.550553 
        4.22551         6.89875        0.545241 
        4.24123          6.8478        0.540005 
        4.25691         6.80109        0.534852 
        4.27259         6.73531        0.529763 
        4.28831         6.68128         0.52473 
        4.30404         6.64908        0.519757 
        4.31974         6.58448        0.514859 
        4.33543         6.53785        0.510026 
        4.35116          6.4592        0.505243 
        4.36688         6.42424        0.500523 
        4.38255         6.40236        0.495881 
        4.39825         6.32241        0.491286 
        4.41398         6.27337        0.486741 
         4.4297           6.233        0.482257 
        4.44541         6.18705         0.47783 
        4.46111         6.14917        0.473462 
        4.47683         6.12066        0.469145 
        4.49251         6.05626        0.464889 
        4.50819         5.99788        0.460688 
         4.5239         5.95269        0.456532 
        4.53962          5.9182        0.452421 
        4.55535         5.86504        0.448359 
        4.57106         5.83877        0.444353 
        4.58678         5.79136        0.440393 
         4.6025         5.73796        0.436481 
        4.61821         5.69632        0.432617 
        4.63391         5.65958        0.428804 
         4.6496         5.61695        0.425038 
        4.66532         5.57577        0.421312 
        4.68103         5.53513        0.417631 
        4.69673         5.49427        0.413998 
        4.71241         5.44109        0.410411 
        4.72811         5.41088         0.40686 
        4.74384         5.39072        0.403346 
        4.75955         5.34259        0.399879 
        4.77525         5.30817        0.396455 
        4.79096         5.27788        0.393066 
        4.80669         5.22636        0.389714 
         4.8224         5.18392        0.386405 
        4.83809         5.14789        0.383138 
        4.85379         5.11258        0.379907 
         4.8695         5.08126        0.376709 
        4.88521         5.04036         0.37355 
        4.90093         4.99583        0.370426 
        4.91663         4.96033         0.36734 
        4.93234         4.92588        0.364286 
        4.94807         4.89759        0.361265 
        4.96377         4.85936        0.358283 
        4.97943         4.82116         0.35534 
        4.99514         4.79221        0.352423 
        5.01086         4.75873        0.349537 
        5.02654         4.71464        0.346689 
        5.04227         4.70107        0.343865 
          5.058         4.64852        0.341071 
        5.07371         4.62408        0.338313 
        5.08942         4.59276        0.335585 
        5.10513         4.55968        0.332886 
        5.12084         4.53076        0.330216 
        5.13656         4.49293        0.327575 
        5.15225         4.46359        0.324967 
        5.16796         4.44019        0.322383 
        5.18369         4.39882        0.319825 
         5.1994          4.3699        0.317299 
        5.21509         4.35077        0.314802 
        5.23079          4.3145        0.312329 
        5.24649         4.28135        0.309885 
        5.26217         4.25945        0.307468 
        5.27788          4.2269        0.305073 
        5.29359         4.20233        0.302703 
        5.30933         4.17404        0.300355 
        5.32504         4.14566        0.298035 
        5.34073         4.11651        0.295742 
        5.35646         4.09853        0.293469 
        5.37218          4.0606        0.291218 
        5.38789         4.04211        0.288995 
        5.40357         4.00036        0.286798 
        5.41929         3.97602        0.284618 
        5.43502         3.95428         0.28246 
         5.4507          3.9292         0.28033 
        5.46639         3.90131        0.278221 
        5.48212         3.88222        0.276129 
        5.49786         3.85791        0.274056 
        5.51353         3.82996        0.272014 
        5.52921          3.8072        0.269991 
        5.54495         3.77926        0.267982 
        5.56066         3.75586        0.265996 
        5.57637         3.72286         0.26403 
        5.59207         3.70432        0.262085 
        5.60778         3.67533        0.260159 
        5.62346         3.65968        0.258255 
        5.63916         3.63583        0.256368 
        5.65487         3.61294        0.254499 
         5.6706          3.5858        0.252646 
        5.68633         3.56112        0.250811 
        5.70203         3.54595        0.248998 
        5.71773         3.52897        0.247202 
        5.73344         3.50042        0.245424 
        5.74916         3.47522        0.243661 
        5.76486         3.45695        0.241918 
        5.78054         3.43738        0.240194 
        5.79626         3.41048        0.238482 
          5.812         3.38927        0.236785 
         5.8277         3.36915        0.235109 
        5.84339         3.34899         0.23345 
        5.85911         3.32976        0.231803 
        5.87484         3.30384        0.230172 
        5.89053         3.28626         0.22856 
        5.90623         3.26731        0.226962 
        5.92195         3.24862        0.225377 
        5.93767         3.22504        0.223808 
        5.95336         3.21008        0.222256 
        5.96905         3.18615         0.22072 
        5.98476         3.16974        0.219195 
        6.00048          3.1485        0.217685 
        6.01617         3.12651        0.216191 
        6.03185         3.10768        0.214712 
        6.04756         3.08583        0.213243 
        6.06331         3.07921        0.211785 
        6.07903         3.05383        0.210344 
        6.09473         3.03916        0.208917 
        6.11044         3.01103        0.207502 
        6.12616         3.00201        0.206101 
        6.14186         2.98002        0.204713 
        6.15755         2.96151        0.203339 
        6.17326         2.94362        0.201976 
        6.18898         2.92602        0.200624 
        6.20467         2.91136        0.199287 
        6.22036         2.89392        0.197963 
         6.2361         2.87343        0.196647 
         6.2518         2.85665        0.195344 
        6.26748         2.84746        0.194057 
        6.28319         2.82865        0.192777 
        6.29893         2.80896        0.191508 
        6.31463          2.7952        0.190252 
        6.33033         2.78248        0.189008 
        6.34604         2.76289        0.187774 
        6.36177         2.75079         0.18655 
        6.37747         2.73035        0.185338 
