# k  (h/Mpc)    Pcb(k)  (Mpc/h)^3    Pcb_linear(k) (Mpc/h)^3   ShotnoiseSubtracted = true
      0.0200456           17030         17370.2 
      0.0350414         11853.3         12311.9 
      0.0492313          8780.2            8906 
      0.0637834         7470.72          7300.6 
      0.0800726         5769.04         5637.54 
       0.096163         3983.68         4066.13 
       0.111083          3211.1            3278 
       0.126058          2939.1          2878.5 
       0.142273         2501.92         2372.51 
       0.158546         2138.01         1867.85 
        0.17375         1717.73          1597.4 
       0.188953         1666.19         1437.36 
       0.204907         1550.47         1242.63 
       0.220756         1328.98         1046.22 
        0.23588         1180.92         920.869 
         0.2514         1024.95         835.427 
       0.267535         1009.62         743.532 
       0.283568         912.655         651.409 
       0.299022         858.317         584.114 
       0.314451         814.122         534.187 
       0.330372         747.669          485.15 
       0.346141         692.919          437.47 
       0.361624         665.996         398.423 
       0.377134         616.806         366.864 
       0.392932         591.428          337.64 
       0.408854         572.373         309.587 
       0.424564         534.343         285.147 
       0.440253         524.288         264.364 
       0.455999         495.124         245.563 
       0.471626         471.176         228.131 
        0.48727         452.386         212.316 
       0.502856         439.235          198.33 
       0.518488          434.13         185.632 
       0.534347         405.063         173.725 
       0.550082         388.138          162.87 
       0.565732         386.636         153.069 
       0.581496         362.645         144.046 
       0.597222         357.035         135.729 
       0.612804         346.995         128.106 
       0.628434         333.695         121.055 
       0.644267         324.486         114.474 
       0.660051         315.716           108.4 
       0.675724         311.373         102.798 
       0.691403         301.323         97.5847 
       0.707174         290.681         92.7011 
       0.722871         286.588         88.1688 
        0.73838         282.299         83.9858 
       0.754018         274.437         80.0409 
       0.769845         265.753         76.3049 
        0.78569         264.783         72.8025 
       0.801365         255.311         69.5533 
       0.817031         247.251         66.5039 
       0.832809         245.528         63.6177 
       0.848511          238.36         60.9152 
       0.864097          234.58         58.3879 
       0.879701         230.878         56.0013 
       0.895507         225.751         53.7196 
       0.911279         218.201         51.5694 
        0.92691         217.897         49.5543 
       0.942635         211.876         47.6356 
       0.958396         209.237          45.814 
       0.974128         205.036         44.0908 
       0.989692         200.753         42.4729 
        1.00528         198.124         40.9335 
        1.02113         195.812         39.4461 
        1.03692         191.163         38.0378 
        1.05264          187.57         36.7044 
        1.06832         183.918         35.4369 
        1.08405         180.765         34.2256 
        1.09979         178.164           33.07 
        1.11537         175.037          31.979 
        1.13105         170.893         30.9305 
        1.14679         170.982         29.9248 
        1.16256         167.846         28.9617 
        1.17828         164.674          28.044 
        1.19395         161.793          27.169 
         1.2097         161.355         26.3267 
        1.22537          157.46         25.5241 
          1.241         156.023         24.7572 
        1.25666         152.982         24.0197 
        1.27241         150.346         23.3088 
        1.28819         148.544         22.6253 
        1.30392          145.33         21.9711 
        1.31957         145.176         21.3455 
        1.33529         141.094          20.742 
        1.35108         139.795         20.1593 
        1.36674         138.435          19.603 
         1.3824         136.454         19.0681 
        1.39811         135.422         18.5514 
        1.41389         132.723         18.0517 
        1.42964         130.243         17.5712 
        1.44531         128.279         17.1105 
        1.46101         126.555         16.6652 
        1.47667         124.636          16.237 
        1.49229         122.976          15.825 
        1.50793         121.715         15.4267 
        1.52367         120.439         15.0395 
        1.53953         117.825         14.6629 
        1.55526         116.528         14.3022 
        1.57092         115.187          13.955 
        1.58662         113.422         13.6185 
        1.60235         112.178         13.2924 
        1.61809         110.403         12.9767 
        1.63369         108.889         12.6741 
        1.64941         107.681         12.3788 
        1.66519         105.923         12.0919 
        1.68085         105.266         11.8161 
        1.69652         102.924         11.5487 
        1.71228         102.224         11.2881 
        1.72806         101.005         11.0352 
        1.74368         99.8515         10.7926 
        1.75933         98.3934         10.5568 
        1.77505         97.1426         10.3268 
        1.79081         96.0659         10.1033 
         1.8065         94.7288         9.88733 
        1.82218         93.0481         9.67781 
        1.83797         91.6273         9.47289 
        1.85367         91.0007         9.27501 
        1.86928         89.6481         9.08393 
        1.88497         88.1234         8.89717 
        1.90073         87.4225         8.71494 
        1.91647         86.3891         8.53794 
        1.93218         85.3589         8.36621 
        1.94787         84.2882         8.19943 
        1.96363         83.0774         8.03651 
        1.97935           81.73         7.87832 
        1.99499         81.2323         7.72526 
        2.01064         80.2055         7.57603 
         2.0264          78.947         7.42977 
        2.04216          78.214         7.28743 
        2.05781          77.052         7.14969 
        2.07353         75.8685         7.01499 
        2.08928         74.8847         6.88346 
        2.10499         73.7246         6.75563 
        2.12065         73.4204         6.63141 
        2.13633         72.5806         6.51018 
        2.15211         71.7291         6.39119 
        2.16785         70.4407         6.27549 
        2.18349         69.6221         6.16335 
        2.19916         68.8515         6.05371 
        2.21489          68.054         5.94635 
        2.23063         67.1008         5.84151 
         2.2463         66.2856         5.73965 
        2.26194         66.0965         5.64046 
        2.27765         64.9885         5.54309 
        2.29341         64.0751         5.44776 
        2.30914         63.3132         5.35484 
        2.32486         62.6579         5.26413 
        2.34061         61.8549         5.17536 
        2.35635         60.9568         5.08871 
        2.37203         60.0743         5.00432 
        2.38768         59.4501         4.92201 
        2.40339         58.8638         4.84124 
        2.41914         58.1906         4.76209 
        2.43483            57.9         4.68497 
         2.4505         56.9909         4.60968 
        2.46622          56.321         4.53578 
        2.48195         55.6767         4.46348 
        2.49759         54.9099         4.39313 
        2.51328         54.3168          4.3241 
        2.52906         53.8119         4.25611 
        2.54479         53.2193         4.18983 
        2.56049         52.3715         4.12508 
        2.57618          51.968         4.06174 
        2.59189         51.1202         3.99963 
        2.60758         50.7542         3.93891 
        2.62325         50.0715         3.87951 
        2.63898         49.6598         3.82113 
        2.65468         49.2317         3.76406 
        2.67044         48.4285          3.7079 
        2.68618         48.0365         3.65301 
        2.70184         47.5206         3.59945 
        2.71755         47.0684         3.54681 
        2.73329         46.3979         3.49515 
        2.74897         46.0125         3.44467 
        2.76462         45.4063         3.39529 
        2.78034         44.9337         3.34668 
        2.79607         44.4309         3.29895 
        2.81179         43.8916         3.25221 
        2.82749         43.3307         3.20642 
        2.84321         42.9792         3.16145 
        2.85893         42.4344         3.11735 
        2.87462         41.9331         3.07416 
        2.89033         41.4812         3.03175 
        2.90605         41.0078          2.9901 
        2.92176           40.62         2.94924 
        2.93747         40.2126         2.90916 
        2.95318         39.6487         2.86981 
        2.96891          39.114         2.83117 
        2.98456         38.9157         2.79341 
        3.00023         38.3559         2.75627 
        3.01596         38.1067         2.71969 
        3.03164         37.6384         2.68387 
        3.04738         37.3917         2.64859 
         3.0631         36.9099         2.61395 
        3.07883         36.5059         2.57993 
        3.09456         36.0726         2.54651 
        3.11026         35.7293         2.51373 
        3.12596         35.4326         2.48153 
        3.14163         34.9136         2.44996 
        3.15734         34.4807         2.41886 
        3.17308         34.3721         2.38822 
        3.18879         34.0684          2.3582 
        3.20447         33.5156         2.32873 
         3.2202          33.213         2.29967 
         3.2359         32.8606         2.27115 
        3.25157         32.6488         2.24319 
        3.26729         32.1263          2.2156 
        3.28304         31.8037         2.18842 
        3.29877         31.4928         2.16173 
        3.31446         31.2694         2.13554 
        3.33014         30.8422         2.10981 
        3.34585         30.6399         2.08445 
        3.36158         30.2904         2.05947 
        3.37727         29.9348         2.03498 
        3.39294          29.692          2.0109 
        3.40867         29.4009         1.98713 
        3.42439         29.1053         1.96375 
        3.44008         28.8942         1.94078 
        3.45578         28.4663         1.91817 
        3.47153         28.2244         1.89586 
        3.48724         27.9721         1.87395 
        3.50292          27.701         1.85243 
        3.51859         27.3997         1.83125 
        3.53431         27.1937         1.81034 
        3.55007          26.916          1.7897 
        3.56577         26.6603         1.76946 
        3.58146            26.4         1.74954 
        3.59719         26.1346         1.72988 
        3.61292         25.9203         1.71053 
        3.62859         25.5987         1.69154 
        3.64429          25.357         1.67281 
        3.66003         25.0714         1.65429 
        3.67578         24.8539         1.63607 
        3.69146         24.6677         1.61818 
        3.70712         24.4511         1.60059 
        3.72284         24.3193          1.5832 
        3.73853         23.9798         1.56609 
        3.75422         23.7827         1.54923 
        3.76993         23.5503          1.5326 
        3.78564         23.3428         1.51621 
        3.80137         23.1039         1.50004 
        3.81707         22.9167         1.48414 
        3.83279         22.7226         1.46845 
        3.84853         22.4764         1.45297 
        3.86424         22.2867         1.43773 
        3.87992         22.0565         1.42274 
        3.89561         21.8506         1.40795 
        3.91134         21.6519         1.39335 
        3.92704         21.4799         1.37896 
        3.94273         21.2633          1.3648 
        3.95845         20.9715          1.3508 
        3.97418         20.9069           1.337 
        3.98988         20.6731          1.3234 
        4.00554         20.4444         1.31003 
        4.02125         20.3412         1.29681 
        4.03698         20.0857         1.28375 
        4.05268         19.9216         1.27089 
        4.06839         19.7633          1.2582 
         4.0841         19.6113         1.24569 
        4.09983         19.4493         1.23332 
        4.11555         19.2669         1.22113 
        4.13124         19.0119         1.20914 
        4.14693         18.8676         1.19729 
        4.16266         18.6412         1.18558 
        4.17839         18.5176         1.17403 
        4.19408         18.3796         1.16266 
        4.20977         18.2214         1.15143 
        4.22551         18.0536         1.14032 
        4.24123         17.8748         1.12937 
        4.25691         17.7146         1.11859 
        4.27259         17.5632         1.10795 
        4.28831          17.423         1.09742 
        4.30404         17.2412         1.08702 
        4.31974          17.142         1.07678 
        4.33543         16.9622         1.06667 
        4.35116         16.8265         1.05667 
        4.36688         16.6598          1.0468 
        4.38255         16.5646         1.03709 
        4.39825          16.425         1.02748 
        4.41398         16.2746         1.01797 
         4.4297         16.1331         1.00859 
        4.44541         16.0082        0.999336 
        4.46111         15.8788          0.9902 
        4.47683         15.7224        0.981171 
        4.49251         15.6144        0.972272 
        4.50819         15.4668        0.963484 
         4.5239         15.3456        0.954792 
        4.53962         15.1694        0.946196 
        4.55535           15.05          0.9377 
        4.57106         14.9602        0.929321 
        4.58678         14.8304        0.921041 
         4.6025         14.6938        0.912859 
        4.61821          14.567        0.904777 
        4.63391         14.4592        0.896803 
         4.6496         14.3209        0.888927 
        4.66532         14.1916        0.881133 
        4.68103         14.1005        0.873436 
        4.69673         13.9752        0.865836 
        4.71241         13.8888        0.858334 
        4.72811         13.7514        0.850908 
        4.74384         13.6418         0.84356 
        4.75955          13.533        0.836309 
        4.77525         13.4539        0.829147 
        4.79096         13.3151        0.822059 
        4.80669         13.2068         0.81505 
         4.8224         13.1064         0.80813 
        4.83809         12.9865        0.801297 
        4.85379         12.8768        0.794538 
         4.8695         12.7901        0.787851 
        4.88521         12.7206        0.781244 
        4.90093         12.5618        0.774711 
        4.91663         12.4711        0.768257 
        4.93234         12.3983         0.76187 
        4.94807         12.2875         0.75555 
        4.96377         12.1968        0.749314 
        4.97943         12.0959         0.74316 
        4.99514         11.9821         0.73706 
        5.01086         11.9068        0.731022 
        5.02654         11.8015        0.725067 
        5.04227         11.7357        0.719161 
          5.058         11.6189        0.713317 
        5.07371         11.5452        0.707549 
        5.08942         11.4398        0.701843 
        5.10513         11.3521        0.696199 
        5.12084         11.2737        0.690614 
        5.13656         11.1824        0.685091 
        5.15225         11.1069        0.679637 
        5.16796         11.0044        0.674234 
        5.18369         10.9342        0.668883 
         5.1994         10.8617          0.6636 
        5.21509         10.7724        0.658379 
        5.23079         10.6899        0.653207 
        5.24649         10.5945        0.648094 
        5.26217         10.5275        0.643039 
        5.27788         10.4332        0.638031 
        5.29359         10.3775        0.633074 
        5.30933         10.2929        0.628163 
        5.32504         10.2391        0.623311 
        5.34073         10.1318        0.618516 
        5.35646         10.0783        0.613761 
        5.37218         9.97046        0.609055 
        5.38789         9.91711        0.604406 
        5.40357         9.84578         0.59981 
        5.41929         9.74878        0.595251 
        5.43502         9.68579        0.590739 
         5.4507         9.62526        0.586283 
        5.46639          9.5633        0.581873 
        5.48212         9.49152        0.577498 
        5.49786         9.42017        0.573162 
        5.51353          9.3445        0.568891 
        5.52921         9.28149         0.56466 
        5.54495         9.21503        0.560459 
        5.56066         9.12083        0.556305 
        5.57637         9.07577        0.552193 
        5.59207         8.98617        0.548126 
        5.60778         8.93178        0.544098 
        5.62346         8.88436        0.540116 
        5.63916          8.8125         0.53617 
        5.65487         8.75265         0.53226 
         5.6706         8.69431        0.528385 
        5.68633         8.63006        0.524547 
        5.70203         8.56714        0.520755 
        5.71773         8.50564           0.517 
        5.73344         8.45113         0.51328 
        5.74916          8.3969        0.509593 
        5.76486          8.3283        0.505947 
        5.78054         8.26719        0.502342 
        5.79626         8.19911        0.498762 
          5.812         8.14861        0.495213 
         5.8277         8.09006        0.491708 
        5.84339         8.05218        0.488237 
        5.85911         7.96682        0.484793 
        5.87484          7.9253        0.481382 
        5.89053         7.85602        0.478011 
        5.90623         7.79985         0.47467 
        5.92195         7.76983        0.471355 
        5.93767         7.70422        0.468073 
        5.95336         7.65021        0.464828 
        5.96905         7.60009        0.461614 
        5.98476         7.55028        0.458426 
        6.00048          7.5157        0.455267 
        6.01617          7.4463        0.452142 
        6.03185         7.39543        0.449049 
        6.04756         7.35656        0.445978 
        6.06331         7.30792        0.442929 
        6.07903         7.26015        0.439914 
        6.09473         7.20827         0.43693 
        6.11044         7.16054        0.433971 
        6.12616         7.12294         0.43104 
        6.14186         7.06094        0.428138 
        6.15755         7.01168        0.425263 
        6.17326         6.97129        0.422412 
        6.18898         6.91121        0.419586 
        6.20467         6.87535         0.41679 
        6.22036         6.83032         0.41402 
         6.2361          6.7788        0.411267 
         6.2518         6.72416        0.408544 
        6.26748         6.69479        0.405851 
        6.28319         6.64387        0.403175 
        6.29893         6.60421         0.40052 
        6.31463         6.56303        0.397894 
        6.33033          6.5134        0.395292 
        6.34604         6.47124        0.392711 
        6.36177         6.43722         0.39015 
        6.37747         6.39193        0.387617 
