# k  (h/Mpc)    Pcb(k)  (Mpc/h)^3    Pcb_linear(k) (Mpc/h)^3   ShotnoiseSubtracted = true
      0.0200456           16351         16592.1 
      0.0350414         12126.6         11760.4 
      0.0492313          8392.1         8507.04 
      0.0637834         6691.03         6973.56 
      0.0800726         5137.79            5385 
       0.096163         4058.46         3883.98 
       0.111083         3323.67         3131.16 
       0.126058         2739.82         2749.55 
       0.142273         2337.23         2266.23 
       0.158546         1913.65         1784.17 
        0.17375         1697.17         1525.84 
       0.188953         1583.53         1372.97 
       0.204907            1343         1186.97 
       0.220756          1204.3         999.352 
        0.23588         1075.08         879.617 
         0.2514         962.751         798.003 
       0.267535         929.921         710.225 
       0.283568          815.79         622.228 
       0.299022         778.296         557.948 
       0.314451         798.394         510.258 
       0.330372         687.521         463.417 
       0.346141         633.484         417.873 
       0.361624         606.051         380.575 
       0.377134         573.607          350.43 
       0.392932         550.929         322.515 
       0.408854         525.097         295.718 
       0.424564          509.61         272.373 
       0.440253         464.177         252.522 
       0.455999         443.953         234.563 
       0.471626         449.706         217.911 
        0.48727         424.032         202.805 
       0.502856         394.882         189.446 
       0.518488          392.16         177.316 
       0.534347         367.668         165.943 
       0.550082         352.884         155.574 
       0.565732         350.212         146.212 
       0.581496         338.095         137.593 
       0.597222         328.233         129.648 
       0.612804         319.672         122.368 
       0.628434         307.024         115.632 
       0.644267         294.754         109.346 
       0.660051         290.579         103.544 
       0.675724         285.207         98.1932 
       0.691403         278.475         93.2133 
       0.707174         267.547         88.5484 
       0.722871         263.192         84.2192 
        0.73838         259.986         80.2236 
       0.754018         249.196         76.4554 
       0.769845         248.306         72.8867 
        0.78569         241.714         69.5412 
       0.801365         234.563         66.4375 
       0.817031          231.52         63.5248 
       0.832809         226.816         60.7678 
       0.848511         221.005         58.1864 
       0.864097         215.322         55.7724 
       0.879701         214.299         53.4926 
       0.895507         208.901         51.3131 
       0.911279         203.273         49.2592 
        0.92691         200.485         47.3345 
       0.942635         198.823         45.5017 
       0.958396         193.695         43.7617 
       0.974128         190.692         42.1157 
       0.989692         183.938         40.5702 
        1.00528         183.558         39.0998 
        1.02113         180.356          37.679 
        1.03692         176.203         36.3338 
        1.05264         173.203         35.0602 
        1.06832         172.737         33.8494 
        1.08405         167.764         32.6924 
        1.09979         166.516         31.5886 
        1.11537         163.352         30.5464 
        1.13105         160.436         29.5449 
        1.14679         158.712         28.5843 
        1.16256         155.951         27.6643 
        1.17828           154.2         26.7877 
        1.19395         150.173         25.9519 
         1.2097         149.268         25.1474 
        1.22537         147.998         24.3807 
          1.241         144.094         23.6481 
        1.25666         142.501         22.9437 
        1.27241         139.218         22.2646 
        1.28819         137.902         21.6118 
        1.30392         136.073         20.9869 
        1.31957         132.698         20.3893 
        1.33529          131.19         19.8128 
        1.35108          129.69         19.2562 
        1.36674          127.26         18.7249 
         1.3824         126.525          18.214 
        1.39811         123.819         17.7203 
        1.41389         121.945         17.2431 
        1.42964         120.111         16.7841 
        1.44531         118.992          16.344 
        1.46101          116.36         15.9187 
        1.47667         116.125         15.5097 
        1.49229         114.376         15.1161 
        1.50793         112.164         14.7356 
        1.52367         110.646         14.3658 
        1.53953         108.863         14.0061 
        1.55526         108.215         13.6615 
        1.57092         106.842         13.3299 
        1.58662         104.929         13.0085 
        1.60235          103.42         12.6969 
        1.61809         102.433         12.3954 
        1.63369         100.589         12.1063 
        1.64941         100.245         11.8243 
        1.66519         98.5586         11.5502 
        1.68085         96.5993         11.2868 
        1.69652         95.7486         11.0314 
        1.71228         94.7177         10.7824 
        1.72806         93.6702         10.5409 
        1.74368         91.9855         10.3091 
        1.75933         91.3549         10.0839 
        1.77505         89.8407         9.86424 
        1.79081         88.6022         9.65073 
         1.8065         87.1101         9.44441 
        1.82218         86.2336         9.24428 
        1.83797         85.8881         9.04854 
        1.85367         84.0451         8.85952 
        1.86928          83.686         8.67701 
        1.88497         82.2425         8.49861 
        1.90073         81.5404         8.32454 
        1.91647         80.1131         8.15548 
        1.93218         79.1323         7.99144 
        1.94787         77.9878         7.83213 
        1.96363         77.3014          7.6765 
        1.97935         76.5933          7.5254 
        1.99499         75.8353          7.3792 
        2.01064         74.0255         7.23665 
         2.0264         73.6089         7.09694 
        2.04216         72.2382         6.96097 
        2.05781         71.7641         6.82941 
        2.07353          70.907         6.70075 
        2.08928         69.8825          6.5751 
        2.10499         69.0115           6.453 
        2.12065         68.6159         6.33434 
        2.13633         67.6833         6.21855 
        2.15211         66.5503         6.10489 
        2.16785         65.5359         5.99437 
        2.18349          64.916         5.88726 
        2.19916         64.1408         5.78252 
        2.21489         63.2928         5.67998 
        2.23063         62.4312         5.57983 
         2.2463         62.0121         5.48254 
        2.26194         61.2622         5.38779 
        2.27765         60.4672         5.29478 
        2.29341         59.8136         5.20372 
        2.30914         59.0683         5.11496 
        2.32486         57.9966         5.02832 
        2.34061         57.5148         4.94353 
        2.35635         56.9425         4.86075 
        2.37203         56.0798         4.78015 
        2.38768         55.5961         4.70152 
        2.40339          55.013         4.62437 
        2.41914           54.01         4.54876 
        2.43483         53.8007          4.4751 
         2.4505         53.0567         4.40318 
        2.46622          52.629         4.33259 
        2.48195         51.8864         4.26353 
        2.49759         51.3561         4.19633 
        2.51328           50.84          4.1304 
        2.52906         50.1868         4.06545 
        2.54479         49.5914         4.00214 
        2.56049         48.8301         3.94029 
        2.57618         48.3896         3.87979 
        2.59189         47.9642         3.82046 
        2.60758         47.2807         3.76246 
        2.62325         46.8519         3.70573 
        2.63898         46.4264         3.64996 
        2.65468          45.825         3.59544 
        2.67044         45.3865          3.5418 
        2.68618         44.9508         3.48937 
        2.70184         44.3152          3.4382 
        2.71755         43.6395         3.38793 
        2.73329         43.3994         3.33858 
        2.74897         43.0541         3.29036 
        2.76462         42.5601          3.2432 
        2.78034         42.0195         3.19676 
        2.79607         41.3793         3.15117 
        2.81179         41.0273         3.10652 
        2.82749         40.6977         3.06278 
        2.84321         40.3429         3.01983 
        2.85893         39.7938         2.97771 
        2.87462         39.1407         2.93645 
        2.89033         38.8438         2.89594 
        2.90605         38.3736         2.85615 
        2.92176         38.1403         2.81712 
        2.93747         37.6604         2.77884 
        2.95318         37.2915         2.74126 
        2.96891         36.8518         2.70434 
        2.98456         36.5532         2.66827 
        3.00023         36.0361          2.6328 
        3.01596         35.7555         2.59786 
        3.03164         35.3519         2.56364 
        3.04738         34.9428         2.52994 
         3.0631         34.7482         2.49686 
        3.07883         34.2815         2.46436 
        3.09456         33.9417         2.43243 
        3.11026         33.4948         2.40112 
        3.12596         33.2041         2.37036 
        3.14163         32.8243         2.34021 
        3.15734         32.5649          2.3105 
        3.17308         32.2671         2.28124 
        3.18879          31.902         2.25256 
        3.20447         31.4309         2.22441 
         3.2202         31.1498         2.19665 
         3.2359         31.0033         2.16942 
        3.25157         30.5216          2.1427 
        3.26729         30.3173         2.11635 
        3.28304         30.0597         2.09039 
        3.29877         29.6037          2.0649 
        3.31446         29.3928         2.03988 
        3.33014         29.0207         2.01529 
        3.34585         28.7271         1.99108 
        3.36158         28.4755         1.96722 
        3.37727         28.1669         1.94382 
        3.39294         27.9158         1.92082 
        3.40867         27.6905         1.89811 
        3.42439         27.3979         1.87578 
        3.44008         27.1471         1.85384 
        3.45578         26.8364         1.83224 
        3.47153         26.6671         1.81093 
        3.48724         26.2907            1.79 
        3.50292         26.1241         1.76944 
        3.51859         25.8472         1.74922 
        3.53431         25.5945         1.72924 
        3.55007         25.2327         1.70953 
        3.56577          25.011          1.6902 
        3.58146         24.7924         1.67117 
        3.59719         24.6069         1.65239 
        3.61292         24.3744          1.6339 
        3.62859         24.1128         1.61577 
        3.64429          23.857         1.59787 
        3.66003         23.6277         1.58019 
        3.67578         23.4338         1.56278 
        3.69146         23.2304         1.54569 
        3.70712         22.9838         1.52889 
        3.72284         22.8325         1.51227 
        3.73853         22.6159         1.49593 
        3.75422         22.3664         1.47983 
        3.76993         22.1746         1.46394 
        3.78564         21.9043         1.44829 
        3.80137         21.7505         1.43285 
        3.81707         21.5317         1.41766 
        3.83279          21.297         1.40267 
        3.84853         21.1707         1.38788 
        3.86424         20.8657         1.37333 
        3.87992         20.6982           1.359 
        3.89561         20.5852         1.34488 
        3.91134         20.3133         1.33093 
        3.92704         20.1441         1.31719 
        3.94273         19.9254         1.30366 
        3.95845         19.7981         1.29029 
        3.97418         19.6473          1.2771 
        3.98988         19.4141         1.26412 
        4.00554         19.2012         1.25135 
        4.02125         19.0471         1.23872 
        4.03698         18.8925         1.22624 
        4.05268         18.7312         1.21396 
        4.06839         18.5574         1.20184 
         4.0841         18.3842         1.18988 
        4.09983         18.2239         1.17808 
        4.11555         18.0719         1.16643 
        4.13124         17.9521         1.15497 
        4.14693         17.7688         1.14366 
        4.16266         17.5944         1.13247 
        4.17839          17.447         1.12144 
        4.19408         17.2928         1.11057 
        4.20977         17.1597         1.09985 
        4.22551          17.013         1.08924 
        4.24123         16.8333         1.07878 
        4.25691         16.6878         1.06848 
        4.27259         16.5752         1.05832 
        4.28831         16.4289         1.04826 
        4.30404         16.2388         1.03833 
        4.31974         16.1533         1.02854 
        4.33543         16.0096         1.01889 
        4.35116         15.8739         1.00933 
        4.36688         15.7193        0.999904 
        4.38255           15.56        0.990629 
        4.39825         15.4634        0.981451 
        4.41398           15.29         0.97237 
         4.4297          15.235        0.963413 
        4.44541         15.0647        0.954569 
        4.46111         14.8719        0.945843 
        4.47683         14.8001        0.937218 
        4.49251         14.6812        0.928717 
        4.50819         14.5547        0.920324 
         4.5239         14.4512        0.912021 
        4.53962         14.3455         0.90381 
        4.55535         14.1866        0.895695 
        4.57106         14.0859         0.88769 
        4.58678          13.951        0.879781 
         4.6025         13.8258        0.871966 
        4.61821         13.7316        0.864246 
        4.63391         13.6056        0.856629 
         4.6496         13.4708        0.849106 
        4.66532         13.3749        0.841662 
        4.68103          13.286        0.834309 
        4.69673         13.1651         0.82705 
        4.71241         13.0905        0.819884 
        4.72811         12.9513        0.812791 
        4.74384         12.8629        0.805772 
        4.75955         12.7357        0.798846 
        4.77525          12.629        0.792004 
        4.79096         12.5281        0.785234 
        4.80669         12.4601        0.778539 
         4.8224         12.3488        0.771929 
        4.83809         12.2104        0.765402 
        4.85379         12.1354        0.758946 
         4.8695          12.064        0.752558 
        4.88521          11.931        0.746247 
        4.90093         11.8266        0.740006 
        4.91663         11.7774        0.733842 
        4.93234         11.6729        0.727741 
        4.94807         11.5884        0.721704 
        4.96377         11.5114        0.715747 
        4.97943         11.4043         0.70987 
        4.99514         11.2938        0.704042 
        5.01086         11.2238        0.698275 
        5.02654         11.1548        0.692587 
        5.04227         11.0441        0.686945 
          5.058         10.9484        0.681363 
        5.07371         10.8882        0.675853 
        5.08942         10.7896        0.670403 
        5.10513         10.7269        0.665012 
        5.12084         10.6233        0.659677 
        5.13656          10.539        0.654401 
        5.15225         10.4753        0.649192 
        5.16796         10.4003         0.64403 
        5.18369         10.3016         0.63892 
         5.1994         10.2422        0.633873 
        5.21509          10.151        0.628886 
        5.23079         10.0847        0.623946 
        5.24649         9.97295        0.619062 
        5.26217         9.91882        0.614233 
        5.27788         9.84846        0.609449 
        5.29359         9.77176        0.604715 
        5.30933         9.69652        0.600024 
        5.32504         9.62403        0.595389 
        5.34073         9.56505        0.590809 
        5.35646         9.50437        0.586267 
        5.37218         9.40227        0.581772 
        5.38789         9.33472         0.57733 
        5.40357         9.27075         0.57294 
        5.41929         9.21612        0.568586 
        5.43502          9.1568        0.564276 
         5.4507         9.07293         0.56002 
        5.46639         8.99034        0.555807 
        5.48212         8.95376        0.551628 
        5.49786         8.88253        0.547486 
        5.51353          8.8104        0.543407 
        5.52921         8.75648        0.539365 
        5.54495         8.68593        0.535352 
        5.56066         8.61855        0.531384 
        5.57637         8.56971        0.527457 
        5.59207          8.4863        0.523572 
        5.60778         8.44369        0.519724 
        5.62346          8.3747        0.515921 
        5.63916          8.3172        0.512151 
        5.65487         8.27906        0.508417 
         5.6706         8.18819        0.504716 
        5.68633         8.12965        0.501049 
        5.70203         8.08313        0.497427 
        5.71773         8.02034         0.49384 
        5.73344         7.97774        0.490287 
        5.74916         7.91928        0.486765 
        5.76486          7.8529        0.483283 
        5.78054         7.81444        0.479839 
        5.79626         7.74114        0.476419 
          5.812         7.67933        0.473029 
         5.8277         7.63686        0.469681 
        5.84339         7.56277        0.466366 
        5.85911         7.54463        0.463076 
        5.87484         7.47232        0.459818 
        5.89053          7.4294        0.456598 
        5.90623         7.37947        0.453406 
        5.92195          7.3216         0.45024 
        5.93767         7.27607        0.447105 
        5.95336         7.21556        0.444005 
        5.96905         7.17977        0.440936 
        5.98476         7.12437         0.43789 
        6.00048         7.07857        0.434873 
        6.01617         7.02551        0.431887 
        6.03185         6.98132        0.428933 
        6.04756         6.93863           0.426 
        6.06331           6.887        0.423087 
        6.07903         6.84499        0.420208 
        6.09473         6.79425        0.417358 
        6.11044         6.74392        0.414531 
        6.12616         6.70769        0.411731 
        6.14186         6.66771        0.408959 
        6.15755         6.62674        0.406213 
        6.17326         6.58218         0.40349 
        6.18898         6.52649         0.40079 
        6.20467         6.48875         0.39812 
        6.22036         6.43281        0.395473 
         6.2361         6.40103        0.392844 
         6.2518         6.35609        0.390243 
        6.26748         6.31965        0.387671 
        6.28319         6.27328        0.385114 
        6.29893         6.23282        0.382578 
        6.31463         6.18935         0.38007 
        6.33033         6.15367        0.377584 
        6.34604         6.10531        0.375119 
        6.36177         6.06807        0.372673 
        6.37747         6.03338        0.370253 
