# k  (h/Mpc)    Pcb(k)  (Mpc/h)^3    Pcb_linear(k) (Mpc/h)^3   ShotnoiseSubtracted = true
      0.0200456         25069.9         25494.9 
      0.0350414         18701.6         18070.7 
      0.0492313         12772.2         13071.7 
      0.0637834         10165.9         10715.3 
      0.0800726         7790.19         8274.42 
       0.096163         6271.62            5968 
       0.111083         5135.16         4811.24 
       0.126058         4218.24         4224.87 
       0.142273         3650.94         3482.22 
       0.158546         2983.91          2741.5 
        0.17375         2689.19         2344.56 
       0.188953         2555.47         2109.67 
       0.204907         2183.45         1823.86 
       0.220756         1975.09         1535.57 
        0.23588          1765.2         1351.59 
         0.2514          1599.9         1226.19 
       0.267535          1536.3         1091.31 
       0.283568         1372.51         956.096 
       0.299022         1304.47         857.326 
       0.314451         1361.92         784.046 
       0.330372         1209.36         712.072 
       0.346141         1108.96          642.09 
       0.361624         1063.33          584.78 
       0.377134         1022.47          538.46 
       0.392932         968.015         495.567 
       0.408854         931.759         454.392 
       0.424564         912.168          418.52 
       0.440253         848.058         388.017 
       0.455999         809.666         360.422 
       0.471626         822.343         334.835 
        0.48727         775.206         311.624 
       0.502856         750.826         291.096 
       0.518488          722.99         272.459 
       0.534347         699.084         254.983 
       0.550082         666.547          239.05 
       0.565732         654.183         224.665 
       0.581496         639.592         211.421 
       0.597222         628.182         199.214 
       0.612804         611.658         188.026 
       0.628434         586.331         177.677 
       0.644267         570.673         168.018 
       0.660051         564.423         159.103 
       0.675724         552.588         150.881 
       0.691403         534.143         143.229 
       0.707174         519.444         136.061 
       0.722871          516.66         129.409 
        0.73838         501.535         123.269 
       0.754018          490.78         117.479 
       0.769845         484.365         111.995 
        0.78569         473.306         106.855 
       0.801365         457.744         102.086 
       0.817031          453.19         97.6102 
       0.832809         445.977          93.374 
       0.848511         438.793         89.4075 
       0.864097         428.493         85.6981 
       0.879701         429.311         82.1951 
       0.895507          411.96         78.8461 
       0.911279         406.841         75.6902 
        0.92691         401.374         72.7327 
       0.942635         395.564         69.9164 
       0.958396         383.743         67.2429 
       0.974128         377.894         64.7136 
       0.989692         368.721         62.3389 
        1.00528         363.064         60.0796 
        1.02113         357.798         57.8964 
        1.03692         352.342         55.8294 
        1.05264         347.704         53.8724 
        1.06832         339.199          52.012 
        1.08405         338.003         50.2341 
        1.09979         330.297          48.538 
        1.11537         322.011         46.9367 
        1.13105         318.349         45.3978 
        1.14679         312.649         43.9217 
        1.16256          310.79         42.5081 
        1.17828         306.062         41.1612 
        1.19395         297.972         39.8769 
         1.2097         295.132         38.6407 
        1.22537         291.253         37.4626 
          1.241         284.414          36.337 
        1.25666          281.89         35.2546 
        1.27241          278.55         34.2112 
        1.28819         271.102          33.208 
        1.30392         270.934         32.2478 
        1.31957         264.074         31.3296 
        1.33529         259.794         30.4437 
        1.35108         259.046         29.5885 
        1.36674         252.637          28.772 
         1.3824         248.583          27.987 
        1.39811         245.442         27.2285 
        1.41389         240.979         26.4952 
        1.42964         237.198         25.7899 
        1.44531         234.655         25.1137 
        1.46101         230.015         24.4601 
        1.47667         227.424         23.8317 
        1.49229         224.896         23.2269 
        1.50793         220.649         22.6423 
        1.52367         217.134          22.074 
        1.53953         214.306         21.5213 
        1.55526         210.822         20.9919 
        1.57092         209.564         20.4823 
        1.58662         204.823         19.9884 
        1.60235         202.185         19.5097 
        1.61809         200.341         19.0464 
        1.63369         196.419         18.6022 
        1.64941         193.799         18.1689 
        1.66519         190.839         17.7477 
        1.68085         187.743         17.3429 
        1.69652         185.842         16.9505 
        1.71228         183.059         16.5679 
        1.72806          180.82         16.1968 
        1.74368         178.321         15.8407 
        1.75933         176.955         15.4946 
        1.77505         174.169         15.1571 
        1.79081         171.146          14.829 
         1.8065          170.27          14.512 
        1.82218         165.685         14.2045 
        1.83797         164.599         13.9037 
        1.85367         162.215         13.6133 
        1.86928         159.789         13.3328 
        1.88497         158.481         13.0587 
        1.90073         156.643         12.7912 
        1.91647         153.953         12.5315 
        1.93218         150.982         12.2794 
        1.94787         149.268         12.0346 
        1.96363         148.497         11.7955 
        1.97935         146.685         11.5633 
        1.99499         144.251         11.3386 
        2.01064         141.633         11.1196 
         2.0264         140.968         10.9049 
        2.04216          138.23          10.696 
        2.05781         136.109         10.4939 
        2.07353         135.304         10.2962 
        2.08928         133.233         10.1031 
        2.10499         131.841         9.91548 
        2.12065         130.516         9.73316 
        2.13633         128.527         9.55523 
        2.15211         126.685         9.38058 
        2.16785         125.313         9.21076 
        2.18349          124.07         9.04618 
        2.19916         122.314         8.88525 
        2.21489         120.344         8.72768 
        2.23063         118.919          8.5738 
         2.2463         117.222          8.4243 
        2.26194         116.365         8.27871 
        2.27765         114.525          8.1358 
        2.29341         113.427         7.99587 
        2.30914         111.978          7.8595 
        2.32486         110.561         7.72636 
        2.34061         108.929         7.59607 
        2.35635          107.94         7.46888 
        2.37203         106.298         7.34502 
        2.38768         105.373         7.22421 
        2.40339         103.781         7.10567 
        2.41914         102.533         6.98949 
        2.43483         101.473          6.8763 
         2.4505         100.499         6.76579 
        2.46622         98.7352         6.65732 
        2.48195         97.6535          6.5512 
        2.49759         96.2353         6.44795 
        2.51328         95.3441         6.34664 
        2.52906         94.4341         6.24685 
        2.54479         93.2504         6.14957 
        2.56049         91.8579         6.05453 
        2.57618         90.9805         5.96157 
        2.59189         90.1741         5.87041 
        2.60758         88.6886         5.78128 
        2.62325         88.0157          5.6941 
        2.63898         86.8298         5.60841 
        2.65468         86.1672         5.52464 
        2.67044         85.0927         5.44222 
        2.68618         83.7463         5.36166 
        2.70184         83.0211         5.28304 
        2.71755         82.2901         5.20579 
        2.73329         80.9259         5.12995 
        2.74897         80.0728         5.05587 
        2.76462         79.7575          4.9834 
        2.78034         78.5105         4.91204 
        2.79607         77.4276         4.84199 
        2.81179         76.6215         4.77339 
        2.82749          76.101         4.70617 
        2.84321         74.8597         4.64017 
        2.85893         73.7815         4.57545 
        2.87462         73.3141         4.51206 
        2.89033         72.4831         4.44981 
        2.90605         71.5423         4.38867 
        2.92176         71.0974          4.3287 
        2.93747         70.1425         4.26988 
        2.95318          69.134         4.21213 
        2.96891         68.8109         4.15541 
        2.98456         67.6451         4.09998 
        3.00023         66.9468         4.04548 
        3.01596         66.4844         3.99179 
        3.03164         65.5158         3.93922 
        3.04738         65.2425         3.88743 
         3.0631         64.1891         3.83659 
        3.07883         63.5387         3.78665 
        3.09456         62.6681          3.7376 
        3.11026         62.5342         3.68949 
        3.12596          61.523         3.64223 
        3.14163         60.9305         3.59589 
        3.15734         60.0521         3.55025 
        3.17308         59.6807         3.50528 
        3.18879         59.0087         3.46122 
        3.20447          58.525         3.41796 
         3.2202          57.614         3.37531 
         3.2359         57.0036         3.33346 
        3.25157         56.5927         3.29241 
        3.26729         55.8777         3.25192 
        3.28304         55.3701         3.21203 
        3.29877         54.9089         3.17285 
        3.31446          54.052         3.13441 
        3.33014         53.6471         3.09664 
        3.34585          53.054         3.05943 
        3.36158         52.6226         3.02276 
        3.37727         52.2012         2.98681 
        3.39294         51.4766         2.95148 
        3.40867         51.1071         2.91658 
        3.42439         50.4587         2.88226 
        3.44008         50.0593         2.84856 
        3.45578         49.4189         2.81537 
        3.47153          48.949         2.78262 
        3.48724         48.4858         2.75046 
        3.50292         48.1888         2.71887 
        3.51859         47.5357         2.68779 
        3.53431         47.0413          2.6571 
        3.55007         46.5261         2.62681 
        3.56577         46.0728          2.5971 
        3.58146         45.5863         2.56787 
        3.59719         45.2282         2.53901 
        3.61292         44.6577         2.51061 
        3.62859         44.4018         2.48274 
        3.64429         43.9539         2.45524 
        3.66003         43.5512         2.42807 
        3.67578          42.969         2.40131 
        3.69146         42.6733         2.37506 
        3.70712         42.3336         2.34924 
        3.72284         41.8628         2.32371 
        3.73853         41.4889         2.29861 
        3.75422         41.1146         2.27385 
        3.76993         40.7109         2.24945 
        3.78564         40.3413          2.2254 
        3.80137         39.9735         2.20167 
        3.81707         39.4543         2.17833 
        3.83279         39.1762          2.1553 
        3.84853          38.876         2.13257 
        3.86424         38.4064         2.11021 
        3.87992         37.9814          2.0882 
        3.89561         37.7288          2.0665 
        3.91134         37.3436         2.04506 
        3.92704         37.0389         2.02395 
        3.94273         36.7161         2.00316 
        3.95845         36.3069         1.98262 
        3.97418         35.9815         1.96236 
        3.98988         35.7029         1.94241 
        4.00554         35.3154         1.92278 
        4.02125         35.0535         1.90337 
        4.03698         34.7302          1.8842 
        4.05268         34.3633         1.86533 
        4.06839         34.0982         1.84671 
         4.0841         33.8102         1.82834 
        4.09983         33.5124         1.81019 
        4.11555          33.246          1.7923 
        4.13124         32.7807          1.7747 
        4.14693         32.6142         1.75731 
        4.16266         32.3304         1.74012 
        4.17839         31.9437         1.72316 
        4.19408         31.6814         1.70647 
        4.20977         31.4489         1.68999 
        4.22551         31.1674         1.67369 
        4.24123         30.8756         1.65762 
        4.25691         30.6044          1.6418 
        4.27259         30.3434         1.62618 
        4.28831          30.142         1.61073 
        4.30404         29.8302         1.59546 
        4.31974         29.6114         1.58043 
        4.33543         29.3113         1.56559 
        4.35116         29.0215         1.55091 
        4.36688         28.7704         1.53642 
        4.38255         28.6227         1.52217 
        4.39825         28.3615         1.50807 
        4.41398         28.1531         1.49411 
         4.4297         27.8117         1.48035 
        4.44541         27.6294         1.46676 
        4.46111         27.2927         1.45335 
        4.47683         27.1717          1.4401 
        4.49251         26.9705         1.42704 
        4.50819         26.7228         1.41414 
         4.5239         26.4435         1.40138 
        4.53962         26.2261         1.38877 
        4.55535         26.0462          1.3763 
        4.57106         25.7727           1.364 
        4.58678         25.5647         1.35184 
         4.6025         25.4046         1.33984 
        4.61821         25.1656         1.32797 
        4.63391         25.0248         1.31627 
         4.6496         24.7306         1.30471 
        4.66532         24.5153         1.29327 
        4.68103          24.309         1.28197 
        4.69673         24.1702         1.27082 
        4.71241          23.984         1.25981 
        4.72811         23.7791         1.24891 
        4.74384         23.6107         1.23812 
        4.75955         23.4408         1.22748 
        4.77525         23.2356         1.21697 
        4.79096         22.9977         1.20657 
        4.80669         22.8433         1.19628 
         4.8224         22.6204         1.18612 
        4.83809         22.4192         1.17609 
        4.85379         22.2794         1.16617 
         4.8695         22.0874         1.15636 
        4.88521         21.9437         1.14666 
        4.90093         21.7424         1.13707 
        4.91663          21.588          1.1276 
        4.93234         21.3791         1.11822 
        4.94807         21.2302         1.10895 
        4.96377          21.048          1.0998 
        4.97943          20.879         1.09076 
        4.99514         20.7772         1.08181 
        5.01086         20.5912         1.07295 
        5.02654         20.4275         1.06421 
        5.04227         20.2549         1.05554 
          5.058         20.0278         1.04696 
        5.07371          19.933         1.03849 
        5.08942         19.7669         1.03012 
        5.10513         19.6115         1.02184 
        5.12084         19.4754         1.01364 
        5.13656         19.3311         1.00553 
        5.15225         19.2106        0.997528 
        5.16796         19.0359        0.989597 
        5.18369         18.8857        0.981744 
         5.1994         18.6928         0.97399 
        5.21509           18.59        0.966326 
        5.23079         18.4758        0.958735 
        5.24649         18.3353        0.951231 
        5.26217         18.1567        0.943812 
        5.27788         18.0451        0.936461 
        5.29359         17.8656        0.929186 
        5.30933           17.76        0.921978 
        5.32504         17.6299        0.914857 
        5.34073         17.4687        0.907819 
        5.35646          17.312         0.90084 
        5.37218         17.2175        0.893933 
        5.38789         17.1025        0.887108 
        5.40357         16.9876        0.880362 
        5.41929         16.8371        0.873671 
        5.43502         16.6928        0.867048 
         5.4507         16.5788        0.860509 
        5.46639         16.4643        0.854036 
        5.48212         16.3471        0.847614 
        5.49786         16.1967         0.84125 
        5.51353         16.0976        0.834983 
        5.52921         15.9532        0.828772 
        5.54495         15.8634        0.822606 
        5.56066         15.7399        0.816508 
        5.57637         15.6164        0.810473 
        5.59207         15.5019        0.804504 
        5.60778         15.4413        0.798592 
        5.62346          15.292        0.792748 
        5.63916         15.1707        0.786956 
        5.65487           15.04        0.781218 
         5.6706         14.9572         0.77553 
        5.68633         14.8623        0.769897 
        5.70203         14.7581        0.764331 
        5.71773         14.6677         0.75882 
        5.73344         14.5506         0.75336 
        5.74916         14.4332        0.747948 
        5.76486          14.307        0.742597 
        5.78054         14.1972        0.737306 
        5.79626         14.1493        0.732051 
          5.812         14.0296        0.726842 
         5.8277         13.8878        0.721698 
        5.84339         13.8215        0.716604 
        5.85911         13.7119        0.711548 
        5.87484         13.6139        0.706542 
        5.89053         13.5167        0.701594 
        5.90623         13.4292         0.69669 
        5.92195         13.2814        0.691825 
        5.93767         13.2255        0.687008 
        5.95336         13.1366        0.682245 
        5.96905         13.0451        0.677528 
        5.98476         12.9801        0.672849 
        6.00048         12.8642        0.668212 
        6.01617         12.7863        0.663625 
        6.03185          12.699        0.659086 
        6.04756         12.6282        0.654578 
        6.06331         12.5377        0.650103 
        6.07903         12.4012        0.645678 
        6.09473         12.3402        0.641299 
        6.11044         12.2693        0.636955 
        6.12616         12.1852        0.632653 
        6.14186         12.1085        0.628394 
        6.15755         12.0254        0.624174 
        6.17326         11.9377         0.61999 
        6.18898         11.8332        0.615841 
        6.20467         11.7498        0.611738 
        6.22036         11.6721        0.607672 
         6.2361         11.5779        0.603632 
         6.2518         11.5051        0.599635 
        6.26748          11.439        0.595682 
        6.28319         11.3737        0.591754 
        6.29893         11.2964        0.587858 
        6.31463         11.1992        0.584003 
        6.33033         11.1227        0.580184 
        6.34604         11.0694        0.576396 
        6.36177         11.0071        0.572638 
        6.37747         10.9373         0.56892 
