# k  (h/Mpc)    Pcb(k)  (Mpc/h)^3    Pcb_linear(k) (Mpc/h)^3   ShotnoiseSubtracted = true
      0.0200456         28852.7         29369.1 
      0.0350414         21569.9         20816.7 
      0.0492313         14654.7           15058 
      0.0637834         11661.9         12343.7 
      0.0800726         8930.31         9531.81 
       0.096163         7240.11          6874.9 
       0.111083         5924.23         5542.37 
       0.126058         4867.85         4866.89 
       0.142273         4233.14         4011.38 
       0.158546         3456.28         3158.11 
        0.17375         3137.05         2700.84 
       0.188953         3003.23         2430.26 
       0.204907         2569.69         2101.01 
       0.220756         2334.58         1768.92 
        0.23588         2087.41         1556.98 
         0.2514          1901.7         1412.52 
       0.267535         1820.72         1257.15 
       0.283568         1638.96         1101.39 
       0.299022         1554.67         987.606 
       0.314451         1625.07         903.191 
       0.330372         1464.39         820.279 
       0.346141         1346.36         739.663 
       0.361624         1288.95         673.644 
       0.377134         1246.26         620.285 
       0.392932         1172.31         570.874 
       0.408854         1135.55         523.442 
       0.424564         1112.14         482.119 
       0.440253         1044.76         446.981 
       0.455999         996.813         415.192 
       0.471626         1005.63         385.718 
        0.48727          952.58         358.979 
       0.502856         934.021         335.332 
       0.518488         892.866         313.862 
       0.534347         869.553          293.73 
       0.550082         833.864         275.376 
       0.565732         813.791         258.805 
       0.581496         795.435         243.549 
       0.597222         786.044         229.487 
       0.612804         763.233         216.599 
       0.628434         734.711         204.677 
       0.644267         716.266          193.55 
       0.660051         707.167          183.28 
       0.675724         695.724         173.809 
       0.691403         667.325         164.994 
       0.707174         653.643         156.737 
       0.722871         653.451         149.074 
        0.73838         628.645         142.001 
       0.754018          621.35         135.331 
       0.769845         609.369         129.014 
        0.78569         595.881         123.093 
       0.801365         579.609         117.599 
       0.817031         570.636         112.443 
       0.832809          560.76         107.563 
       0.848511         548.473         102.994 
       0.864097         540.514         98.7209 
       0.879701         543.392         94.6856 
       0.895507         524.239         90.8277 
       0.911279         519.579         87.1922 
        0.92691         509.006         83.7852 
       0.942635         500.351          80.541 
       0.958396          490.96         77.4612 
       0.974128         480.674         74.5476 
       0.989692         473.076         71.8121 
        1.00528          463.12         69.2093 
        1.02113         455.385         66.6944 
        1.03692         449.272         64.3133 
        1.05264         443.951          62.059 
        1.06832         434.701         59.9158 
        1.08405         431.508         57.8678 
        1.09979         420.929         55.9139 
        1.11537         412.175         54.0693 
        1.13105         406.852         52.2965 
        1.14679         400.895         50.5961 
        1.16256          396.91         48.9677 
        1.17828         391.416         47.4161 
        1.19395         383.237         45.9366 
         1.2097         375.431         44.5126 
        1.22537         371.561         43.1555 
          1.241         364.313         41.8588 
        1.25666         359.438          40.612 
        1.27241          358.01         39.4099 
        1.28819         348.886         38.2543 
        1.30392         345.277         37.1482 
        1.31957         338.867         36.0905 
        1.33529         334.183           35.07 
        1.35108         334.111         34.0848 
        1.36674         326.364         33.1443 
         1.3824         318.677         32.2399 
        1.39811         315.263         31.3662 
        1.41389         311.597         30.5214 
        1.42964          305.81          29.709 
        1.44531         301.557           28.93 
        1.46101         293.753         28.1771 
        1.47667         292.567         27.4532 
        1.49229         290.094         26.7565 
        1.50793         282.981         26.0831 
        1.52367         279.837         25.4284 
        1.53953          276.04         24.7917 
        1.55526         269.949         24.1818 
        1.57092         268.635         23.5948 
        1.58662         263.688         23.0259 
        1.60235         259.383         22.4744 
        1.61809         256.855         21.9407 
        1.63369         251.645          21.429 
        1.64941         249.592         20.9298 
        1.66519         245.586         20.4447 
        1.68085         241.214         19.9783 
        1.69652         238.459         19.5263 
        1.71228         235.247         19.0856 
        1.72806          231.68         18.6581 
        1.74368         228.069         18.2479 
        1.75933         226.322         17.8491 
        1.77505         222.364         17.4604 
        1.79081          219.39         17.0824 
         1.8065         217.938         16.7173 
        1.82218         212.478          16.363 
        1.83797         211.097         16.0165 
        1.85367         207.672          15.682 
        1.86928          204.23         15.3589 
        1.88497         202.227         15.0431 
        1.90073         199.778          14.735 
        1.91647         197.168         14.4357 
        1.93218         193.842         14.1454 
        1.94787         190.249         13.8634 
        1.96363         189.559         13.5879 
        1.97935         185.369         13.3205 
        1.99499         184.653         13.0617 
        2.01064         180.252         12.8094 
         2.0264          179.15         12.5621 
        2.04216         176.148         12.3214 
        2.05781         173.836         12.0885 
        2.07353         172.187         11.8608 
        2.08928          170.39         11.6384 
        2.10499         167.679         11.4222 
        2.12065         165.586         11.2122 
        2.13633         163.204         11.0073 
        2.15211         161.365         10.8061 
        2.16785         159.629         10.6104 
        2.18349         156.682         10.4208 
        2.19916         156.965         10.2355 
        2.21489         153.169         10.0539 
        2.23063         151.118         9.87668 
         2.2463         149.555         9.70447 
        2.26194          148.04         9.53676 
        2.27765         146.071         9.37213 
        2.29341         144.422         9.21093 
        2.30914         142.584         9.05384 
        2.32486         140.911         8.90047 
        2.34061         138.396         8.75038 
        2.35635         136.846         8.60386 
        2.37203         136.171         8.46118 
        2.38768         133.439         8.32202 
        2.40339         132.302         8.18546 
        2.41914         130.312         8.05162 
        2.43483         128.684         7.92124 
         2.4505         127.647         7.79393 
        2.46622         125.757         7.66898 
        2.48195         123.796         7.54673 
        2.49759         122.556         7.42779 
        2.51328         120.916         7.31108 
        2.52906          119.69         7.19613 
        2.54479         118.422         7.08406 
        2.56049         116.607         6.97458 
        2.57618         115.926          6.8675 
        2.59189         114.153         6.76248 
        2.60758         113.781         6.65981 
        2.62325         111.384         6.55939 
        2.63898         109.711         6.46067 
        2.65468         108.676         6.36418 
        2.67044         107.625         6.26923 
        2.68618         106.399         6.17643 
        2.70184         105.572         6.08586 
        2.71755         103.874         5.99687 
        2.73329         102.709         5.90951 
        2.74897         100.967         5.82416 
        2.76462         100.457         5.74068 
        2.78034         99.3944         5.65848 
        2.79607         98.1831         5.57779 
        2.81179         97.3792         5.49876 
        2.82749         95.9925         5.42133 
        2.84321          94.938          5.3453 
        2.85893         93.7954         5.27074 
        2.87462         92.3714         5.19772 
        2.89033         91.7994         5.12601 
        2.90605         90.5237         5.05558 
        2.92176         89.6424          4.9865 
        2.93747         88.6623         4.91874 
        2.95318         87.8158         4.85221 
        2.96891         86.8469         4.78687 
        2.98456         85.8673         4.72302 
        3.00023          84.972         4.66023 
        3.01596         84.0919         4.59838 
        3.03164         83.1425         4.53783 
        3.04738         82.2745         4.47817 
         3.0631         81.5782         4.41961 
        3.07883         80.6119         4.36208 
        3.09456         79.6662         4.30557 
        3.11026         78.9218         4.25015 
        3.12596         78.0355          4.1957 
        3.14163         77.1605         4.14233 
        3.15734         76.3519         4.08975 
        3.17308         75.4285         4.03795 
        3.18879         74.7826         3.98719 
        3.20447         73.9077         3.93736 
         3.2202          73.255         3.88823 
         3.2359         72.6193         3.84001 
        3.25157         71.8245         3.79273 
        3.26729         71.0452         3.74608 
        3.28304         70.1632         3.70013 
        3.29877         69.4802         3.65501 
        3.31446         68.8628         3.61072 
        3.33014         68.0719         3.56721 
        3.34585         67.5724         3.52434 
        3.36158         66.8087         3.48211 
        3.37727         66.0899         3.44069 
        3.39294         65.4366         3.39999 
        3.40867         64.7885         3.35979 
        3.42439         63.8879         3.32025 
        3.44008         63.2042         3.28143 
        3.45578         62.9453         3.24319 
        3.47153         62.2106         3.20548 
        3.48724         61.5174         3.16842 
        3.50292         61.0746         3.13204 
        3.51859         60.5605         3.09623 
        3.53431         59.5711         3.06088 
        3.55007         59.2274         3.02598 
        3.56577         58.5767         2.99176 
        3.58146         57.8846         2.95808 
        3.59719         57.6206         2.92484 
        3.61292         57.0349         2.89212 
        3.62859         56.4036         2.86002 
        3.64429         55.8348         2.82834 
        3.66003         55.4966         2.79704 
        3.67578         54.7814         2.76622 
        3.69146         54.2659         2.73598 
        3.70712         53.6273         2.70624 
        3.72284          53.085         2.67683 
        3.73853          52.721          2.6479 
        3.75422         52.2523         2.61939 
        3.76993         51.8414         2.59127 
        3.78564         51.1746         2.56358 
        3.80137         50.8465         2.53624 
        3.81707         50.2208         2.50935 
        3.83279         49.6071         2.48283 
        3.84853          49.316         2.45664 
        3.86424         48.9743         2.43088 
        3.87992         48.4126         2.40553 
        3.89561         48.0034         2.38053 
        3.91134         47.6514         2.35584 
        3.92704         47.0795         2.33152 
        3.94273         46.5638         2.30756 
        3.95845         46.2682          2.2839 
        3.97418         45.8235         2.26056 
        3.98988         45.2465         2.23758 
        4.00554         45.0052         2.21497 
        4.02125         44.4866         2.19261 
        4.03698         44.1664         2.17053 
        4.05268         43.7151         2.14879 
        4.06839         43.3602         2.12733 
         4.0841         42.9868         2.10618 
        4.09983         42.7064         2.08527 
        4.11555         42.1995         2.06466 
        4.13124         41.8057         2.04438 
        4.14693         41.4461         2.02436 
        4.16266          41.237         2.00455 
        4.17839         40.8106         1.98502 
        4.19408         40.4325         1.96579 
        4.20977          40.065         1.94681 
        4.22551         39.6737         1.92803 
        4.24123          39.298         1.90951 
        4.25691          38.934         1.89129 
        4.27259         38.6584         1.87329 
        4.28831         38.3053         1.85549 
        4.30404          37.974         1.83791 
        4.31974         37.5998         1.82059 
        4.33543         37.3115          1.8035 
        4.35116          36.976         1.78659 
        4.36688         36.7001          1.7699 
        4.38255         36.4013         1.75348 
        4.39825         36.1103         1.73724 
        4.41398         35.7564         1.72116 
         4.4297         35.3269         1.70531 
        4.44541           35.11         1.68965 
        4.46111          34.937         1.67421 
        4.47683          34.572         1.65894 
        4.49251         34.2867         1.64389 
        4.50819         34.0059         1.62904 
         4.5239         33.6708         1.61434 
        4.53962         33.4229          1.5998 
        4.55535         33.0809         1.58544 
        4.57106         32.8155         1.57127 
        4.58678         32.5446         1.55727 
         4.6025         32.1935         1.54344 
        4.61821         31.9437         1.52977 
        4.63391         31.7482         1.51629 
         4.6496         31.4445         1.50298 
        4.66532         31.3363          1.4898 
        4.68103         31.0243         1.47678 
        4.69673         30.6906         1.46393 
        4.71241          30.545         1.45125 
        4.72811         30.2666         1.43869 
        4.74384         29.9883         1.42627 
        4.75955         29.7531         1.41401 
        4.77525          29.571          1.4019 
        4.79096         29.2931         1.38992 
        4.80669         29.0244         1.37807 
         4.8224         28.8268         1.36637 
        4.83809         28.5628         1.35481 
        4.85379         28.3184         1.34339 
         4.8695         28.0948         1.33208 
        4.88521         27.8121         1.32091 
        4.90093         27.6817         1.30986 
        4.91663         27.4327         1.29895 
        4.93234         27.2086         1.28815 
        4.94807         26.9537         1.27747 
        4.96377         26.8233         1.26692 
        4.97943         26.5679         1.25652 
        4.99514         26.3786          1.2462 
        5.01086         26.1407         1.23599 
        5.02654         25.8521         1.22593 
        5.04227         25.7384         1.21594 
          5.058          25.579         1.20606 
        5.07371         25.3063         1.19631 
        5.08942         25.1873         1.18666 
        5.10513          24.933         1.17712 
        5.12084          24.779         1.16767 
        5.13656         24.5741         1.15834 
        5.15225         24.3614         1.14911 
        5.16796         24.1755         1.13998 
        5.18369          24.032         1.13093 
         5.1994         23.8125           1.122 
        5.21509         23.5947         1.11317 
        5.23079         23.4377         1.10443 
        5.24649         23.2666         1.09578 
        5.26217         23.0646         1.08724 
        5.27788         22.9084         1.07877 
        5.29359         22.6666         1.07039 
        5.30933         22.5793         1.06208 
        5.32504         22.3893         1.05388 
        5.34073         22.2176         1.04577 
        5.35646         22.1031         1.03773 
        5.37218         21.8936         1.02978 
        5.38789         21.7397         1.02191 
        5.40357         21.5532         1.01414 
        5.41929         21.4434         1.00644 
        5.43502         21.2699        0.998806 
         5.4507          21.135        0.991274 
        5.46639         20.9202        0.983817 
        5.48212         20.7661        0.976419 
        5.49786         20.6073        0.969088 
        5.51353         20.4525        0.961868 
        5.52921          20.307        0.954713 
        5.54495         20.1661         0.94761 
        5.56066         20.0161        0.940586 
        5.57637         19.8738        0.933634 
        5.59207         19.7682        0.926758 
        5.60778         19.6182        0.919948 
        5.62346          19.457        0.913215 
        5.63916         19.3099        0.906543 
        5.65487         19.1548        0.899933 
         5.6706         19.0075        0.893381 
        5.68633         18.8816        0.886892 
        5.70203         18.7693        0.880479 
        5.71773         18.6132        0.874131 
        5.73344         18.4692        0.867842 
        5.74916         18.3369        0.861608 
        5.76486         18.2162        0.855443 
        5.78054         18.0794        0.849348 
        5.79626         17.9561        0.843294 
          5.812         17.8486        0.837294 
         5.8277         17.7274        0.831368 
        5.84339          17.565          0.8255 
        5.85911         17.4653        0.819676 
        5.87484         17.3257        0.813909 
        5.89053         17.1931        0.808209 
        5.90623         17.0787         0.80256 
        5.92195         16.9889        0.796955 
        5.93767         16.8445        0.791407 
        5.95336         16.7159        0.785919 
        5.96905         16.6555        0.780486 
        5.98476         16.4887        0.775096 
        6.00048         16.3829        0.769754 
        6.01617         16.2415         0.76447 
        6.03185           16.19        0.759241 
        6.04756         16.0063        0.754049 
        6.06331         15.9283        0.748893 
        6.07903         15.8209        0.743796 
        6.09473         15.7155        0.738751 
        6.11044         15.5808        0.733748 
        6.12616         15.4854        0.728792 
        6.14186         15.3503        0.723886 
        6.15755         15.2927        0.719025 
        6.17326         15.1818        0.714204 
        6.18898         15.0685        0.709426 
        6.20467         14.9464        0.704699 
        6.22036         14.8766        0.700015 
         6.2361         14.7657        0.695361 
         6.2518         14.6612        0.690756 
        6.26748         14.5682        0.686203 
        6.28319         14.4574        0.681678 
        6.29893         14.3531         0.67719 
        6.31463          14.289        0.672749 
        6.33033         14.1646         0.66835 
        6.34604         14.0618        0.663986 
        6.36177         13.9822        0.659657 
        6.37747         13.8924        0.655374 
