# k  (h/Mpc)    Pcb(k)  (Mpc/h)^3    Pcb_linear(k) (Mpc/h)^3   ShotnoiseSubtracted = true
      0.0200456         22179.4         22668.1 
      0.0350414         15354.4         16067.1 
      0.0492313         11393.1         11622.3 
      0.0637834         9750.81         9527.27 
      0.0800726          7524.5         7356.98 
       0.096163         5181.62         5306.29 
       0.111083         4198.01         4277.79 
       0.126058         3838.38         3756.43 
       0.142273         3276.43         3096.12 
       0.158546          2856.6         2437.54 
        0.17375         2293.81          2084.6 
       0.188953         2235.95         1875.76 
       0.204907         2083.85         1621.63 
       0.220756         1800.48         1365.31 
        0.23588         1611.43         1201.73 
         0.2514          1399.9         1090.23 
       0.267535         1392.84         970.309 
       0.283568         1259.86         850.088 
       0.299022         1191.55         762.269 
       0.314451         1133.32         697.114 
       0.330372         1038.64          633.12 
       0.346141         989.318         570.897 
       0.361624         950.303         519.942 
       0.377134         883.524         478.757 
       0.392932         845.876          440.62 
       0.408854         829.452          404.01 
       0.424564         765.782         372.116 
       0.440253         752.805         344.995 
       0.455999         722.403          320.46 
       0.471626         695.973          297.71 
        0.48727         665.575         277.073 
       0.502856         646.552         258.821 
       0.518488          639.05         242.249 
       0.534347         598.209         226.711 
       0.550082         581.915         212.545 
       0.565732         579.271         199.755 
       0.581496         545.322         187.979 
       0.597222         535.068         177.126 
       0.612804         524.066         167.179 
       0.628434         508.345         157.977 
       0.644267         494.999         149.388 
       0.660051         479.279         141.462 
       0.675724         474.309         134.151 
       0.691403         457.872         127.348 
       0.707174         442.506         120.975 
       0.722871         437.204          115.06 
        0.73838         429.204         109.601 
       0.754018         418.933         104.453 
       0.769845         410.511         99.5778 
        0.78569          403.35         95.0072 
       0.801365         392.745         90.7669 
       0.817031         381.149         86.7876 
       0.832809          378.06          83.021 
       0.848511         369.205         79.4943 
       0.864097         358.547         76.1962 
       0.879701          353.46         73.0816 
       0.895507         350.101          70.104 
       0.911279         339.366          67.298 
        0.92691         335.388         64.6683 
       0.942635         326.425         62.1644 
       0.958396         318.923         59.7873 
       0.974128         313.816         57.5384 
       0.989692         310.954          55.427 
        1.00528         302.885         53.4182 
        1.02113         300.876         51.4771 
        1.03692         292.532         49.6393 
        1.05264         290.576         47.8993 
        1.06832         282.307         46.2451 
        1.08405         278.435         44.6643 
        1.09979          273.17         43.1563 
        1.11537         268.847         41.7325 
        1.13105         263.458         40.3643 
        1.14679         257.389         39.0518 
        1.16256         253.581          37.795 
        1.17828         251.928         36.5974 
        1.19395         245.366         35.4555 
         1.2097         242.813         34.3563 
        1.22537         237.635         33.3089 
          1.241         236.072         32.3081 
        1.25666         231.601         31.3457 
        1.27241         227.902         30.4179 
        1.28819          224.55          29.526 
        1.30392         219.252         28.6722 
        1.31957         219.441         27.8559 
        1.33529         214.577         27.0683 
        1.35108         209.548         26.3078 
        1.36674         207.266         25.5819 
         1.3824         206.275         24.8839 
        1.39811         202.637         24.2095 
        1.41389          199.62         23.5575 
        1.42964         197.438         22.9304 
        1.44531         194.499         22.3292 
        1.46101         191.068         21.7481 
        1.47667         188.352         21.1893 
        1.49229         186.824         20.6516 
        1.50793         182.068         20.1318 
        1.52367         181.019         19.6265 
        1.53953         178.331         19.1351 
        1.55526         174.191         18.6644 
        1.57092         173.019         18.2113 
        1.58662         171.068         17.7721 
        1.60235         167.963         17.3466 
        1.61809         166.734         16.9346 
        1.63369         163.502         16.5396 
        1.64941         160.022         16.1544 
        1.66519         159.261         15.7799 
        1.68085         156.864           15.42 
        1.69652         154.824         15.0711 
        1.71228         151.487         14.7309 
        1.72806         149.908          14.401 
        1.74368         148.215         14.0844 
        1.75933         145.548         13.7766 
        1.77505          144.44         13.4765 
        1.79081          142.93         13.1848 
         1.8065         140.561          12.903 
        1.82218         139.017         12.6295 
        1.83797         137.475         12.3621 
        1.85367         135.555         12.1039 
        1.86928         133.057         11.8545 
        1.88497          131.74         11.6108 
        1.90073         130.213          11.373 
        1.91647         128.437          11.142 
        1.93218         127.078         10.9179 
        1.94787         124.653         10.7002 
        1.96363         123.155         10.4876 
        1.97935         122.014         10.2812 
        1.99499         119.888         10.0815 
        2.01064          118.68         9.88671 
         2.0264         117.196         9.69584 
        2.04216         115.575         9.51008 
        2.05781         114.589         9.33033 
        2.07353         113.347         9.15456 
        2.08928         110.969         8.98291 
        2.10499         110.138         8.81609 
        2.12065         108.239         8.65398 
        2.13633         107.314         8.49578 
        2.15211         105.327          8.3405 
        2.16785         103.956          8.1895 
        2.18349         103.151         8.04317 
        2.19916          101.97         7.90008 
        2.21489         100.583         7.75998 
        2.23063         98.8713         7.62317 
         2.2463         98.0987         7.49024 
        2.26194         96.3186          7.3608 
        2.27765         95.4082         7.23373 
        2.29341         94.4476         7.10931 
        2.30914         93.3827         6.98806 
        2.32486         92.2128         6.86969 
        2.34061         91.1265         6.75384 
        2.35635          89.905         6.64076 
        2.37203         88.6652         6.53063 
        2.38768         87.6657         6.42322 
        2.40339         86.7247         6.31782 
        2.41914         85.5772         6.21452 
        2.43483         84.8017         6.11388 
         2.4505         83.5146         6.01563 
        2.46622         82.6312         5.91918 
        2.48195         81.4533         5.82483 
        2.49759         80.2295         5.73303 
        2.51328         80.0867         5.64295 
        2.52906         78.5614         5.55422 
        2.54479          77.629         5.46772 
        2.56049         76.7984         5.38322 
        2.57618         75.9527         5.30057 
        2.59189          75.006         5.21952 
        2.60758         74.2938         5.14027 
        2.62325          73.288         5.06276 
        2.63898         72.1832         4.98657 
        2.65468         71.4449         4.91209 
        2.67044         70.8007         4.83881 
        2.68618         70.0042         4.76718 
        2.70184         69.5832         4.69727 
        2.71755         68.3183         4.62859 
        2.73329         67.7557         4.56116 
        2.74897         66.9558         4.49529 
        2.76462         66.0222         4.43086 
        2.78034         65.5158         4.36741 
        2.79607         64.3487         4.30513 
        2.81179         63.8077         4.24413 
        2.82749         63.0528         4.18437 
        2.84321         62.4912         4.12569 
        2.85893         61.8051         4.06814 
        2.87462         60.9872         4.01178 
        2.89033         60.2761         3.95643 
        2.90605         59.6288         3.90207 
        2.92176         58.9004         3.84875 
        2.93747         58.6022         3.79645 
        2.95318         57.7454          3.7451 
        2.96891         57.3569         3.69467 
        2.98456         56.7756         3.64539 
        3.00023         55.7433         3.59693 
        3.01596         55.3141         3.54919 
        3.03164         54.5285         3.50245 
        3.04738          54.312         3.45641 
         3.0631         53.4895         3.41121 
        3.07883         53.0553          3.3668 
        3.09456         52.3844         3.32319 
        3.11026         51.7208         3.28041 
        3.12596         51.1461         3.23839 
        3.14163         50.6983         3.19719 
        3.15734         50.2701         3.15661 
        3.17308          49.492         3.11663 
        3.18879          49.326         3.07745 
        3.20447         48.5096         3.03899 
         3.2202         48.2215         3.00107 
         3.2359         47.5671         2.96385 
        3.25157         47.0248         2.92736 
        3.26729         46.6634         2.89136 
        3.28304         46.2316         2.85589 
        3.29877         45.7573         2.82106 
        3.31446           44.93         2.78688 
        3.33014         44.7712          2.7533 
        3.34585         44.3516         2.72021 
        3.36158         43.8843         2.68761 
        3.37727         43.5682         2.65565 
        3.39294         43.1002         2.62423 
        3.40867         42.5269          2.5932 
        3.42439         42.0697         2.56269 
        3.44008         41.7455         2.53272 
        3.45578         41.2225         2.50321 
        3.47153         40.8729          2.4741 
        3.48724         40.4547          2.4455 
        3.50292         40.1674         2.41741 
        3.51859         39.6557         2.38978 
        3.53431         39.3585         2.36249 
        3.55007         38.7939         2.33556 
        3.56577         38.4964         2.30915 
        3.58146         38.1221         2.28315 
        3.59719         37.7636          2.2575 
        3.61292          37.372         2.23224 
        3.62859         37.0371         2.20746 
        3.64429         36.6726         2.18301 
        3.66003         36.4013         2.15885 
        3.67578         35.9123         2.13506 
        3.69146         35.6095         2.11172 
        3.70712         35.2605         2.08877 
        3.72284         34.8404         2.06607 
        3.73853         34.6291         2.04374 
        3.75422         34.1456         2.02174 
        3.76993         34.0065         2.00004 
        3.78564         33.6398         1.97866 
        3.80137         33.2992         1.95755 
        3.81707         32.9459          1.9368 
        3.83279          32.798         1.91633 
        3.84853         32.3876         1.89612 
        3.86424         32.1006         1.87624 
        3.87992         31.8938         1.85667 
        3.89561         31.5207         1.83738 
        3.91134          31.141         1.81832 
        3.92704         30.9654         1.79955 
        3.94273         30.5908         1.78106 
        3.95845         30.4471         1.76279 
        3.97418         30.0855         1.74478 
        3.98988         29.8347         1.72704 
        4.00554         29.5272         1.70959 
        4.02125          29.226         1.69233 
        4.03698         29.0378         1.67529 
        4.05268         28.7631         1.65851 
        4.06839         28.4345         1.64195 
         4.0841         28.2081         1.62562 
        4.09983         27.9815         1.60949 
        4.11555         27.7319         1.59358 
        4.13124         27.5369         1.57792 
        4.14693         27.2452         1.56247 
        4.16266         26.9775         1.54718 
        4.17839         26.6752         1.53211 
        4.19408            26.5         1.51726 
        4.20977         26.2611         1.50261 
        4.22551         25.9619         1.48812 
        4.24123         25.8343         1.47383 
        4.25691         25.5872         1.45976 
        4.27259         25.3812         1.44587 
        4.28831         25.1771         1.43213 
        4.30404         25.0104         1.41856 
        4.31974          24.665         1.40519 
        4.33543         24.5051           1.392 
        4.35116          24.337         1.37895 
        4.36688          24.087         1.36607 
        4.38255          23.883          1.3534 
        4.39825         23.6438         1.34086 
        4.41398         23.4642         1.32845 
         4.4297         23.2476         1.31621 
        4.44541          23.043         1.30413 
        4.46111         22.8491         1.29221 
        4.47683         22.6959         1.28043 
        4.49251         22.4634         1.26881 
        4.50819         22.2957         1.25735 
         4.5239         22.1483           1.246 
        4.53962         21.8838         1.23478 
        4.55535         21.7777          1.2237 
        4.57106         21.5836         1.21276 
        4.58678         21.3626         1.20196 
         4.6025         21.1985         1.19128 
        4.61821         21.0545         1.18073 
        4.63391         20.8607         1.17033 
         4.6496         20.6685         1.16005 
        4.66532         20.5451         1.14988 
        4.68103          20.348         1.13983 
        4.69673          20.207         1.12992 
        4.71241          20.038         1.12013 
        4.72811         19.8328         1.11043 
        4.74384         19.7113         1.10084 
        4.75955         19.5565         1.09138 
        4.77525         19.3688         1.08204 
        4.79096         19.2284         1.07279 
        4.80669         19.0394         1.06364 
         4.8224         18.9198         1.05461 
        4.83809         18.7736         1.04569 
        4.85379         18.5721         1.03687 
         4.8695         18.4851         1.02815 
        4.88521         18.3163         1.01952 
        4.90093         18.1103           1.011 
        4.91663         17.9741         1.00257 
        4.93234         17.8825        0.994239 
        4.94807         17.6979        0.985993 
        4.96377         17.5429        0.977854 
        4.97943         17.4807        0.969824 
        4.99514         17.3039        0.961862 
        5.01086         17.1803        0.953983 
        5.02654          17.005        0.946212 
        5.04227         16.9576        0.938504 
          5.058         16.7697        0.930878 
        5.07371         16.6274         0.92335 
        5.08942         16.5032        0.915904 
        5.10513         16.3925        0.908539 
        5.12084         16.2423        0.901251 
        5.13656          16.089        0.894043 
        5.15225         16.0242        0.886926 
        5.16796         15.8958        0.879874 
        5.18369           15.74        0.872892 
         5.1994           15.69        0.865998 
        5.21509          15.502        0.859184 
        5.23079         15.4194        0.852434 
        5.24649         15.3107        0.845762 
        5.26217         15.1668        0.839166 
        5.27788         15.0479        0.832629 
        5.29359         14.9649        0.826161 
        5.30933         14.8137        0.819752 
        5.32504         14.6929        0.813421 
        5.34073         14.5775        0.807163 
        5.35646         14.4808        0.800958 
        5.37218         14.3858        0.794817 
        5.38789         14.2851        0.788749 
        5.40357         14.1756        0.782751 
        5.41929          14.059        0.776802 
        5.43502         13.9705        0.770913 
         5.4507         13.8609        0.765099 
        5.46639         13.7708        0.759344 
        5.48212         13.6419        0.753634 
        5.49786         13.5744        0.747975 
        5.51353         13.4319        0.742403 
        5.52921         13.3678        0.736881 
        5.54495         13.3022        0.731398 
        5.56066         13.1793        0.725977 
        5.57637         13.0758        0.720611 
        5.59207         12.9642        0.715304 
        5.60778         12.8827        0.710047 
        5.62346         12.7804        0.704851 
        5.63916         12.6799        0.699701 
        5.65487         12.5845        0.694599 
         5.6706         12.5175        0.689542 
        5.68633         12.4095        0.684534 
        5.70203         12.3231        0.679584 
        5.71773         12.2819        0.674685 
        5.73344         12.1359         0.66983 
        5.74916         12.0705        0.665019 
        5.76486         11.9857        0.660261 
        5.78054         11.8981        0.655556 
        5.79626         11.8171        0.650884 
          5.812         11.7087        0.646252 
         5.8277         11.6397        0.641679 
        5.84339         11.5536        0.637149 
        5.85911         11.4856        0.632654 
        5.87484         11.3772        0.628203 
        5.89053         11.3352        0.623804 
        5.90623         11.2274        0.619444 
        5.92195         11.1403        0.615118 
        5.93767         11.0664        0.610835 
        5.95336         10.9815          0.6066 
        5.96905         10.9246        0.602406 
        5.98476         10.8256        0.598246 
        6.00048         10.7818        0.594123 
        6.01617         10.7009        0.590044 
        6.03185         10.6191        0.586009 
        6.04756         10.5508        0.582001 
        6.06331          10.488        0.578022 
        6.07903         10.4015        0.574088 
        6.09473         10.3341        0.570194 
        6.11044         10.2553        0.566332 
        6.12616          10.191        0.562507 
        6.14186         10.1297         0.55872 
        6.15755         10.0458        0.554968 
        6.17326         9.97453        0.551248 
        6.18898         9.90601        0.547559 
        6.20467         9.84367        0.543911 
        6.22036          9.7768        0.540296 
         6.2361         9.71449        0.536704 
         6.2518         9.66801         0.53315 
        6.26748         9.60307        0.529635 
        6.28319         9.53145        0.526143 
        6.29893         9.45733        0.522679 
        6.31463         9.40379        0.519251 
        6.33033         9.33696        0.515855 
        6.34604         9.28793        0.512487 
        6.36177         9.20523        0.509146 
        6.37747         9.15358         0.50584 
