# k  (h/Mpc)    Pcb(k)  (Mpc/h)^3    Pcb_linear(k) (Mpc/h)^3   ShotnoiseSubtracted = true
      0.0200456         22880.9         23391.4 
      0.0350414         15829.1         16579.7 
      0.0492313         11747.7         11993.2 
      0.0637834         10061.7         9831.27 
      0.0800726         7763.68         7591.73 
       0.096163         5344.83          5475.6 
       0.111083         4333.54         4414.28 
       0.126058         3961.26         3876.29 
       0.142273         3382.52         3194.91 
       0.158546         2956.43         2515.31 
        0.17375         2374.53         2151.12 
       0.188953          2315.7         1935.61 
       0.204907         2158.45         1673.38 
       0.220756          1866.6         1408.88 
        0.23588         1672.33         1240.08 
         0.2514         1453.47         1125.02 
       0.267535         1447.42         1001.27 
       0.283568         1309.43         877.213 
       0.299022         1239.27         786.591 
       0.314451         1178.76         719.358 
       0.330372         1079.85         653.321 
       0.346141         1032.25         589.114 
       0.361624          991.55         536.532 
       0.377134         922.541         494.034 
       0.392932         882.602          454.68 
       0.408854         866.837         416.902 
       0.424564         799.494          383.99 
       0.440253         785.649         356.003 
       0.455999         755.936         330.685 
       0.471626         728.786         307.209 
        0.48727         696.967         285.913 
       0.502856         676.713         267.079 
       0.518488          669.35         249.979 
       0.534347         626.954         233.945 
       0.550082         610.871         219.327 
       0.565732         607.567         206.129 
       0.581496         572.617         193.977 
       0.597222         561.399         182.777 
       0.612804         550.465         172.513 
       0.628434         534.337         163.018 
       0.644267         520.394         154.155 
       0.660051         504.321         145.976 
       0.675724         498.839         138.432 
       0.691403         481.672         131.411 
       0.707174         465.528         124.835 
       0.722871         459.823         118.732 
        0.73838         451.235         113.099 
       0.754018         440.973         107.786 
       0.769845         432.422         102.755 
        0.78569         424.394         98.0387 
       0.801365         413.426         93.6631 
       0.817031         401.765         89.5568 
       0.832809         398.234           85.67 
       0.848511          389.17         82.0308 
       0.864097         377.403         78.6275 
       0.879701         372.086         75.4135 
       0.895507         369.049         72.3408 
       0.911279         358.042         69.4453 
        0.92691         353.574         66.7318 
       0.942635         343.964         64.1479 
       0.958396         335.922          61.695 
       0.974128         330.663         59.3744 
       0.989692         327.999         57.1956 
        1.00528         318.975         55.1226 
        1.02113         317.018         53.1196 
        1.03692         308.132         51.2231 
        1.05264         306.098         49.4276 
        1.06832          297.21         47.7207 
        1.08405         293.298         46.0895 
        1.09979         288.088         44.5333 
        1.11537         283.127         43.0641 
        1.13105         277.887         41.6522 
        1.14679         270.732         40.2979 
        1.16256         266.709          39.001 
        1.17828         265.377         37.7651 
        1.19395         258.462         36.5868 
         1.2097         255.057         35.4526 
        1.22537         249.779         34.3717 
          1.241         247.876          33.339 
        1.25666         243.492         32.3459 
        1.27241         239.493         31.3885 
        1.28819         235.816         30.4681 
        1.30392         230.415         29.5871 
        1.31957         230.287         28.7447 
        1.33529         225.422         27.9319 
        1.35108         220.216         27.1472 
        1.36674         217.345         26.3982 
         1.3824         216.316         25.6779 
        1.39811         212.425          24.982 
        1.41389          209.57         24.3091 
        1.42964         207.227         23.6621 
        1.44531         204.113         23.0416 
        1.46101          200.39          22.442 
        1.47667         197.775         21.8654 
        1.49229         195.971         21.3105 
        1.50793         190.857         20.7742 
        1.52367         189.879         20.2528 
        1.53953         186.944         19.7457 
        1.55526         182.842         19.2599 
        1.57092         181.422         18.7924 
        1.58662         179.358         18.3392 
        1.60235         176.245         17.9001 
        1.61809         174.665          17.475 
        1.63369         171.634         17.0674 
        1.64941         167.991         16.6698 
        1.66519          167.11         16.2834 
        1.68085         164.434          15.912 
        1.69652         162.286          15.552 
        1.71228         158.677          15.201 
        1.72806         157.018         14.8605 
        1.74368         155.113         14.5338 
        1.75933         152.442         14.2162 
        1.77505         151.248         13.9065 
        1.79081         149.658         13.6055 
         1.8065         146.896         13.3147 
        1.82218         145.592         13.0325 
        1.83797         143.819         12.7566 
        1.85367         141.756         12.4901 
        1.86928         139.165         12.2328 
        1.88497         137.868         11.9813 
        1.90073         136.231         11.7359 
        1.91647         134.503         11.4975 
        1.93218         132.969         11.2663 
        1.94787         130.205         11.0417 
        1.96363         128.678         10.8223 
        1.97935          127.72         10.6093 
        1.99499         125.436         10.4031 
        2.01064         124.116         10.2022 
         2.0264         122.688         10.0052 
        2.04216         120.931         9.81353 
        2.05781         119.836         9.62805 
        2.07353         118.527         9.44666 
        2.08928         116.145         9.26953 
        2.10499         115.277         9.09739 
        2.12065         113.231         8.93011 
        2.13633         112.111         8.76687 
        2.15211         110.178         8.60663 
        2.16785         108.859         8.45081 
        2.18349         107.977         8.29981 
        2.19916          106.62         8.15216 
        2.21489         105.295         8.00759 
        2.23063         103.411         7.86641 
         2.2463         102.669         7.72924 
        2.26194         100.772         7.59567 
        2.27765         99.8392         7.46455 
        2.29341          98.655         7.33616 
        2.30914         97.7219         7.21104 
        2.32486         96.3157         7.08889 
        2.34061         95.2682         6.96935 
        2.35635         94.0664         6.85265 
        2.37203         92.8388         6.73901 
        2.38768         91.6504         6.62817 
        2.40339          90.702         6.51941 
        2.41914         89.4309         6.41281 
        2.43483         88.5893         6.30896 
         2.4505         87.4239         6.20757 
        2.46622         86.5388         6.10805 
        2.48195         85.2296         6.01069 
        2.49759         83.9949         5.91595 
        2.51328         83.7856           5.823 
        2.52906         82.2632         5.73145 
        2.54479          81.347         5.64219 
        2.56049         80.3756         5.55499 
        2.57618         79.4641          5.4697 
        2.59189         78.5424         5.38606 
        2.60758         77.6876         5.30429 
        2.62325         76.6705         5.22431 
        2.63898         75.6108         5.14568 
        2.65468         74.7197         5.06883 
        2.67044          74.152          4.9932 
        2.68618         73.2814         4.91929 
        2.70184         72.8404         4.84716 
        2.71755         71.4971         4.77628 
        2.73329         70.9739          4.7067 
        2.74897          70.177         4.63873 
        2.76462         69.0973         4.57224 
        2.78034         68.5757         4.50676 
        2.79607         67.3154          4.4425 
        2.81179         66.7125         4.37955 
        2.82749         66.0152         4.31789 
        2.84321         65.3558         4.25733 
        2.85893         64.6405         4.19795 
        2.87462         63.8315         4.13979 
        2.89033         63.0272         4.08267 
        2.90605         62.3754         4.02658 
        2.92176         61.5857         3.97156 
        2.93747         61.2396         3.91759 
        2.95318         60.3533          3.8646 
        2.96891         59.9536         3.81256 
        2.98456         59.4121         3.76171 
        3.00023         58.3376          3.7117 
        3.01596         57.8434         3.66244 
        3.03164         57.0507         3.61421 
        3.04738         56.7234          3.5667 
         3.0631         55.9087         3.52005 
        3.07883         55.5182         3.47423 
        3.09456         54.8424         3.42923 
        3.11026         54.0896         3.38508 
        3.12596         53.5262         3.34172 
        3.14163         53.0765         3.29921 
        3.15734         52.4931         3.25733 
        3.17308         51.7766         3.21608 
        3.18879         51.5374         3.17564 
        3.20447         50.7572         3.13596 
         3.2202         50.4452         3.09683 
         3.2359         49.7169         3.05843 
        3.25157         49.1874         3.02076 
        3.26729         48.8254         2.98362 
        3.28304         48.4328         2.94702 
        3.29877         47.8714         2.91107 
        3.31446         47.0128         2.87581 
        3.33014         46.8726         2.84115 
        3.34585         46.2964           2.807 
        3.36158         45.8649         2.77337 
        3.37727         45.5178         2.74038 
        3.39294         45.0235         2.70796 
        3.40867         44.4323         2.67594 
        3.42439         44.0508         2.64446 
        3.44008         43.6309         2.61353 
        3.45578         43.1152         2.58308 
        3.47153         42.7404         2.55304 
        3.48724         42.2797         2.52353 
        3.50292         42.0266         2.49455 
        3.51859         41.4485         2.46603 
        3.53431         41.1766         2.43787 
        3.55007         40.6187         2.41008 
        3.56577         40.2754         2.38283 
        3.58146         39.9197           2.356 
        3.59719         39.5281         2.32953 
        3.61292         39.1089         2.30347 
        3.62859         38.7579          2.2779 
        3.64429         38.3498         2.25266 
        3.66003         38.0593         2.22773 
        3.67578         37.5839         2.20319 
        3.69146         37.2624          2.1791 
        3.70712          36.854         2.15542 
        3.72284         36.4751         2.13199 
        3.73853         36.2433         2.10896 
        3.75422         35.7289         2.08625 
        3.76993         35.5374         2.06385 
        3.78564         35.1642         2.04179 
        3.80137          34.815         2.02002 
        3.81707         34.4692          1.9986 
        3.83279         34.2443         1.97748 
        3.84853         33.8889         1.95662 
        3.86424         33.5949         1.93611 
        3.87992         33.3354         1.91591 
        3.89561         32.9887           1.896 
        3.91134         32.5998         1.87633 
        3.92704          32.379         1.85697 
        3.94273         32.0345         1.83789 
        3.95845         31.8897         1.81904 
        3.97418         31.5094         1.80045 
        3.98988         31.2417         1.78214 
        4.00554         30.8993         1.76414 
        4.02125         30.6648         1.74633 
        4.03698         30.4245         1.72874 
        4.05268          30.125         1.71143 
        4.06839          29.786         1.69434 
         4.0841         29.5132         1.67749 
        4.09983         29.2968         1.66084 
        4.11555         28.9977         1.64443 
        4.13124         28.8197         1.62827 
        4.14693         28.5044         1.61232 
        4.16266         28.2568         1.59655 
        4.17839          27.921         1.58099 
        4.19408          27.782         1.56568 
        4.20977         27.4889         1.55056 
        4.22551         27.1736          1.5356 
        4.24123         27.0297         1.52085 
        4.25691          26.801         1.50634 
        4.27259         26.5706         1.49201 
        4.28831         26.3469         1.47783 
        4.30404         26.1886         1.46383 
        4.31974         25.8479         1.45003 
        4.33543         25.6146         1.43642 
        4.35116         25.4745         1.42295 
        4.36688         25.2255         1.40966 
        4.38255         25.0183         1.39658 
        4.39825         24.7669         1.38364 
        4.41398          24.619         1.37084 
         4.4297          24.311         1.35821 
        4.44541         24.1464         1.34574 
        4.46111         23.8974         1.33344 
        4.47683         23.7507         1.32128 
        4.49251         23.5087          1.3093 
        4.50819         23.3645         1.29747 
         4.5239         23.2244         1.28576 
        4.53962         22.9001         1.27418 
        4.55535         22.8007         1.26274 
        4.57106         22.6031         1.25146 
        4.58678         22.3873         1.24031 
         4.6025         22.1503         1.22929 
        4.61821         22.0262         1.21841 
        4.63391         21.8462         1.20767 
         4.6496         21.6533         1.19706 
        4.66532         21.5001         1.18657 
        4.68103         21.3064          1.1762 
        4.69673         21.1726         1.16597 
        4.71241         20.9949         1.15587 
        4.72811         20.7623         1.14587 
        4.74384         20.6584         1.13597 
        4.75955          20.475         1.12621 
        4.77525         20.2968         1.11656 
        4.79096         20.1446         1.10702 
        4.80669         19.9538         1.09758 
         4.8224         19.8148         1.08826 
        4.83809         19.6798         1.07906 
        4.85379         19.5015         1.06996 
         4.8695         19.3709         1.06095 
        4.88521         19.1868         1.05205 
        4.90093         18.9829         1.04326 
        4.91663         18.8578         1.03456 
        4.93234           18.76         1.02596 
        4.94807         18.5564         1.01745 
        4.96377         18.3857         1.00906 
        4.97943         18.3075         1.00077 
        4.99514         18.1444        0.992553 
        5.01086         18.0099        0.984423 
        5.02654         17.8174        0.976404 
        5.04227         17.7576         0.96845 
          5.058         17.5676         0.96058 
        5.07371         17.4206        0.952812 
        5.08942         17.2784        0.945129 
        5.10513         17.1848        0.937529 
        5.12084         17.0223        0.930008 
        5.13656         16.8774         0.92257 
        5.15225         16.7564        0.915226 
        5.16796         16.6573        0.907949 
        5.18369         16.5014        0.900744 
         5.1994         16.4249         0.89363 
        5.21509         16.2378        0.886599 
        5.23079         16.1578        0.879634 
        5.24649         16.0221        0.872749 
        5.26217         15.9173        0.865942 
        5.27788         15.7637        0.859197 
        5.29359         15.6569        0.852522 
        5.30933         15.5134        0.845909 
        5.32504         15.3942        0.839375 
        5.34073         15.2525        0.832918 
        5.35646         15.1426        0.826515 
        5.37218         15.0611        0.820178 
        5.38789         14.9404        0.813916 
        5.40357         14.8318        0.807727 
        5.41929         14.7115        0.801588 
        5.43502         14.6152        0.795511 
         5.4507         14.5082        0.789512 
        5.46639         14.3948        0.783573 
        5.48212         14.2996        0.777681 
        5.49786         14.2082        0.771842 
        5.51353         14.0652        0.766091 
        5.52921         13.9907        0.760393 
        5.54495         13.8955        0.754736 
        5.56066         13.7737        0.749141 
        5.57637         13.6774        0.743604 
        5.59207         13.5741        0.738128 
        5.60778         13.4735        0.732704 
        5.62346         13.3718        0.727341 
        5.63916         13.2879        0.722027 
        5.65487         13.1732        0.716763 
         5.6706         13.1045        0.711544 
        5.68633         12.9866        0.706376 
        5.70203         12.8969        0.701269 
        5.71773         12.8548        0.696212 
        5.73344         12.6849        0.691203 
        5.74916         12.6364        0.686238 
        5.76486         12.5589        0.681328 
        5.78054         12.4669        0.676474 
        5.79626         12.3675        0.671652 
          5.812         12.2697        0.666873 
         5.8277          12.183        0.662153 
        5.84339          12.083        0.657479 
        5.85911         12.0192        0.652841 
        5.87484         11.9064        0.648248 
        5.89053         11.8599        0.643708 
        5.90623         11.7644        0.639209 
        5.92195         11.6696        0.634745 
        5.93767         11.5953        0.630326 
        5.95336          11.495        0.625955 
        5.96905         11.4281        0.621628 
        5.98476         11.3332        0.617335 
        6.00048         11.2863         0.61308 
        6.01617         11.1929        0.608872 
        6.03185         11.1304        0.604707 
        6.04756         11.0484        0.600571 
        6.06331         10.9743        0.596465 
        6.07903         10.8828        0.592406 
        6.09473         10.8095        0.588387 
        6.11044         10.7396        0.584403 
        6.12616         10.6599        0.580455 
        6.14186         10.5845        0.576548 
        6.15755         10.4984        0.572676 
        6.17326          10.456        0.568837 
        6.18898          10.372        0.565031 
        6.20467         10.3069        0.561266 
        6.22036         10.2266        0.557536 
         6.2361         10.1626        0.553829 
         6.2518         10.1004        0.550161 
        6.26748         10.0443        0.546535 
        6.28319         9.98309        0.542931 
        6.29893         9.89613        0.539356 
        6.31463         9.83324        0.535819 
        6.33033         9.77348        0.532315 
        6.34604         9.72201         0.52884 
        6.36177         9.64591        0.525392 
        6.37747         9.58408        0.521981 
