# k  (h/Mpc)    Pcb(k)  (Mpc/h)^3    Pcb_linear(k) (Mpc/h)^3   ShotnoiseSubtracted = true
      0.0200456         2566.98         2602.11 
      0.0350414         1826.72         1844.37 
      0.0492313         1336.48         1334.15 
      0.0637834         1107.74         1093.65 
      0.0800726         856.314         844.522 
       0.096163         605.723         609.119 
       0.111083         485.069         491.056 
       0.126058         434.949         431.208 
       0.142273         363.417          355.41 
       0.158546         289.509         279.809 
        0.17375         240.599         239.296 
       0.188953          222.07         215.322 
       0.204907         200.611          186.15 
       0.220756         166.414         156.727 
        0.23588         146.056         137.949 
         0.2514         130.209          125.15 
       0.267535         118.737         111.384 
       0.283568         105.633         97.5832 
       0.299022         96.1869         87.5023 
       0.314451         86.1315         80.0231 
       0.330372         79.5578          72.677 
       0.346141         71.7126         65.5344 
       0.361624         66.5497         59.6851 
       0.377134         62.4428         54.9575 
       0.392932         55.2929         50.5797 
       0.408854         52.9981         46.3771 
       0.424564         49.7483         42.7159 
       0.440253         45.8042         39.6027 
       0.455999         43.0145         36.7862 
       0.471626         40.1724         34.1747 
        0.48727          38.121         31.8057 
       0.502856         35.6911         29.7105 
       0.518488         34.0256         27.8083 
       0.534347         32.5771         26.0246 
       0.550082         29.6876         24.3984 
       0.565732         27.6445         22.9302 
       0.581496         26.9932         21.5785 
       0.597222         26.0042         20.3326 
       0.612804         24.2052         19.1908 
       0.628434          23.302         18.1345 
       0.644267         22.5943         17.1486 
       0.660051         21.3546         16.2387 
       0.675724         20.2168         15.3995 
       0.691403         19.5381         14.6185 
       0.707174         18.7709         13.8869 
       0.722871         17.9972          13.208 
        0.73838         17.2873         12.5814 
       0.754018         16.6245         11.9904 
       0.769845         15.9925         11.4307 
        0.78569         15.4589         10.9061 
       0.801365         14.8253         10.4193 
       0.817031         14.3838         9.96251 
       0.832809         14.0507         9.53014 
       0.848511         13.1744         9.12531 
       0.864097         12.8783         8.74671 
       0.879701         12.4881         8.38918 
       0.895507         11.9865         8.04737 
       0.911279          11.721         7.72526 
        0.92691         11.3592          7.4234 
       0.942635          10.865         7.13597 
       0.958396         10.5817         6.86309 
       0.974128         10.2722         6.60495 
       0.989692         10.1435         6.36258 
        1.00528         9.80514         6.13197 
        1.02113         9.39167         5.90915 
        1.03692         9.16657         5.69819 
        1.05264          8.9588         5.49845 
        1.06832         8.72349         5.30856 
        1.08405         8.41804         5.12711 
        1.09979         8.22272         4.95399 
        1.11537         8.07914         4.79056 
        1.13105         7.84877         4.63349 
        1.14679         7.70295         4.48284 
        1.16256         7.43183         4.33856 
        1.17828         7.36167         4.20108 
        1.19395         7.07801            4.07 
         1.2097         6.93737         3.94383 
        1.22537         6.74978         3.82359 
          1.241         6.63615         3.70871 
        1.25666         6.52172         3.59824 
        1.27241         6.32641         3.49173 
        1.28819         6.17872         3.38934 
        1.30392         6.10065         3.29134 
        1.31957         5.96032         3.19763 
        1.33529          5.8371         3.10722 
        1.35108         5.68162         3.01992 
        1.36674          5.6445         2.93659 
         1.3824         5.43372         2.85647 
        1.39811         5.35705         2.77906 
        1.41389          5.2649         2.70421 
        1.42964         5.17411         2.63223 
        1.44531         5.07318         2.56321 
        1.46101         4.96245          2.4965 
        1.47667          4.8706         2.43236 
        1.49229         4.81203         2.37064 
        1.50793         4.68073         2.31097 
        1.52367         4.62652         2.25297 
        1.53953         4.52192         2.19656 
        1.55526         4.44967         2.14252 
        1.57092         4.39122         2.09051 
        1.58662           4.286          2.0401 
        1.60235         4.23134         1.99124 
        1.61809         4.15254         1.94396 
        1.63369         4.07851         1.89862 
        1.64941          4.0147         1.85439 
        1.66519         3.96231         1.81141 
        1.68085         3.88084         1.77009 
        1.69652         3.80757         1.73004 
        1.71228         3.76087         1.69099 
        1.72806         3.69782         1.65311 
        1.74368         3.62697         1.61677 
        1.75933          3.5909         1.58144 
        1.77505         3.53863           1.547 
        1.79081         3.46073         1.51351 
         1.8065         3.42948         1.48115 
        1.82218         3.38197         1.44977 
        1.83797         3.34596         1.41907 
        1.85367         3.27271         1.38943 
        1.86928         3.24293          1.3608 
        1.88497         3.18638         1.33283 
        1.90073         3.12865         1.30553 
        1.91647         3.08924         1.27901 
        1.93218          3.0608         1.25329 
        1.94787         3.02829          1.2283 
        1.96363         2.97138          1.2039 
        1.97935         2.93066          1.1802 
        1.99499         2.87858         1.15727 
        2.01064         2.85352         1.13491 
         2.0264         2.80807           1.113 
        2.04216         2.78343         1.09168 
        2.05781         2.74027         1.07105 
        2.07353         2.71097         1.05087 
        2.08928         2.68105         1.03117 
        2.10499         2.63613         1.01202 
        2.12065         2.62051        0.993407 
        2.13633         2.57526        0.975247 
        2.15211         2.54271        0.957422 
        2.16785         2.51885        0.940089 
        2.18349         2.48554        0.923291 
        2.19916         2.43924        0.906866 
        2.21489         2.43003        0.890784 
        2.23063          2.3822        0.875078 
         2.2463         2.36574        0.859819 
        2.26194         2.33184         0.84496 
        2.27765         2.31897        0.830374 
        2.29341         2.28338        0.816092 
        2.30914          2.2536        0.802173 
        2.32486         2.23861        0.788585 
        2.34061         2.21067        0.775287 
        2.35635          2.1775        0.762305 
        2.37203         2.16751        0.749664 
        2.38768         2.14037        0.737334 
        2.40339         2.11224        0.725234 
        2.41914         2.08799        0.713377 
        2.43483          2.0753        0.701824 
         2.4505         2.04259        0.690546 
        2.46622         2.03449        0.679474 
        2.48195         1.99931        0.668644 
        2.49759         1.98203        0.658105 
        2.51328         1.96094        0.647765 
        2.52906         1.95286         0.63758 
        2.54479         1.92084        0.627651 
        2.56049         1.90465        0.617951 
        2.57618         1.88512        0.608463 
        2.59189          1.8774        0.599158 
        2.60758         1.84946        0.590062 
        2.62325         1.82968        0.581164 
        2.63898         1.80964        0.572418 
        2.65468         1.79406        0.563868 
        2.67044         1.78157        0.555456 
        2.68618         1.75808        0.547234 
        2.70184          1.7442        0.539209 
        2.71755         1.72898        0.531325 
        2.73329         1.70911        0.523585 
        2.74897         1.69954        0.516023 
        2.76462         1.68068        0.508626 
        2.78034         1.66507        0.501343 
        2.79607         1.64849        0.494194 
        2.81179         1.63796        0.487192 
        2.82749         1.61591        0.480332 
        2.84321         1.60843        0.473596 
        2.85893         1.59475         0.46699 
        2.87462         1.57676         0.46052 
        2.89033         1.56038        0.454166 
        2.90605         1.54739        0.447926 
        2.92176         1.53515        0.441806 
        2.93747         1.51999        0.435802 
        2.95318         1.50813        0.429908 
        2.96891          1.4996        0.424119 
        2.98456         1.48468        0.418462 
        3.00023         1.47196        0.412898 
        3.01596         1.46154        0.407419 
        3.03164         1.45216        0.402053 
        3.04738         1.43276        0.396768 
         3.0631          1.4231        0.391579 
        3.07883         1.41323        0.386482 
        3.09456         1.40275        0.381475 
        3.11026         1.39103        0.376565 
        3.12596         1.37753        0.371741 
        3.14163         1.36909        0.367012 
        3.15734         1.35865        0.362353 
        3.17308         1.34367        0.357764 
        3.18879         1.34029        0.353266 
        3.20447         1.32977        0.348852 
         3.2202          1.3147        0.344498 
         3.2359         1.30455        0.340227 
        3.25157         1.29812        0.336037 
        3.26729         1.28212        0.331905 
        3.28304         1.28214        0.327833 
        3.29877         1.26325        0.323835 
        3.31446         1.25621        0.319911 
        3.33014          1.2529        0.316056 
        3.34585         1.24261        0.312258 
        3.36158         1.23044        0.308516 
        3.37727         1.22261        0.304847 
        3.39294         1.21105         0.30124 
        3.40867         1.19931        0.297678 
        3.42439         1.19598        0.294176 
        3.44008         1.18935        0.290736 
        3.45578         1.18058        0.287348 
        3.47153         1.17032        0.284006 
        3.48724         1.16158        0.280723 
        3.50292         1.15573          0.2775 
        3.51859         1.14978        0.274327 
        3.53431         1.13915        0.271195 
        3.55007         1.13059        0.268103 
        3.56577         1.12446        0.265071 
        3.58146         1.11953        0.262087 
        3.59719         1.10914        0.259142 
        3.61292         1.10502        0.256243 
        3.62859         1.09535        0.253399 
        3.64429         1.08528        0.250592 
        3.66003         1.07938        0.247819 
        3.67578         1.07302        0.245088 
        3.69146         1.06863        0.242409 
        3.70712         1.05629        0.239774 
        3.72284         1.05317        0.237168 
        3.73853         1.04609        0.234605 
        3.75422         1.04088        0.232079 
        3.76993          1.0336        0.229588 
        3.78564         1.02761        0.227134 
        3.80137          1.0197        0.224711 
        3.81707          1.0148        0.222329 
        3.83279         1.00565        0.219979 
        3.84853         1.00247        0.217659 
        3.86424        0.991995        0.215377 
        3.87992        0.993156        0.213131 
        3.89561        0.981875        0.210916 
        3.91134        0.978377        0.208728 
        3.92704        0.971524        0.206573 
        3.94273        0.966777        0.204451 
        3.95845        0.960064        0.202354 
        3.97418        0.953197        0.200286 
        3.98988        0.947527         0.19825 
        4.00554        0.939739        0.196247 
        4.02125        0.935381        0.194266 
        4.03698        0.927977        0.192309 
        4.05268         0.92141        0.190384 
        4.06839        0.912187        0.188483 
         4.0841        0.907904        0.186608 
        4.09983        0.901094        0.184756 
        4.11555        0.896115         0.18293 
        4.13124        0.888799        0.181133 
        4.14693        0.880666        0.179359 
        4.16266        0.875333        0.177604 
        4.17839        0.870755        0.175873 
        4.19408        0.865952         0.17417 
        4.20977        0.857739        0.172488 
        4.22551         0.85496        0.170824 
        4.24123        0.849177        0.169183 
        4.25691         0.84137        0.167569 
        4.27259        0.839716        0.165974 
        4.28831        0.831864        0.164398 
        4.30404        0.828296         0.16284 
        4.31974        0.821691        0.161305 
        4.33543         0.81714        0.159791 
        4.35116        0.814096        0.158292 
        4.36688        0.807633        0.156814 
        4.38255         0.80153        0.155359 
        4.39825        0.799323         0.15392 
        4.41398         0.79534        0.152496 
         4.4297        0.790302        0.151091 
        4.44541        0.786908        0.149704 
        4.46111         0.78437        0.148335 
        4.47683        0.780065        0.146983 
        4.49251        0.775762         0.14565 
        4.50819        0.771606        0.144333 
         4.5239        0.768076        0.143031 
        4.53962          0.7655        0.141743 
        4.55535        0.758934        0.140471 
        4.57106        0.758129        0.139215 
        4.58678        0.753769        0.137975 
         4.6025        0.751545        0.136749 
        4.61821        0.747632        0.135539 
        4.63391        0.743788        0.134344 
         4.6496        0.739483        0.133164 
        4.66532        0.738816        0.131997 
        4.68103        0.733959        0.130844 
        4.69673        0.732066        0.129705 
        4.71241        0.729355        0.128581 
        4.72811        0.726369        0.127469 
        4.74384        0.722623        0.126368 
        4.75955        0.719495        0.125282 
        4.77525        0.717416        0.124209 
        4.79096        0.714291        0.123147 
        4.80669        0.712088        0.122097 
         4.8224        0.710187        0.121061 
        4.83809         0.70808        0.120037 
        4.85379        0.705455        0.119024 
         4.8695        0.704297        0.118023 
        4.88521        0.698796        0.117033 
        4.90093        0.699123        0.116054 
        4.91663        0.698657        0.115087 
        4.93234        0.693541        0.114131 
        4.94807        0.692865        0.113184 
        4.96377        0.689276         0.11225 
        4.97943        0.689613        0.111328 
        4.99514        0.686944        0.110414 
        5.01086        0.684586         0.10951 
        5.02654        0.684618        0.108618 
        5.04227        0.681126        0.107733 
          5.058        0.680325        0.106857 
        5.07371        0.679594        0.105993 
        5.08942        0.675522        0.105138 
        5.10513         0.67502        0.104293 
        5.12084        0.674527        0.103456 
        5.13656        0.674281        0.102629 
        5.15225        0.670992        0.101812 
        5.16796         0.67021        0.101002 
        5.18369        0.668541        0.100201 
         5.1994        0.667957       0.0994096 
        5.21509        0.666593       0.0986274 
        5.23079        0.665915       0.0978526 
        5.24649        0.665037       0.0970867 
        5.26217        0.661125       0.0963294 
        5.27788        0.663501       0.0955791 
        5.29359        0.661157       0.0948366 
        5.30933        0.658936       0.0941009 
        5.32504        0.660776       0.0933741 
        5.34073        0.659521       0.0926558 
        5.35646         0.65734       0.0919435 
        5.37218        0.656944       0.0912385 
        5.38789         0.65751        0.090542 
        5.40357        0.655485       0.0898535 
        5.41929        0.654421       0.0891706 
        5.43502        0.653813       0.0884946 
         5.4507        0.654039       0.0878272 
        5.46639        0.652479       0.0871665 
        5.48212        0.651811       0.0865111 
        5.49786        0.650821       0.0858615 
        5.51353        0.651347       0.0852218 
        5.52921        0.649316       0.0845879 
        5.54495        0.649983       0.0839586 
        5.56066        0.649653       0.0833363 
        5.57637        0.650351       0.0827203 
        5.59207        0.648728       0.0821111 
        5.60778        0.647333       0.0815077 
        5.62346        0.648055       0.0809112 
        5.63916        0.647499         0.08032 
        5.65487         0.64736       0.0797344 
         5.6706        0.647842       0.0791539 
        5.68633        0.647899       0.0785789 
        5.70203        0.647014       0.0780108 
        5.71773        0.647143       0.0774483 
        5.73344        0.646777       0.0768911 
        5.74916        0.645257       0.0763388 
        5.76486        0.646369       0.0757926 
        5.78054         0.64436       0.0752525 
        5.79626        0.644606       0.0747162 
          5.812        0.644275       0.0741845 
         5.8277         0.64553       0.0736595 
        5.84339        0.644003       0.0731396 
        5.85911        0.644304       0.0726236 
        5.87484        0.644566       0.0721127 
        5.89053        0.644313       0.0716076 
        5.90623        0.644288       0.0711071 
        5.92195        0.644095       0.0706105 
        5.93767        0.642657       0.0701189 
        5.95336        0.643719       0.0696328 
        5.96905        0.644144       0.0691513 
        5.98476        0.641993       0.0686738 
        6.00048        0.642476       0.0682005 
        6.01617        0.643652       0.0677323 
        6.03185        0.642085       0.0672691 
        6.04756        0.643473        0.066809 
        6.06331        0.642725       0.0663522 
        6.07903        0.642563       0.0659006 
        6.09473         0.64221       0.0654536 
        6.11044        0.643602       0.0650104 
        6.12616        0.642584       0.0645712 
        6.14186        0.641217       0.0641365 
        6.15755        0.643255       0.0637059 
        6.17326        0.642224       0.0632788 
        6.18898        0.642558       0.0628554 
        6.20467        0.641919       0.0624366 
        6.22036        0.640876       0.0620216 
         6.2361        0.641418       0.0616092 
         6.2518        0.641822       0.0612013 
        6.26748        0.640533       0.0607979 
        6.28319        0.641321        0.060397 
        6.29893        0.641945       0.0599993 
        6.31463        0.640951       0.0596058 
        6.33033        0.641218        0.059216 
        6.34604         0.64104       0.0588294 
        6.36177        0.641051       0.0584458 
        6.37747         0.64131       0.0580664 
