# k  (h/Mpc)    Pcb(k)  (Mpc/h)^3    Pcb_linear(k) (Mpc/h)^3   ShotnoiseSubtracted = true
      0.0200456          8552.1         8653.01 
      0.0350414         5959.41         5793.47 
      0.0492313         4044.92         4054.81 
      0.0637834         3195.75         3280.16 
      0.0800726         2420.06         2490.32 
       0.096163         1830.17         1754.49 
       0.111083         1476.41         1399.37 
       0.126058         1227.33         1226.29 
       0.142273         1020.15         1001.23 
       0.158546         822.017         777.249 
        0.17375         714.407         660.952 
       0.188953          651.49         594.084 
       0.204907         543.368         510.768 
       0.220756         479.995         426.157 
        0.23588         424.509         373.495 
         0.2514          378.17         338.399 
       0.267535         358.541         299.998 
       0.283568         309.575         261.313 
       0.299022         291.679         233.494 
       0.314451         285.222         213.164 
       0.330372         244.811         193.043 
       0.346141         224.974         173.424 
       0.361624         211.554          157.46 
       0.377134         194.154         144.714 
       0.392932          187.41          132.88 
       0.408854         176.615         121.505 
       0.424564         168.049          111.65 
       0.440253         151.521         103.302 
       0.455999         141.535         95.7695 
       0.471626         138.201         88.7901 
        0.48727         131.998         82.4665 
       0.502856         120.046         76.9014 
       0.518488         118.451          71.853 
       0.534347         110.234         67.1267 
       0.550082         107.325         62.8221 
       0.565732         104.895         58.9493 
       0.581496         96.1086         55.3885 
       0.597222         93.7955         52.1133 
       0.612804         89.9681         49.1127 
       0.628434         87.6268         46.3449 
       0.644267         82.7041         43.7653 
       0.660051         80.1743         41.3867 
       0.675724         78.3199         39.1962 
       0.691403         76.3806         37.1606 
       0.707174         73.3146         35.2566 
       0.722871         71.8078          33.492 
        0.73838         69.6408         31.8657 
       0.754018         65.3022         30.3341 
       0.769845         64.7768         28.8854 
        0.78569         62.7182         27.5291 
       0.801365         60.5079         26.2725 
       0.817031         58.4404         25.0945 
       0.832809         57.1876         23.9808 
       0.848511         55.8636         22.9391 
       0.864097         54.6464         21.9659 
       0.879701         53.4115         21.0478 
       0.895507         51.3369          20.171 
       0.911279         50.3213         19.3456 
        0.92691         49.0732         18.5727 
       0.942635         47.7679         17.8376 
       0.958396         47.6583         17.1403 
       0.974128         46.3932         16.4812 
       0.989692          45.014          15.863 
        1.00528          44.103         15.2754 
        1.02113         43.0114         14.7081 
        1.03692         42.7848         14.1714 
        1.05264          41.802         13.6638 
        1.06832         40.6116         13.1816 
        1.08405         39.8684         12.7213 
        1.09979          39.514         12.2824 
        1.11537          38.382         11.8685 
        1.13105         37.4525          11.471 
        1.14679         36.9949           11.09 
        1.16256         36.3773         10.7254 
        1.17828         35.9481         10.3783 
        1.19395         34.8672         10.0476 
         1.2097           34.88         9.72954 
        1.22537         33.8724         9.42664 
          1.241         33.5942         9.13743 
        1.25666         32.5694         8.85953 
        1.27241         32.4567          8.5918 
        1.28819         31.7609         8.33457 
        1.30392         31.1864         8.08854 
        1.31957         30.9734         7.85344 
        1.33529          30.432         7.62674 
        1.35108         29.8845         7.40802 
        1.36674         29.3293         7.19936 
         1.3824         28.8889         6.99885 
        1.39811         28.3845         6.80525 
        1.41389         27.9684         6.61816 
        1.42964          27.816         6.43836 
        1.44531         27.2005         6.26606 
        1.46101         26.9378         6.09964 
        1.47667         26.5748          5.9397 
        1.49229         26.0256         5.78587 
        1.50793         25.8824         5.63726 
        1.52367          25.344         5.49287 
        1.53953         25.2476         5.35253 
        1.55526         24.7283         5.21816 
        1.57092         24.4701         5.08891 
        1.58662         24.1267          4.9637 
        1.60235         23.7629         4.84242 
        1.61809         23.4911         4.72508 
        1.63369          23.177         4.61264 
        1.64941         22.8485         4.50303 
        1.66519         22.5949         4.39654 
        1.68085         22.2041         4.29422 
        1.69652         21.9539          4.1951 
        1.71228         21.8591         4.09851 
        1.72806         21.4644         4.00486 
        1.74368          21.131         3.91505 
        1.75933          21.023         3.82778 
        1.77505         20.7813         3.74274 
        1.79081         20.4989         3.66011 
         1.8065         20.2576          3.5803 
        1.82218         19.9726         3.50292 
        1.83797          19.846         3.42727 
        1.85367         19.5588         3.35425 
        1.86928         19.5112         3.28378 
        1.88497         19.1405         3.21492 
        1.90073         18.9761         3.14777 
        1.91647         18.7338         3.08258 
        1.93218         18.6323         3.01935 
        1.94787         18.3988         2.95797 
        1.96363         18.1373         2.89804 
        1.97935          17.942         2.83987 
        1.99499         17.8195         2.78361 
        2.01064         17.5028         2.72878 
         2.0264         17.4132         2.67507 
        2.04216         17.3233         2.62281 
        2.05781         17.0584         2.57227 
        2.07353          16.889         2.52286 
        2.08928         16.6598         2.47463 
        2.10499         16.4571         2.42778 
        2.12065         16.3052         2.38227 
        2.13633         16.2056         2.33787 
        2.15211         15.9316         2.29431 
        2.16785         15.9015         2.25197 
        2.18349         15.6963         2.21095 
        2.19916           15.53         2.17085 
        2.21489         15.3314         2.13161 
        2.23063         15.2397          2.0933 
         2.2463         15.0901         2.05609 
        2.26194         14.8686         2.01987 
        2.27765         14.7481         1.98433 
        2.29341         14.5327         1.94954 
        2.30914         14.4197         1.91565 
        2.32486         14.3456         1.88257 
        2.34061         14.1531         1.85021 
        2.35635         13.9771         1.81864 
        2.37203         13.8807          1.7879 
        2.38768         13.7165         1.75793 
        2.40339         13.6834         1.72853 
        2.41914         13.5446         1.69972 
        2.43483         13.4053         1.67167 
         2.4505         13.1866         1.64429 
        2.46622         13.1036         1.61743 
        2.48195         12.9962         1.59115 
        2.49759          12.825         1.56559 
        2.51328         12.7089         1.54053 
        2.52906         12.6096         1.51584 
        2.54479         12.5118         1.49178 
        2.56049         12.3811         1.46829 
        2.57618         12.3093         1.44532 
        2.59189         12.1459          1.4228 
        2.60758         11.9931         1.40078 
        2.62325         11.9102         1.37926 
        2.63898         11.8681         1.35811 
        2.65468           11.72         1.33744 
        2.67044         11.6024         1.31711 
        2.68618         11.4719         1.29724 
        2.70184         11.4031         1.27786 
        2.71755         11.2616         1.25882 
        2.73329         11.1887         1.24013 
        2.74897         11.0904         1.22189 
        2.76462         10.9952         1.20404 
        2.78034         10.8827         1.18647 
        2.79607         10.7963         1.16924 
        2.81179         10.7439         1.15236 
        2.82749         10.6023         1.13583 
        2.84321         10.5338          1.1196 
        2.85893         10.4065         1.10369 
        2.87462         10.3314         1.08811 
        2.89033         10.2334         1.07281 
        2.90605         10.1537          1.0578 
        2.92176         10.0613         1.04307 
        2.93747          9.9972         1.02863 
        2.95318         9.90934         1.01446 
        2.96891         9.79513         1.00054 
        2.98456         9.72619        0.986946 
        3.00023         9.65872         0.97358 
        3.01596         9.59208        0.960418 
        3.03164         9.49443        0.947533 
        3.04738         9.40736        0.934845 
         3.0631         9.31311         0.92239 
        3.07883         9.24855         0.91016 
        3.09456         9.14319         0.89815 
        3.11026          9.0841        0.886373 
        3.12596         9.02607        0.874807 
        3.14163         8.92483        0.863471 
        3.15734         8.86511        0.852307 
        3.17308         8.81165        0.841311 
        3.18879         8.71923        0.830538 
        3.20447         8.67554        0.819966 
         3.2202          8.5687        0.809544 
         3.2359         8.49366        0.799319 
        3.25157         8.44879        0.789294 
        3.26729         8.34791        0.779407 
        3.28304          8.2905         0.76967 
        3.29877         8.25226        0.760109 
        3.31446         8.16806        0.750729 
        3.33014         8.11829        0.741515 
        3.34585         8.00543        0.732439 
        3.36158         7.96829        0.723499 
        3.37727         7.90124        0.714735 
        3.39294         7.84584        0.706123 
        3.40867         7.78072         0.69762 
        3.42439         7.70818         0.68926 
        3.44008         7.65488        0.681052 
        3.45578         7.58475         0.67297 
        3.47153         7.53496           0.665 
        3.48724         7.46454        0.657171 
        3.50292         7.39959        0.649485 
        3.51859         7.35361        0.641924 
        3.53431         7.28653        0.634459 
        3.55007          7.2264        0.627093 
        3.56577         7.13778        0.619872 
        3.58146         7.10963        0.612766 
        3.59719         7.03821        0.605754 
        3.61292         7.00858        0.598852 
        3.62859         6.95283        0.592083 
        3.64429         6.88132        0.585405 
        3.66003         6.82924        0.578807 
        3.67578         6.78945        0.572313 
        3.69146         6.73029        0.565942 
        3.70712         6.68114        0.559678 
        3.72284         6.62887        0.553484 
        3.73853          6.5846        0.547395 
        3.75422          6.5459        0.541393 
        3.76993         6.47306        0.535475 
        3.78564         6.44612        0.529647 
        3.80137         6.37395        0.523895 
        3.81707         6.31066         0.51824 
        3.83279         6.26954        0.512662 
        3.84853         6.23199        0.507157 
        3.86424         6.17066        0.501743 
        3.87992         6.15561        0.496414 
        3.89561          6.0879        0.491162 
        3.91134         6.03996        0.485974 
        3.92704          5.9973        0.480866 
        3.94273         5.95544        0.475836 
        3.95845         5.89579        0.470868 
        3.97418         5.86189        0.465969 
        3.98988         5.82264        0.461145 
        4.00554         5.76857        0.456402 
        4.02125         5.73549        0.451711 
        4.03698         5.69541        0.447078 
        4.05268         5.63139         0.44252 
        4.06839         5.58499        0.438022 
         4.0841          5.5565        0.433586 
        4.09983          5.4955        0.429205 
        4.11555         5.46267        0.424886 
        4.13124          5.4183        0.420637 
        4.14693         5.37788        0.416442 
        4.16266         5.34828        0.412294 
        4.17839          5.2934        0.408205 
        4.19408         5.27652        0.404179 
        4.20977          5.2216        0.400205 
        4.22551         5.19711        0.396275 
        4.24123         5.14325        0.392401 
        4.25691         5.10777        0.388588 
        4.27259         5.06525        0.384824 
        4.28831         5.03167        0.381103 
        4.30404         4.98219        0.377426 
        4.31974         4.94863        0.373805 
        4.33543         4.90268        0.370233 
        4.35116         4.87218        0.366699 
        4.36688         4.83908        0.363211 
        4.38255         4.82074        0.359782 
        4.39825         4.77407        0.356389 
        4.41398         4.71516        0.353032 
         4.4297         4.70176        0.349721 
        4.44541         4.67537        0.346454 
        4.46111         4.64205        0.343229 
        4.47683         4.61158        0.340044 
        4.49251         4.57928        0.336904 
        4.50819         4.53377        0.333805 
         4.5239          4.4947        0.330739 
        4.53962         4.47986        0.327708 
        4.55535         4.43768        0.324713 
        4.57106         4.41443        0.321759 
        4.58678         4.37884        0.318841 
         4.6025         4.35059        0.315958 
        4.61821         4.32285        0.313111 
        4.63391         4.29475        0.310302 
         4.6496         4.26052        0.307528 
        4.66532         4.21836        0.304784 
        4.68103         4.20092        0.302073 
        4.69673         4.16949        0.299398 
        4.71241          4.1483        0.296758 
        4.72811         4.10891        0.294145 
        4.74384         4.08685        0.291559 
        4.75955         4.05066        0.289008 
        4.77525         4.02772        0.286489 
        4.79096         4.00732        0.283996 
        4.80669         3.97489        0.281532 
         4.8224         3.94641        0.279099 
        4.83809         3.91205        0.276697 
        4.85379         3.89457        0.274322 
         4.8695          3.8659        0.271972 
        4.88521         3.84342         0.26965 
        4.90093         3.81079        0.267355 
        4.91663         3.78503        0.265088 
        4.93234          3.7585        0.262845 
        4.94807         3.73402        0.260626 
        4.96377         3.70621        0.258437 
        4.97943         3.68315        0.256277 
        4.99514         3.66949        0.254136 
        5.01086         3.63496        0.252017 
        5.02654         3.61427        0.249927 
        5.04227         3.59423        0.247855 
          5.058         3.55958        0.245805 
        5.07371         3.53948        0.243783 
        5.08942         3.52587        0.241782 
        5.10513         3.49832        0.239803 
        5.12084         3.48246        0.237845 
        5.13656         3.45042        0.235909 
        5.15225         3.42743        0.233998 
        5.16796          3.4051        0.232105 
        5.18369          3.3825         0.23023 
         5.1994         3.36449         0.22838 
        5.21509         3.34859        0.226551 
        5.23079         3.31929         0.22474 
        5.24649         3.30033        0.222949 
        5.26217         3.28042         0.22118 
        5.27788         3.26074        0.219426 
        5.29359         3.23218        0.217692 
        5.30933         3.21896        0.215973 
        5.32504         3.19389        0.214275 
        5.34073         3.17963        0.212598 
        5.35646          3.1651        0.210935 
        5.37218         3.14246        0.209289 
        5.38789         3.11868        0.207663 
        5.40357         3.09711        0.206056 
        5.41929         3.07544        0.204462 
        5.43502          3.0616        0.202885 
         5.4507         3.03585        0.201328 
        5.46639         3.01671        0.199786 
        5.48212         3.00809        0.198258 
        5.49786         2.98447        0.196743 
        5.51353         2.96619        0.195251 
        5.52921         2.94526        0.193773 
        5.54495         2.93286        0.192306 
        5.56066         2.91503        0.190856 
        5.57637         2.89212         0.18942 
        5.59207         2.88005           0.188 
        5.60778         2.86183        0.186595 
        5.62346         2.84856        0.185205 
        5.63916         2.83005        0.183828 
        5.65487         2.80998        0.182464 
         5.6706         2.79226        0.181112 
        5.68633         2.77335        0.179774 
        5.70203         2.75995        0.178451 
        5.71773         2.74326        0.177142 
        5.73344         2.73001        0.175845 
        5.74916         2.70804        0.174559 
        5.76486         2.69514        0.173289 
        5.78054         2.67772        0.172032 
        5.79626         2.66664        0.170784 
          5.812          2.6492        0.169548 
         5.8277         2.63021        0.168327 
        5.84339         2.61531        0.167118 
        5.85911         2.60423        0.165918 
        5.87484         2.58663         0.16473 
        5.89053         2.57137        0.163556 
        5.90623         2.55927        0.162393 
        5.92195         2.54519        0.161239 
        5.93767         2.53031        0.160097 
        5.95336         2.51568        0.158968 
        5.96905         2.50073        0.157849 
        5.98476         2.48412         0.15674 
        6.00048         2.47231        0.155641 
        6.01617         2.45799        0.154554 
        6.03185         2.44831        0.153478 
        6.04756         2.43087         0.15241 
        6.06331          2.4222         0.15135 
        6.07903         2.40403        0.150302 
        6.09473         2.38943        0.149264 
        6.11044         2.37329        0.148236 
        6.12616         2.36736        0.147217 
        6.14186         2.34913        0.146209 
        6.15755         2.33858         0.14521 
        6.17326         2.32423        0.144219 
        6.18898          2.3075        0.143237 
        6.20467         2.30431        0.142266 
        6.22036         2.28919        0.141304 
         6.2361         2.27493        0.140348 
         6.2518         2.26049        0.139403 
        6.26748         2.25389        0.138468 
        6.28319         2.24436        0.137539 
        6.29893         2.22866        0.136617 
        6.31463         2.21843        0.135706 
        6.33033         2.20196        0.134803 
        6.34604         2.19444        0.133908 
        6.36177         2.18277        0.133019 
        6.37747         2.17097        0.132141 
