# k  (h/Mpc)    Pcb(k)  (Mpc/h)^3    Pcb_linear(k) (Mpc/h)^3   ShotnoiseSubtracted = true
      0.0200456         21.6916         21.9267 
      0.0350414         14.8012         14.6806 
      0.0492313          10.326         10.2749 
      0.0637834         8.29871         8.31192 
      0.0800726         6.30252         6.31046 
       0.096163         4.48633         4.44587 
       0.111083         3.57274         3.54601 
       0.126058         3.09967         3.10742 
       0.142273         2.53382         2.53711 
       0.158546         1.97915         1.96955 
        0.17375         1.68219         1.67485 
       0.188953         1.50375         1.50541 
       0.204907          1.2893         1.29429 
       0.220756         1.08272         1.07988 
        0.23588        0.947692        0.946437 
         0.2514        0.857319        0.857503 
       0.267535         0.76019        0.760195 
       0.283568          0.6635        0.662167 
       0.299022        0.592386        0.591674 
       0.314451        0.541803        0.540157 
       0.330372        0.489668         0.48917 
       0.346141        0.440275        0.439456 
       0.361624        0.399454        0.399004 
       0.377134        0.366695        0.366704 
       0.392932        0.338457        0.336718 
       0.408854        0.308073        0.307895 
       0.424564         0.28412         0.28292 
       0.440253        0.262327        0.261768 
       0.455999        0.242612         0.24268 
       0.471626        0.224908        0.224994 
        0.48727        0.209608         0.20897 
       0.502856        0.195647        0.194868 
       0.518488        0.182006        0.182076 
       0.534347        0.169737        0.170099 
       0.550082        0.159609        0.159191 
       0.565732        0.150253        0.149378 
       0.581496        0.140707        0.140354 
       0.597222        0.132318        0.132055 
       0.612804        0.124715        0.124451 
       0.628434        0.117582        0.117438 
       0.644267        0.111248        0.110901 
       0.660051        0.105292        0.104874 
       0.675724       0.0995502        0.099323 
       0.691403       0.0942962       0.0941649 
       0.707174       0.0894939       0.0893401 
       0.722871       0.0853959       0.0848688 
        0.73838       0.0808787       0.0807478 
       0.754018       0.0769558       0.0768665 
       0.769845       0.0731893       0.0731956 
        0.78569       0.0699582       0.0697587 
       0.801365       0.0668407       0.0665744 
       0.817031       0.0638265       0.0635894 
       0.832809       0.0609512       0.0607672 
       0.848511       0.0583007       0.0581276 
       0.864097       0.0559444       0.0556616 
       0.879701       0.0536898       0.0533352 
       0.895507       0.0512188       0.0511133 
       0.911279       0.0492417       0.0490216 
        0.92691       0.0473681       0.0470633 
       0.942635       0.0453516       0.0452003 
       0.958396        0.043671       0.0434334 
       0.974128       0.0419934       0.0417634 
       0.989692       0.0403967       0.0401969 
        1.00528       0.0388079       0.0387078 
        1.02113       0.0375327       0.0372702 
        1.03692       0.0361787       0.0359104 
        1.05264       0.0348242        0.034624 
        1.06832       0.0336053       0.0334022 
        1.08405       0.0324266       0.0322357 
        1.09979       0.0313603       0.0311237 
        1.11537       0.0301899       0.0300747 
        1.13105       0.0291889       0.0290674 
        1.14679       0.0282481       0.0281021 
        1.16256       0.0273909       0.0271783 
        1.17828       0.0265088       0.0262987 
        1.19395       0.0256567       0.0254607 
         1.2097       0.0248412       0.0246547 
        1.22537       0.0240319       0.0238871 
          1.241       0.0233017       0.0231542 
        1.25666       0.0226323       0.0224501 
        1.27241       0.0219289       0.0217716 
        1.28819        0.021265       0.0211198 
        1.30392       0.0206908       0.0204964 
        1.31957       0.0200547       0.0199006 
        1.33529       0.0195284       0.0193262 
        1.35108       0.0189044       0.0187719 
        1.36674        0.018447       0.0182432 
         1.3824       0.0178709       0.0177351 
        1.39811        0.017368       0.0172445 
        1.41389       0.0169537       0.0167704 
        1.42964       0.0164575       0.0163148 
        1.44531       0.0160275       0.0158782 
        1.46101       0.0155959       0.0154565 
        1.47667       0.0152026       0.0150512 
        1.49229       0.0148254       0.0146614 
        1.50793       0.0144419       0.0142848 
        1.52367       0.0140689       0.0139189 
        1.53953       0.0136907       0.0135633 
        1.55526       0.0133508       0.0132228 
        1.57092       0.0130664       0.0128953 
        1.58662       0.0127219        0.012578 
        1.60235       0.0124069       0.0122707 
        1.61809       0.0121175       0.0119734 
        1.63369       0.0118298       0.0116884 
        1.64941       0.0115357       0.0114107 
        1.66519       0.0112774       0.0111408 
        1.68085       0.0110195       0.0108816 
        1.69652       0.0107758       0.0106304 
        1.71228       0.0104972       0.0103856 
        1.72806       0.0103003       0.0101483 
        1.74368       0.0100555      0.00992073 
        1.75933      0.00983142      0.00969959 
        1.77505      0.00963138       0.0094841 
        1.79081       0.0094058      0.00927471 
         1.8065      0.00921655      0.00907247 
        1.82218      0.00900118      0.00887639 
        1.83797      0.00881193       0.0086847 
        1.85367      0.00862588      0.00849967 
        1.86928       0.0084234      0.00832109 
        1.88497      0.00826471      0.00814662 
        1.90073      0.00807853      0.00797645 
        1.91647      0.00795013      0.00781125 
        1.93218      0.00779439      0.00765103 
        1.94787      0.00761332       0.0074955 
        1.96363      0.00745714      0.00734363 
        1.97935      0.00731435      0.00719623 
        1.99499      0.00717681      0.00705368 
        2.01064      0.00702493      0.00691474 
         2.0264      0.00689495      0.00677863 
        2.04216       0.0067685      0.00664621 
        2.05781      0.00663055      0.00651813 
        2.07353      0.00650965      0.00639294 
        2.08928      0.00638284      0.00627072 
        2.10499      0.00628172        0.006152 
        2.12065      0.00615124      0.00603667 
        2.13633      0.00604141      0.00592417 
        2.15211      0.00592793      0.00581378 
        2.16785      0.00580087      0.00570648 
        2.18349      0.00571461      0.00560254 
        2.19916      0.00560407      0.00550093 
        2.21489      0.00550479      0.00540149 
        2.23063      0.00541758      0.00530441 
         2.2463      0.00532359      0.00521013 
        2.26194      0.00522911      0.00511835 
        2.27765      0.00514067      0.00502828 
        2.29341      0.00503931      0.00494013 
        2.30914      0.00495905      0.00485425 
        2.32486      0.00486761      0.00477044 
        2.34061      0.00478492      0.00468844 
        2.35635      0.00471194      0.00460843 
        2.37203      0.00464369      0.00453054 
        2.38768      0.00457508      0.00445459 
        2.40339      0.00448714      0.00438009 
        2.41914      0.00441294       0.0043071 
        2.43483      0.00435233      0.00423601 
         2.4505      0.00427075      0.00416664 
        2.46622      0.00419931      0.00409855 
        2.48195      0.00413133      0.00403197 
        2.49759      0.00407223      0.00396721 
        2.51328      0.00400207      0.00390369 
        2.52906      0.00393903      0.00384114 
        2.54479      0.00387843      0.00378018 
        2.56049      0.00381507      0.00372065 
        2.57618      0.00376141      0.00366243 
        2.59189       0.0036981      0.00360536 
        2.60758      0.00365471      0.00354958 
        2.62325      0.00358651      0.00349504 
        2.63898      0.00354073      0.00344144 
        2.65468       0.0034821      0.00338907 
        2.67044      0.00342948      0.00333755 
        2.68618      0.00337488      0.00328721 
        2.70184      0.00334042      0.00323809 
        2.71755       0.0032856      0.00318985 
        2.73329      0.00324358       0.0031425 
        2.74897      0.00318636      0.00309626 
        2.76462      0.00314387      0.00305104 
        2.78034      0.00310331      0.00300653 
        2.79607      0.00305696      0.00296284 
        2.81179      0.00301224      0.00292007 
        2.82749      0.00297066      0.00287818 
        2.84321      0.00292809      0.00283706 
        2.85893      0.00289156      0.00279674 
        2.87462      0.00284982      0.00275727 
        2.89033      0.00281016      0.00271851 
        2.90605      0.00276592      0.00268046 
        2.92176      0.00273431      0.00264314 
        2.93747       0.0026986      0.00260655 
        2.95318      0.00265831      0.00257064 
        2.96891       0.0026201      0.00253537 
        2.98456      0.00258658      0.00250092 
        3.00023      0.00256212      0.00246705 
        3.01596      0.00252184       0.0024337 
        3.03164      0.00248684      0.00240105 
        3.04738      0.00245852       0.0023689 
         3.0631      0.00242179      0.00233734 
        3.07883      0.00239661      0.00230634 
        3.09456      0.00236127      0.00227591 
        3.11026      0.00232793      0.00224607 
        3.12596      0.00230602      0.00221676 
        3.14163       0.0022759      0.00218803 
        3.15734      0.00225055      0.00215975 
        3.17308      0.00222258      0.00213188 
        3.18879      0.00218682      0.00210458 
        3.20447      0.00216725      0.00207779 
         3.2202      0.00213463      0.00205138 
         3.2359      0.00211286      0.00202547 
        3.25157      0.00208463      0.00200007 
        3.26729       0.0020575      0.00197502 
        3.28304      0.00203705      0.00195034 
        3.29877      0.00200971      0.00192611 
        3.31446      0.00198439      0.00190235 
        3.33014      0.00196102        0.001879 
        3.34585      0.00194364        0.001856 
        3.36158      0.00191863      0.00183335 
        3.37727      0.00189292      0.00181114 
        3.39294       0.0018713      0.00178932 
        3.40867      0.00185137      0.00176777 
        3.42439      0.00183025      0.00174659 
        3.44008      0.00180811      0.00172579 
        3.45578      0.00179044      0.00170531 
        3.47153      0.00176684      0.00168511 
        3.48724       0.0017461      0.00166527 
        3.50292      0.00172889       0.0016458 
        3.51859      0.00171767      0.00162664 
        3.53431      0.00169218      0.00160772 
        3.55007      0.00167147      0.00158905 
        3.56577      0.00165203      0.00157075 
        3.58146       0.0016376      0.00155275 
        3.59719      0.00161971      0.00153498 
        3.61292      0.00160216      0.00151749 
        3.62859      0.00158109      0.00150034 
        3.64429      0.00156849      0.00148341 
        3.66003      0.00155241       0.0014667 
        3.67578      0.00153433      0.00145024 
        3.69146      0.00152096       0.0014341 
        3.70712      0.00150047      0.00141822 
        3.72284      0.00148726      0.00140253 
        3.73853      0.00146703       0.0013871 
        3.75422      0.00145528      0.00137189 
        3.76993      0.00144327      0.00135689 
        3.78564      0.00142948      0.00134212 
        3.80137       0.0014114      0.00132755 
        3.81707      0.00139774      0.00131322 
        3.83279      0.00138133      0.00129909 
        3.84853      0.00137104      0.00128514 
        3.86424      0.00135731      0.00127142 
        3.87992      0.00134374      0.00125791 
        3.89561      0.00133153       0.0012446 
        3.91134        0.001317      0.00123146 
        3.92704      0.00130744      0.00121851 
        3.94273      0.00129295      0.00120577 
        3.95845      0.00128497      0.00119318 
        3.97418      0.00126962      0.00118076 
        3.98988      0.00125549      0.00116854 
        4.00554      0.00124451      0.00115652 
        4.02125      0.00123069      0.00114464 
        4.03698      0.00121187       0.0011329 
        4.05268      0.00120201      0.00112135 
        4.06839      0.00119139      0.00110995 
         4.0841      0.00118001      0.00109871 
        4.09983      0.00117057      0.00108761 
        4.11555      0.00115699      0.00107666 
        4.13124      0.00115119      0.00106589 
        4.14693      0.00113974      0.00105526 
        4.16266       0.0011324      0.00104475 
        4.17839      0.00112424      0.00103439 
        4.19408      0.00111319      0.00102419 
        4.20977      0.00110307      0.00101412 
        4.22551      0.00109624      0.00100416 
        4.24123      0.00108947     0.000994343 
        4.25691      0.00108513     0.000984682 
        4.27259      0.00107568     0.000975145 
        4.28831      0.00107097     0.000965714 
        4.30404      0.00106183     0.000956397 
        4.31974      0.00105909     0.000947221 
        4.33543      0.00105204      0.00093817 
        4.35116      0.00104563     0.000929214 
        4.36688      0.00104055     0.000920377 
        4.38255      0.00103538     0.000911687 
        4.39825      0.00103222     0.000903088 
        4.41398      0.00102935     0.000894582 
         4.4297      0.00102147     0.000886194 
        4.44541      0.00102006     0.000877913 
        4.46111      0.00101756     0.000869743 
        4.47683      0.00101252      0.00086167 
        4.49251      0.00101054     0.000853715 
        4.50819       0.0010076     0.000845861 
         4.5239      0.00100563     0.000838093 
        4.53962      0.00100627     0.000830412 
        4.55535      0.00100259     0.000822823 
        4.57106      0.00100468     0.000815338 
        4.58678      0.00100184     0.000807943 
         4.6025      0.00100305     0.000800638 
        4.61821      0.00100056     0.000793423 
        4.63391      0.00100349     0.000786305 
         4.6496     0.000999765     0.000779276 
        4.66532      0.00100517     0.000772322 
        4.68103      0.00100401     0.000765454 
        4.69673      0.00100743     0.000758675 
        4.71241       0.0010106     0.000751984 
        4.72811         0.00101     0.000745362 
        4.74384      0.00101315     0.000738811 
        4.75955      0.00102113     0.000732347 
        4.77525      0.00102529     0.000725963 
        4.79096      0.00102952     0.000719647 
        4.80669       0.0010312     0.000713401 
         4.8224      0.00103718     0.000707237 
        4.83809      0.00103811      0.00070115 
        4.85379       0.0010474     0.000695131 
         4.8695       0.0010552     0.000689176 
        4.88521      0.00106398     0.000683294 
        4.90093      0.00106664     0.000677478 
        4.91663      0.00107937     0.000671734 
        4.93234      0.00108383      0.00066605 
        4.94807      0.00109119     0.000660427 
        4.96377      0.00109738     0.000654879 
        4.97943      0.00110999     0.000649405 
        4.99514      0.00111548     0.000643979 
        5.01086      0.00113227     0.000638611 
        5.02654      0.00114332     0.000633316 
        5.04227      0.00115183     0.000628065 
          5.058      0.00116208     0.000622871 
        5.07371      0.00117291     0.000617745 
        5.08942      0.00119547     0.000612675 
        5.10513      0.00120196     0.000607661 
        5.12084       0.0012189       0.0006027 
        5.13656      0.00123432     0.000597794 
        5.15225      0.00124818     0.000592951 
        5.16796      0.00126888     0.000588153 
        5.18369      0.00127581     0.000583403 
         5.1994      0.00130118     0.000578714 
        5.21509      0.00131341     0.000574079 
        5.23079      0.00133001      0.00056949 
        5.24649      0.00135456     0.000564954 
        5.26217      0.00137755     0.000560469 
        5.27788      0.00139368     0.000556026 
        5.29359      0.00141366     0.000551631 
        5.30933      0.00143523     0.000547275 
        5.32504      0.00145732     0.000542974 
        5.34073      0.00148188     0.000538723 
        5.35646      0.00150609     0.000534508 
        5.37218      0.00153205     0.000530337 
        5.38789      0.00155815     0.000526217 
        5.40357      0.00157698     0.000522145 
        5.41929      0.00161019     0.000518107 
        5.43502      0.00163801      0.00051411 
         5.4507      0.00166934     0.000510164 
        5.46639      0.00168908     0.000506259 
        5.48212      0.00172434     0.000502385 
        5.49786      0.00176583     0.000498546 
        5.51353      0.00179634     0.000494766 
        5.52921      0.00181776     0.000491021 
        5.54495      0.00187526     0.000487304 
        5.56066      0.00190554     0.000483628 
        5.57637      0.00194602      0.00047999 
        5.59207      0.00197646     0.000476393 
        5.60778      0.00201088     0.000472831 
        5.62346      0.00205395     0.000469309 
        5.63916      0.00209866      0.00046582 
        5.65487      0.00214799     0.000462364 
         5.6706      0.00218936     0.000458938 
        5.68633       0.0022336     0.000455546 
        5.70203      0.00228913     0.000452195 
        5.71773      0.00231942     0.000448877 
        5.73344       0.0023774      0.00044559 
        5.74916      0.00244956     0.000442333 
        5.76486       0.0024914     0.000439113 
        5.78054      0.00254245     0.000435929 
        5.79626      0.00260235     0.000432768 
          5.812      0.00267171     0.000429634 
         5.8277      0.00272083      0.00042654 
        5.84339      0.00278259     0.000423477 
        5.85911      0.00286686     0.000420437 
        5.87484      0.00292343     0.000417427 
        5.89053      0.00301044     0.000414452 
        5.90623      0.00306298     0.000411505 
        5.92195      0.00314623      0.00040858 
        5.93767      0.00323529     0.000405686 
        5.95336      0.00330215     0.000402824 
        5.96905      0.00339354      0.00039999 
        5.98476      0.00347808     0.000397179 
        6.00048      0.00357143     0.000394394 
        6.01617      0.00365372     0.000391639 
        6.03185      0.00374348     0.000388914 
        6.04756      0.00383867     0.000386207 
        6.06331      0.00393449      0.00038352 
        6.07903      0.00404459     0.000380865 
        6.09473      0.00415739     0.000378236 
        6.11044       0.0042786      0.00037563 
        6.12616      0.00437585     0.000373048 
        6.14186      0.00448847     0.000370493 
        6.15755      0.00462495     0.000367961 
        6.17326      0.00471453     0.000365451 
        6.18898       0.0048621     0.000362963 
        6.20467      0.00502376     0.000360503 
        6.22036      0.00512085     0.000358065 
         6.2361      0.00525239     0.000355643 
         6.2518      0.00543432     0.000353247 
        6.26748      0.00554517     0.000350878 
        6.28319       0.0057353     0.000348523 
        6.29893      0.00590612     0.000346189 
        6.31463      0.00605484     0.000343879 
        6.33033      0.00621708     0.000341591 
        6.34604      0.00640956     0.000339322 
        6.36177      0.00655955     0.000337071 
        6.37747      0.00681577     0.000334844 
