# k  (h/Mpc)    Pcb(k)  (Mpc/h)^3    Pcb_linear(k) (Mpc/h)^3   ShotnoiseSubtracted = true
      0.0200456           15914         16127.1 
      0.0350414         11172.5         10797.6 
      0.0492313         7488.51         7557.17 
      0.0637834         5897.66         6113.42 
      0.0800726         4459.88         4641.34 
       0.096163         3453.12         3269.94 
       0.111083         2793.77         2608.09 
       0.126058         2300.24         2285.51 
       0.142273         1942.85         1866.04 
       0.158546         1573.43          1448.6 
        0.17375         1383.55         1231.85 
       0.188953         1285.41         1107.23 
       0.204907         1081.89         951.949 
       0.220756         964.454         794.254 
        0.23588         857.499         696.105 
         0.2514         763.686         630.694 
       0.267535          735.68         559.124 
       0.283568         640.705         487.024 
       0.299022         609.282         435.177 
       0.314451         620.387         397.286 
       0.330372         529.916         359.784 
       0.346141         487.733          323.22 
       0.361624         464.748         293.468 
       0.377134         437.107         269.711 
       0.392932         419.114         247.656 
       0.408854         399.018         226.457 
       0.424564         385.611         208.088 
       0.440253          349.04         192.531 
       0.455999         332.832         178.491 
       0.471626         335.149         165.483 
        0.48727         315.409         153.697 
       0.502856         291.651         143.326 
       0.518488         290.389         133.917 
       0.534347          271.16         125.108 
       0.550082         260.315         117.085 
       0.565732         258.668         109.867 
       0.581496         246.577         103.231 
       0.597222         239.153         97.1266 
       0.612804         231.716         91.5341 
       0.628434         223.377         86.3757 
       0.644267         213.246         81.5679 
       0.660051         210.114         77.1348 
       0.675724         205.769         73.0521 
       0.691403         200.906         69.2583 
       0.707174         192.989         65.7097 
       0.722871         189.443         62.4211 
        0.73838         187.321           59.39 
       0.754018         178.533         56.5353 
       0.769845         178.298         53.8354 
        0.78569         172.527         51.3076 
       0.801365         167.177         48.9655 
       0.817031         164.907         46.7701 
       0.832809         161.108         44.6943 
       0.848511         156.879         42.7529 
       0.864097         152.651         40.9391 
       0.879701         151.905         39.2281 
       0.895507         148.312         37.5939 
       0.911279         143.964         36.0554 
        0.92691         141.112         34.6151 
       0.942635         139.571         33.2449 
       0.958396         136.529         31.9453 
       0.974128         134.131          30.717 
       0.989692         129.486         29.5648 
        1.00528          129.05         28.4696 
        1.02113         126.104         27.4123 
        1.03692         123.735         26.4121 
        1.05264         121.642          25.466 
        1.06832         120.446         24.5674 
        1.08405         117.436         23.7094 
        1.09979          116.39         22.8915 
        1.11537          114.13           22.12 
        1.13105         112.277         21.3791 
        1.14679         110.746         20.6691 
        1.16256         108.327         19.9896 
        1.17828         107.291         19.3427 
        1.19395          104.88         18.7264 
         1.2097         103.698         18.1335 
        1.22537         102.534          17.569 
          1.241         100.157           17.03 
        1.25666         98.6382          16.512 
        1.27241         96.4402          16.013 
        1.28819         95.7342         15.5336 
        1.30392         94.3998         15.0751 
        1.31957         92.4072         14.6369 
        1.33529         91.0749         14.2144 
        1.35108         90.1374         13.8068 
        1.36674         88.5606         13.4179 
         1.3824         87.8622         13.0442 
        1.39811         86.1838         12.6833 
        1.41389         85.0409         12.3347 
        1.42964         83.4002         11.9995 
        1.44531         82.6656         11.6784 
        1.46101         81.1237         11.3682 
        1.47667          80.796         11.0702 
        1.49229         79.7614         10.7835 
        1.50793         78.2151         10.5065 
        1.52367         77.1714         10.2374 
        1.53953         76.4258         9.97582 
        1.55526         75.2842         9.72539 
        1.57092         74.6346          9.4845 
        1.58662         73.5113         9.25113 
        1.60235         72.5171         9.02509 
        1.61809           71.58         8.80641 
        1.63369         70.4624         8.59685 
        1.64941         70.3514         8.39255 
        1.66519         69.0355         8.19409 
        1.68085         67.7278         8.00339 
        1.69652         66.8861         7.81865 
        1.71228         65.9958         7.63864 
        1.72806         65.7027         7.46409 
        1.74368         64.3411          7.2967 
        1.75933         63.8379         7.13405 
        1.77505         63.2455         6.97556 
        1.79081         61.9957         6.82155 
         1.8065         61.3749         6.67281 
        1.82218         60.6567         6.52859 
        1.83797         60.1341          6.3876 
        1.85367         59.0653         6.25151 
        1.86928         58.5331         6.12017 
        1.88497          57.829         5.99184 
        1.90073         57.1656         5.86669 
        1.91647         56.3663         5.74518 
        1.93218         55.5882         5.62734 
        1.94787         54.9345         5.51294 
        1.96363          54.206         5.40124 
        1.97935         53.7992         5.29283 
        1.99499         53.1563         5.18798 
        2.01064         52.3327         5.08579 
         2.0264         51.8122         4.98568 
        2.04216         51.0471         4.88829 
        2.05781         50.5117         4.79409 
        2.07353         49.9805         4.70201 
        2.08928         49.4783         4.61212 
        2.10499         48.7248          4.5248 
        2.12065         48.4136         4.43997 
        2.13633          47.737         4.35723 
        2.15211         47.1242         4.27604 
        2.16785         46.3132         4.19712 
        2.18349         45.9681         4.12067 
        2.19916         45.4399         4.04594 
        2.21489         44.8647          3.9728 
        2.23063         44.3803          3.9014 
         2.2463         43.9654         3.83205 
        2.26194         43.6411         3.76455 
        2.27765         42.9757          3.6983 
        2.29341         42.5084         3.63347 
        2.30914           41.81          3.5703 
        2.32486         41.4792         3.50866 
        2.34061         41.0667         3.44835 
        2.35635         40.5943          3.3895 
        2.37203         39.8912         3.33221 
        2.38768         39.6968         3.27635 
        2.40339         39.2547         3.22156 
        2.41914         38.6508         3.16787 
        2.43483         38.3986         3.11559 
         2.4505          38.064         3.06456 
        2.46622         37.5483         3.01449 
        2.48195         37.0432         2.96552 
        2.49759         36.6323         2.91789 
        2.51328         36.2999         2.87117 
        2.52906          35.931         2.82516 
        2.54479         35.5563         2.78032 
        2.56049         34.8727         2.73654 
        2.57618         34.6607         2.69372 
        2.59189         34.4114         2.65175 
        2.60758         33.7697         2.61072 
        2.62325         33.5712         2.57061 
        2.63898         33.3147         2.53118 
        2.65468         32.8991         2.49266 
        2.67044         32.6888         2.45477 
        2.68618         32.2861         2.41774 
        2.70184         31.7532         2.38162 
        2.71755         31.4869         2.34613 
        2.73329         31.1428         2.31131 
        2.74897         30.9185          2.2773 
        2.76462         30.5732         2.24404 
        2.78034         30.1737          2.2113 
        2.79607         29.7614         2.17917 
        2.81179         29.4973         2.14771 
        2.82749          29.212          2.1169 
        2.84321         28.9236         2.08666 
        2.85893         28.5463           2.057 
        2.87462         28.1986         2.02797 
        2.89033         28.0204         1.99946 
        2.90605         27.6622         1.97148 
        2.92176         27.4573         1.94403 
        2.93747         27.1972         1.91712 
        2.95318         26.9241          1.8907 
        2.96891         26.5651         1.86477 
        2.98456         26.4165         1.83943 
        3.00023           26.18         1.81452 
        3.01596         25.8169         1.78999 
        3.03164         25.5276         1.76597 
        3.04738         25.2691         1.74232 
         3.0631         25.1385         1.71911 
        3.07883         24.7601         1.69632 
        3.09456         24.4944         1.67393 
        3.11026         24.2012         1.65199 
        3.12596         24.0108         1.63043 
        3.14163         23.7743          1.6093 
        3.15734         23.5932         1.58849 
        3.17308         23.3232           1.568 
        3.18879         23.0559         1.54792 
        3.20447         22.7623         1.52822 
         3.2202         22.6395         1.50879 
         3.2359         22.3838         1.48974 
        3.25157         22.1948         1.47105 
        3.26729         21.9457         1.45263 
        3.28304         21.6634         1.43448 
        3.29877          21.446         1.41666 
        3.31446         21.2505         1.39918 
        3.33014         21.0568           1.382 
        3.34585         20.8747         1.36509 
        3.36158         20.6975         1.34843 
        3.37727         20.4647         1.33209 
        3.39294         20.2329         1.31604 
        3.40867         20.0639          1.3002 
        3.42439         19.9235         1.28461 
        3.44008         19.7186         1.26932 
        3.45578         19.5415         1.25425 
        3.47153         19.3017          1.2394 
        3.48724         19.1405         1.22481 
        3.50292         18.9623         1.21048 
        3.51859         18.7918         1.19639 
        3.53431         18.5531         1.18248 
        3.55007         18.3814         1.16875 
        3.56577         18.2308         1.15529 
        3.58146         18.0596         1.14205 
        3.59719         17.8808         1.12898 
        3.61292         17.7626         1.11612 
        3.62859         17.5308          1.1035 
        3.64429         17.3398         1.09105 
        3.66003         17.2492         1.07876 
        3.67578         17.0397         1.06665 
        3.69146         16.9198         1.05478 
        3.70712         16.7341          1.0431 
        3.72284          16.607         1.03156 
        3.73853         16.5016         1.02021 
        3.75422         16.2742         1.00902 
        3.76993         16.1274        0.997996 
        3.78564         15.9736        0.987133 
        3.80137         15.8403        0.976414 
        3.81707         15.6503        0.965873 
        3.83279         15.5348        0.955478 
        3.84853         15.4085        0.945218 
        3.86424          15.266        0.935126 
        3.87992         15.0887        0.925195 
        3.89561         15.0233        0.915407 
        3.91134         14.8415        0.905738 
        3.92704         14.7163        0.896218 
        3.94273         14.5678        0.886843 
        3.95845         14.4367        0.877583 
        3.97418         14.3054        0.868452 
        3.98988         14.1857        0.859462 
        4.00554         14.0766        0.850622 
        4.02125         13.9238         0.84188 
        4.03698         13.7906        0.833246 
        4.05268         13.6572        0.824751 
        4.06839         13.5624        0.816366 
         4.0841         13.4403          0.8081 
        4.09983          13.306        0.799935 
        4.11555         13.1994        0.791885 
        4.13124         13.0979        0.783966 
        4.14693         12.9806        0.776148 
        4.16266         12.8735        0.768417 
        4.17839         12.7321        0.760795 
        4.19408         12.6613        0.753292 
        4.20977         12.5422        0.745886 
        4.22551         12.4034         0.73856 
        4.24123         12.2871         0.73134 
        4.25691         12.1697        0.724234 
        4.27259         12.0893         0.71722 
        4.28831         12.0222        0.710283 
        4.30404         11.9174         0.70343 
        4.31974         11.7929        0.696682 
        4.33543          11.706        0.690025 
        4.35116         11.6047        0.683438 
        4.36688         11.4995        0.676938 
        4.38255         11.4095        0.670546 
        4.39825         11.2865        0.664222 
        4.41398         11.2243        0.657966 
         4.4297         11.0883        0.651796 
        4.44541         11.0026        0.645705 
        4.46111         10.9094        0.639696 
        4.47683         10.8258        0.633759 
        4.49251         10.7485        0.627908 
        4.50819         10.6497        0.622131 
         4.5239          10.559        0.616418 
        4.53962         10.4664        0.610768 
        4.55535         10.4001        0.605186 
        4.57106         10.3055        0.599681 
        4.58678         10.2308        0.594243 
         4.6025         10.1479        0.588869 
        4.61821         10.0621        0.583563 
        4.63391         9.97201        0.578328 
         4.6496         9.88603        0.573158 
        4.66532          9.8207        0.568043 
        4.68103         9.73786        0.562992 
        4.69673         9.65312        0.558006 
        4.71241         9.56284        0.553085 
        4.72811         9.50071        0.548214 
        4.74384         9.42572        0.543396 
        4.75955         9.33662        0.538642 
        4.77525         9.27367        0.533946 
        4.79096         9.20357          0.5293 
        4.80669         9.14022        0.524707 
         4.8224         9.05997        0.520173 
        4.83809         8.97818        0.515696 
        4.85379          8.9128        0.511269 
         4.8695         8.83373         0.50689 
        4.88521          8.7664        0.502563 
        4.90093         8.70689        0.498285 
        4.91663         8.62852        0.494061 
        4.93234         8.56641         0.48988 
        4.94807         8.50972        0.485744 
        4.96377         8.42116        0.481664 
        4.97943         8.36369        0.477638 
        4.99514         8.30174        0.473647 
        5.01086         8.22421        0.469698 
        5.02654         8.18553        0.465804 
        5.04227         8.09531        0.461942 
          5.058         8.04014        0.458122 
        5.07371         7.98274        0.454352 
        5.08942         7.92964        0.450623 
        5.10513         7.86309        0.446935 
        5.12084         7.80511        0.443286 
        5.13656          7.7428        0.439678 
        5.15225         7.68547        0.436116 
        5.16796         7.63188        0.432587 
        5.18369         7.58743        0.429093 
         5.1994         7.50279        0.425644 
        5.21509         7.43708        0.422236 
        5.23079         7.39437         0.41886 
        5.24649         7.33431        0.415524 
        5.26217         7.29007        0.412225 
        5.27788         7.23777        0.408958 
        5.29359          7.1907        0.405725 
        5.30933         7.12383        0.402521 
        5.32504         7.07607        0.399358 
        5.34073         7.02138        0.396231 
        5.35646         6.96012        0.393131 
        5.37218         6.91871        0.390063 
        5.38789         6.86642        0.387033 
        5.40357         6.83623        0.384038 
        5.41929         6.79136        0.381068 
        5.43502         6.72775        0.378128 
         5.4507         6.67234        0.375226 
        5.46639         6.61528        0.372354 
        5.48212         6.58472        0.369504 
        5.49786         6.55163        0.366681 
        5.51353         6.48526        0.363901 
        5.52921         6.45281        0.361146 
        5.54495          6.4015        0.358412 
        5.56066         6.34779        0.355709 
        5.57637         6.29902        0.353033 
        5.59207         6.25903        0.350387 
        5.60778         6.20578        0.347767 
        5.62346         6.16481        0.345177 
        5.63916         6.12935        0.342611 
        5.65487          6.0882        0.340069 
         5.6706         6.03705        0.337549 
        5.68633         5.99986        0.335054 
        5.70203         5.96026        0.332589 
        5.71773         5.91167        0.330149 
        5.73344         5.87467        0.327732 
        5.74916         5.83107        0.325336 
        5.76486         5.79928        0.322968 
        5.78054         5.76712        0.320626 
        5.79626         5.71805        0.318301 
          5.812         5.67625        0.315996 
         5.8277         5.65215        0.313721 
        5.84339         5.59551        0.311467 
        5.85911         5.55853        0.309231 
        5.87484         5.51949        0.307018 
        5.89053         5.48229         0.30483 
        5.90623         5.44891        0.302662 
        5.92195         5.41781        0.300511 
        5.93767         5.37325        0.298382 
        5.95336         5.34084        0.296277 
        5.96905          5.3046        0.294193 
        5.98476         5.27218        0.292125 
        6.00048         5.23643        0.290077 
        6.01617         5.19209        0.288051 
        6.03185         5.16225        0.286046 
        6.04756         5.13887        0.284056 
        6.06331         5.09839        0.282079 
        6.07903         5.05205        0.280126 
        6.09473         5.03201        0.278193 
        6.11044          4.9922        0.276276 
        6.12616         4.96787        0.274377 
        6.14186         4.92858        0.272498 
        6.15755         4.90421        0.270636 
        6.17326          4.8704         0.26879 
        6.18898         4.83945         0.26696 
        6.20467         4.80358         0.26515 
        6.22036         4.77645        0.263357 
         6.2361         4.74055        0.261575 
         6.2518         4.71243        0.259813 
        6.26748         4.68289        0.258071 
        6.28319         4.64659        0.256339 
        6.29893         4.62597        0.254622 
        6.31463         4.59576        0.252923 
        6.33033         4.56345         0.25124 
        6.34604          4.5346        0.249571 
        6.36177         4.50594        0.247916 
        6.37747         4.48081        0.246278 
