# k  (h/Mpc)    Pcb(k)  (Mpc/h)^3    Pcb_linear(k) (Mpc/h)^3   ShotnoiseSubtracted = true
      0.0200456         27314.3         27901.1 
      0.0350414         17815.5         18680.7 
      0.0492313         12829.3         13074.5 
      0.0637834         10903.2         10576.7 
      0.0800726         8295.81         8029.88 
       0.096163         5595.84         5657.25 
       0.111083         4519.94          4512.2 
       0.126058         4107.82         3954.11 
       0.142273         3501.24          3228.4 
       0.158546         3054.45          2506.2 
        0.17375         2443.39          2131.2 
       0.188953         2380.78         1915.59 
       0.204907         2210.48         1646.94 
       0.220756         1906.62         1374.12 
        0.23588         1714.28         1204.31 
         0.2514         1487.53         1091.15 
       0.267535          1476.5         967.327 
       0.283568         1333.52         842.589 
       0.299022         1264.08         752.889 
       0.314451         1198.28         687.335 
       0.330372          1094.6         622.455 
       0.346141         1052.89         559.195 
       0.361624         1011.01         507.722 
       0.377134         942.658         466.621 
       0.392932         894.191         428.464 
       0.408854         883.588         391.788 
       0.424564         809.345         360.008 
       0.440253         795.061         333.093 
       0.455999         767.313         308.804 
       0.471626         741.846         286.299 
        0.48727         707.625         265.908 
       0.502856         685.159         247.964 
       0.518488         678.855         231.686 
       0.534347          636.44         216.446 
       0.550082         621.616         202.566 
       0.565732         616.407         190.079 
       0.581496         580.938         178.597 
       0.597222         567.883         168.036 
       0.612804         557.922         158.361 
       0.628434         542.011         149.437 
       0.644267         527.998         141.119 
       0.660051          513.63         133.449 
       0.675724         505.783         126.386 
       0.691403         488.541         119.822 
       0.707174         471.515         113.683 
       0.722871         464.442         107.993 
        0.73838          456.61         102.749 
       0.754018         446.358         97.8105 
       0.769845           438.5         93.1393 
        0.78569         429.711         88.7661 
       0.801365         418.258         84.7141 
       0.817031         408.262         80.9158 
       0.832809         403.305         77.3246 
       0.848511         394.799         73.9658 
       0.864097         381.782         70.8278 
       0.879701         375.716         67.8676 
       0.895507         372.942         65.0403 
       0.911279         363.333         62.3787 
        0.92691         357.828         59.8868 
       0.942635          347.33         57.5162 
       0.958396         340.206         55.2679 
       0.974128          334.97         53.1428 
       0.989692         332.434         51.1495 
        1.00528          322.98         49.2546 
        1.02113         319.332         47.4253 
        1.03692         312.491         45.6949 
        1.05264         308.456         44.0581 
        1.06832         300.086         42.5034 
        1.08405         295.281          41.019 
        1.09979         291.062          39.604 
        1.11537         285.914         38.2692 
        1.13105         280.894         36.9875 
        1.14679          271.71         35.7591 
        1.16256         268.559         34.5836 
        1.17828         267.427         33.4644 
        1.19395         261.017          32.398 
         1.2097         255.427         31.3724 
        1.22537         250.896         30.3957 
          1.241         247.706         29.4631 
        1.25666         245.222         28.5671 
        1.27241         239.882         27.7038 
        1.28819         235.997         26.8744 
        1.30392         231.194          26.081 
        1.31957         229.711          25.323 
        1.33529         226.259          24.592 
        1.35108         221.104         23.8867 
        1.36674         217.731         23.2139 
         1.3824         215.614         22.5674 
        1.39811         211.653         21.9431 
        1.41389         209.214         21.3399 
        1.42964         206.631         20.7601 
        1.44531         203.916         20.2046 
        1.46101         199.738         19.6679 
        1.47667         196.897         19.1522 
        1.49229         195.231         18.6562 
        1.50793         190.203          18.177 
        1.52367         189.414         17.7115 
        1.53953         185.851         17.2589 
        1.55526         183.177         16.8257 
        1.57092         180.653         16.4089 
        1.58662         178.316         16.0052 
        1.60235         176.007         15.6141 
        1.61809          173.73         15.2358 
        1.63369         171.514         14.8732 
        1.64941         167.594         14.5198 
        1.66519         166.771         14.1764 
        1.68085          163.74         13.8465 
        1.69652         162.128         13.5269 
        1.71228         158.499         13.2154 
        1.72806         155.545         12.9135 
        1.74368         154.227         12.6239 
        1.75933         152.459         12.3425 
        1.77505         150.429         12.0683 
        1.79081         148.738         11.8018 
         1.8065         145.636         11.5445 
        1.82218         144.554          11.295 
        1.83797         142.697          11.051 
        1.85367         140.924         10.8156 
        1.86928         138.177         10.5884 
        1.88497         137.405         10.3663 
        1.90073         135.005         10.1498 
        1.91647         134.052          9.9396 
        1.93218         131.887         9.73573 
        1.94787         129.054         9.53781 
        1.96363         127.556         9.34456 
        1.97935         126.349         9.15701 
        1.99499         124.638         8.97561 
        2.01064         122.839         8.79881 
         2.0264         121.826         8.62562 
        2.04216         119.896         8.45712 
        2.05781         118.566         8.29414 
        2.07353         117.777         8.13483 
        2.08928         115.326         7.97932 
        2.10499         114.078         7.82825 
        2.12065         112.571          7.6815 
        2.13633         110.408         7.53834 
        2.15211         109.378         7.39787 
        2.16785         108.039         7.26134 
        2.18349         107.064         7.12907 
        2.19916         105.422         6.99979 
        2.21489         104.326         6.87325 
        2.23063         102.699         6.74971 
         2.2463          101.89         6.62974 
        2.26194         100.102         6.51295 
        2.27765         99.0014         6.39835 
        2.29341         97.6393         6.28618 
        2.30914         96.5779          6.1769 
        2.32486         95.3539         6.07025 
        2.34061         94.1275         5.96591 
        2.35635         93.0577          5.8641 
        2.37203         92.0623         5.76498 
        2.38768         90.7779         5.66834 
        2.40339         89.8139         5.57354 
        2.41914         88.5483         5.48067 
        2.43483         87.5055         5.39021 
         2.4505         86.3615         5.30193 
        2.46622         85.7654          5.2153 
        2.48195         84.0701         5.13058 
        2.49759         83.4559         5.04817 
        2.51328          82.658         4.96734 
        2.52906         81.6328         4.88775 
        2.54479         80.6033         4.81017 
        2.56049         79.4232         4.73442 
        2.57618         78.6455         4.66034 
        2.59189         77.7491         4.58772 
        2.60758         76.8227         4.51675 
        2.62325         75.5998         4.44734 
        2.63898         74.9094         4.37914 
        2.65468         73.7669          4.3125 
        2.67044         73.3312         4.24694 
        2.68618         72.4961         4.18288 
        2.70184         71.7359         4.12038 
        2.71755         70.7999         4.05899 
        2.73329         70.1257         3.99874 
        2.74897         69.4788          3.9399 
        2.76462         68.6128         3.88236 
        2.78034          67.578         3.82572 
        2.79607         66.5805         3.77014 
        2.81179         65.9976         3.71571 
        2.82749         65.4903         3.66241 
        2.84321         64.6764         3.61008 
        2.85893         63.8973         3.55877 
        2.87462         63.3319         3.50854 
        2.89033         62.5865         3.45923 
        2.90605         61.7005         3.41081 
        2.92176         61.0017         3.36333 
        2.93747         60.3848         3.31676 
        2.95318         59.7407         3.27106 
        2.96891          59.279         3.22619 
        2.98456         58.6368         3.18235 
        3.00023         57.8726         3.13926 
        3.01596         57.0227         3.09681 
        3.03164         56.6807         3.05527 
        3.04738         55.7962         3.01435 
         3.0631         55.3597          2.9742 
        3.07883         54.8976         2.93476 
        3.09456         54.0544         2.89603 
        3.11026         53.5096         2.85806 
        3.12596         52.9445         2.82077 
        3.14163         52.5509         2.78421 
        3.15734         51.7829         2.74822 
        3.17308         51.2654         2.71276 
        3.18879          50.768         2.67802 
        3.20447         50.3921         2.64394 
         3.2202         49.7493         2.61033 
         3.2359         49.1698         2.57736 
        3.25157         48.7057         2.54503 
        3.26729         48.3108         2.51316 
        3.28304         47.7721         2.48176 
        3.29877         47.1075         2.45093 
        3.31446         46.7478         2.42068 
        3.33014          46.248         2.39097 
        3.34585         45.6248         2.36171 
        3.36158         45.3244         2.33288 
        3.37727          44.906         2.30462 
        3.39294         44.3194         2.27686 
        3.40867         43.9201         2.24944 
        3.42439         43.5337         2.22248 
        3.44008         43.0269         2.19601 
        3.45578         42.6236         2.16995 
        3.47153          42.234         2.14425 
        3.48724         41.8763         2.11901 
        3.50292         41.3501         2.09423 
        3.51859         40.9179         2.06985 
        3.53431         40.6018         2.04578 
        3.55007         40.1115         2.02203 
        3.56577         39.7659         1.99874 
        3.58146         39.3079         1.97583 
        3.59719         38.9671         1.95322 
        3.61292           38.56         1.93097 
        3.62859         38.2041         1.90914 
        3.64429         37.9564          1.8876 
        3.66003         37.4417         1.86633 
        3.67578         37.0846         1.84539 
        3.69146         36.6929         1.82485 
        3.70712         36.3466         1.80465 
        3.72284         36.0108         1.78468 
        3.73853          35.603         1.76504 
        3.75422         35.3234         1.74569 
        3.76993         34.9808         1.72661 
        3.78564         34.7266         1.70782 
        3.80137         34.2793         1.68927 
        3.81707         34.0036         1.67104 
        3.83279         33.6584         1.65305 
        3.84853         33.3346          1.6353 
        3.86424         32.9986         1.61784 
        3.87992         32.6686         1.60066 
        3.89561          32.444         1.58372 
        3.91134         32.2267           1.567 
        3.92704         31.8133         1.55053 
        3.94273         31.5523         1.53431 
        3.95845         31.2737         1.51829 
        3.97418         31.0268         1.50249 
        3.98988          30.718         1.48694 
        4.00554         30.4265         1.47164 
        4.02125         30.1607         1.45652 
        4.03698         29.9743         1.44158 
        4.05268         29.6766         1.42688 
        4.06839         29.3567         1.41238 
         4.0841          29.126         1.39808 
        4.09983         28.9062         1.38395 
        4.11555         28.5973         1.37002 
        4.13124          28.368         1.35632 
        4.14693         28.1452          1.3428 
        4.16266         27.8267         1.32942 
        4.17839          27.581         1.31623 
        4.19408         27.3605         1.30325 
        4.20977         27.0926         1.29044 
        4.22551         26.8446         1.27777 
        4.24123         26.5604         1.26527 
        4.25691         26.3608         1.25298 
        4.27259         26.1382         1.24085 
        4.28831         25.9508         1.22884 
        4.30404         25.7669         1.21699 
        4.31974         25.4772         1.20531 
        4.33543         25.2415          1.1938 
        4.35116         24.9607          1.1824 
        4.36688         24.8673         1.17115 
        4.38255         24.6237          1.1601 
        4.39825         24.4732         1.14916 
        4.41398         24.2264         1.13833 
         4.4297         23.9892         1.12766 
        4.44541         23.8535         1.11712 
        4.46111         23.5698         1.10672 
        4.47683         23.3705         1.09645 
        4.49251         23.1756         1.08633 
        4.50819         22.9376         1.07633 
         4.5239          22.836         1.06645 
        4.53962         22.6399         1.05668 
        4.55535         22.4077         1.04702 
        4.57106         22.2359         1.03749 
        4.58678         22.0385         1.02809 
         4.6025         21.8459         1.01879 
        4.61821         21.6604         1.00961 
        4.63391         21.5017         1.00055 
         4.6496          21.357        0.991607 
        4.66532         21.1999        0.982758 
        4.68103         20.9949        0.974019 
        4.69673         20.8314        0.965393 
        4.71241           20.59        0.956879 
        4.72811         20.4829        0.948453 
        4.74384         20.3252        0.940116 
        4.75955         20.1089        0.931891 
        4.77525         19.9739        0.923768 
        4.79096         19.8008         0.91573 
        4.80669         19.6357        0.907784 
         4.8224          19.502        0.899939 
        4.83809         19.3715        0.892194 
        4.85379         19.1903        0.884535 
         4.8695         19.0784        0.876958 
        4.88521         18.8753        0.869472 
        4.90093         18.7046        0.862072 
        4.91663         18.5822        0.854763 
        4.93234         18.4414         0.84753 
        4.94807          18.309        0.840375 
        4.96377         18.1506        0.833315 
        4.97943         17.9869         0.82635 
        4.99514         17.8433        0.819446 
        5.01086         17.7296        0.812614 
        5.02654         17.5905        0.805877 
        5.04227         17.4736        0.799196 
          5.058         17.2835        0.792586 
        5.07371         17.1667        0.786063 
        5.08942         17.0887        0.779612 
        5.10513         16.8926        0.773232 
        5.12084         16.7875        0.766919 
        5.13656         16.6349        0.760677 
        5.15225         16.4998        0.754514 
        5.16796         16.3926        0.748408 
        5.18369         16.2591        0.742364 
         5.1994          16.149        0.736397 
        5.21509         16.0235          0.7305 
        5.23079         15.9427         0.72466 
        5.24649         15.7726        0.718888 
        5.26217         15.6957        0.713181 
        5.27788         15.5401        0.707528 
        5.29359         15.4343        0.701935 
        5.30933          15.284        0.696393 
        5.32504         15.1938        0.690919 
        5.34073         15.0395         0.68551 
        5.35646         14.9308        0.680147 
        5.37218         14.8346         0.67484 
        5.38789         14.6649        0.669597 
        5.40357          14.604        0.664415 
        5.41929         14.4976        0.659276 
        5.43502         14.3697         0.65419 
         5.4507          14.293         0.64917 
        5.46639          14.214          0.6442 
        5.48212         14.0891        0.639271 
        5.49786         14.0101        0.634386 
        5.51353         13.8725        0.629576 
        5.52921         13.8165        0.624811 
        5.54495         13.6753         0.62008 
        5.56066         13.5992        0.615403 
        5.57637         13.4565        0.610775 
        5.59207         13.3614        0.606197 
        5.60778         13.2799        0.601664 
        5.62346         13.1733        0.597183 
        5.63916         13.0989        0.592743 
        5.65487         12.9983        0.588345 
         5.6706         12.8759        0.583987 
        5.68633         12.7993         0.57967 
        5.70203         12.7138        0.575405 
        5.71773         12.6139        0.571184 
        5.73344         12.5261        0.567002 
        5.74916          12.444        0.562857 
        5.76486         12.3588        0.558759 
        5.78054         12.2757        0.554708 
        5.79626         12.1712        0.550685 
          5.812         12.1025        0.546698 
         5.8277              12        0.542761 
        5.84339         11.9111        0.538862 
        5.85911         11.8205        0.534994 
        5.87484         11.7363        0.531164 
        5.89053         11.6447        0.527379 
        5.90623         11.5674        0.523628 
        5.92195         11.5055        0.519907 
        5.93767         11.4187        0.516224 
        5.95336         11.3507        0.512582 
        5.96905         11.2464        0.508976 
        5.98476          11.174        0.505399 
        6.00048         11.0787        0.501856 
        6.01617         11.0332         0.49835 
        6.03185          10.954        0.494882 
        6.04756         10.8632        0.491438 
        6.06331         10.7782        0.488019 
        6.07903         10.7178         0.48464 
        6.09473         10.6395        0.481295 
        6.11044         10.5674        0.477978 
        6.12616         10.4816        0.474693 
        6.14186         10.4291        0.471442 
        6.15755         10.3458        0.468221 
        6.17326         10.2862        0.465027 
        6.18898         10.2072        0.461861 
        6.20467         10.1199         0.45873 
        6.22036         10.0762        0.455628 
         6.2361         10.0082        0.452546 
         6.2518         9.94089        0.449497 
        6.26748         9.87618        0.446482 
        6.28319         9.79455        0.443486 
        6.29893         9.73064        0.440515 
        6.31463          9.6713        0.437576 
        6.33033         9.60949        0.434665 
        6.34604         9.55636        0.431777 
        6.36177         9.48271        0.428913 
        6.37747         9.41218         0.42608 
