# k  (h/Mpc)    Pcb(k)  (Mpc/h)^3    Pcb_linear(k) (Mpc/h)^3   ShotnoiseSubtracted = true
      0.0200456         3416.95         3460.71 
      0.0350414         2294.47         2317.06 
      0.0492313         1625.51         1621.69 
      0.0637834         1331.85         1311.88 
      0.0800726         1013.31         995.986 
       0.096163         698.558         701.696 
       0.111083         553.836          559.67 
       0.126058         496.309         490.448 
       0.142273         412.182         400.434 
       0.158546         325.131         310.856 
        0.17375         267.484         264.344 
       0.188953         247.618           237.6 
       0.204907         223.219         204.279 
       0.220756         183.791         170.439 
        0.23588         160.562         149.377 
         0.2514         142.499         135.341 
       0.267535         130.108         119.982 
       0.283568         115.373          104.51 
       0.299022         104.939         93.3845 
       0.314451         93.8609         85.2535 
       0.330372         86.5036         77.2061 
       0.346141         77.5351         69.3597 
       0.361624         72.0492         62.9753 
       0.377134         67.4574         57.8773 
       0.392932          59.698         53.1445 
       0.408854         57.0913         48.5953 
       0.424564         53.6757         44.6535 
       0.440253         49.4224         41.3151 
       0.455999          46.197         38.3024 
       0.471626         43.0197          35.511 
        0.48727         40.8702         32.9819 
       0.502856         38.3358         30.7562 
       0.518488         36.4813         28.7372 
       0.534347         34.9278         26.8469 
       0.550082         31.7521         25.1253 
       0.565732           29.63         23.5764 
       0.581496         28.8226         22.1523 
       0.597222          27.745         20.8424 
       0.612804          25.833         19.6423 
       0.628434         24.8663         18.5354 
       0.644267          24.094         17.5036 
       0.660051         22.8027         16.5523 
       0.675724         21.5633         15.6762 
       0.691403         20.8248         14.8621 
       0.707174         20.0137         14.1006 
       0.722871         19.1977         13.3949 
        0.73838         18.4058         12.7445 
       0.754018         17.6547         12.1319 
       0.769845          17.027         11.5525 
        0.78569         16.4413         11.0101 
       0.801365         15.7594         10.5075 
       0.817031         15.2897         10.0364 
       0.832809         14.9412         9.59095 
       0.848511          13.997         9.17434 
       0.864097         13.7024         8.78512 
       0.879701         13.2846         8.41795 
       0.895507         12.7845         8.06727 
       0.911279         12.4311         7.73713 
        0.92691         12.0759         7.42805 
       0.942635         11.5457         7.13401 
       0.958396         11.2698         6.85514 
       0.974128         10.9094         6.59156 
       0.989692         10.7585         6.34432 
        1.00528         10.4403         6.10929 
        1.02113         9.97967         5.88239 
        1.03692         9.71793         5.66777 
        1.05264         9.53696         5.46475 
        1.06832         9.24382         5.27191 
        1.08405         8.94513         5.08779 
        1.09979         8.73041         4.91228 
        1.11537         8.57249         4.74672 
        1.13105         8.34229         4.58774 
        1.14679         8.19293         4.43537 
        1.16256         7.87047         4.28957 
        1.17828         7.82001         4.15075 
        1.19395         7.49981         4.01849 
         1.2097         7.39003         3.89127 
        1.22537         7.17726         3.77012 
          1.241         7.04605         3.65446 
        1.25666         6.88825         3.54331 
        1.27241         6.69963         3.43623 
        1.28819         6.55304         3.33336 
        1.30392         6.47514         3.23496 
        1.31957         6.32641         3.14093 
        1.33529         6.19015         3.05027 
        1.35108         6.03248         2.96279 
        1.36674         5.98343         2.87934 
         1.3824         5.77824         2.79915 
        1.39811         5.68656         2.72172 
        1.41389         5.58121         2.64689 
        1.42964         5.49197         2.57498 
        1.44531         5.38817         2.50607 
        1.46101         5.25421         2.43951 
        1.47667         5.17742         2.37554 
        1.49229         5.10219         2.31402 
        1.50793         4.97965         2.25459 
        1.52367         4.89942         2.19684 
        1.53953         4.80075         2.14071 
        1.55526         4.73301         2.08697 
        1.57092         4.65026         2.03528 
        1.58662         4.56278          1.9852 
        1.60235         4.49069         1.93669 
        1.61809         4.41087         1.88977 
        1.63369         4.33385          1.8448 
        1.64941         4.25563         1.80096 
        1.66519         4.21004         1.75837 
        1.68085         4.12279         1.71745 
        1.69652         4.04632          1.6778 
        1.71228         3.98951         1.63917 
        1.72806          3.9324         1.60172 
        1.74368         3.85422          1.5658 
        1.75933          3.8159          1.5309 
        1.77505          3.7546         1.49688 
        1.79081         3.67739         1.46384 
         1.8065         3.64843         1.43192 
        1.82218         3.58671         1.40097 
        1.83797         3.55171         1.37071 
        1.85367          3.4713         1.34151 
        1.86928          3.4507         1.31333 
        1.88497          3.3784         1.28579 
        1.90073         3.32595         1.25893 
        1.91647         3.28722         1.23286 
        1.93218         3.24926         1.20757 
        1.94787         3.20678         1.18302 
        1.96363         3.15902         1.15905 
        1.97935          3.1054         1.13579 
        1.99499         3.06227         1.11329 
        2.01064         3.02936         1.09136 
         2.0264         2.98218         1.06988 
        2.04216         2.95271         1.04898 
        2.05781         2.90698         1.02876 
        2.07353         2.88395           1.009 
        2.08928         2.84416        0.989714 
        2.10499         2.80297        0.970976 
        2.12065         2.77389        0.952773 
        2.13633         2.73414        0.935017 
        2.15211         2.70155        0.917594 
        2.16785         2.67067         0.90066 
        2.18349         2.63459        0.884254 
        2.19916         2.59133        0.868218 
        2.21489         2.57976        0.852522 
        2.23063         2.53193          0.8372 
         2.2463         2.51014        0.822319 
        2.26194         2.47268        0.807833 
        2.27765         2.46103        0.793619 
        2.29341         2.42371        0.779705 
        2.30914         2.39221        0.766151 
        2.32486         2.37063        0.752923 
        2.34061          2.3451        0.739981 
        2.35635         2.31656        0.727353 
        2.37203         2.30183        0.715059 
        2.38768         2.27083        0.703072 
        2.40339          2.2365        0.691314 
        2.41914         2.21151        0.679794 
        2.43483         2.20302        0.668574 
         2.4505         2.17155        0.657624 
        2.46622         2.15446        0.646879 
        2.48195         2.12016        0.636371 
        2.49759         2.10418        0.626149 
        2.51328         2.08072        0.616123 
        2.52906         2.07091        0.606251 
        2.54479         2.03613        0.596629 
        2.56049         2.02048        0.587233 
        2.57618         1.99823        0.578045 
        2.59189         1.98587        0.569038 
        2.60758         1.96562        0.560234 
        2.62325         1.93972        0.551626 
        2.63898         1.91614        0.543166 
        2.65468         1.90358          0.5349 
        2.67044          1.8838        0.526768 
        2.68618         1.86606        0.518823 
        2.70184         1.84861        0.511071 
        2.71755         1.83241        0.503456 
        2.73329         1.81254        0.495984 
        2.74897         1.80371        0.488685 
        2.76462         1.78348        0.481548 
        2.78034         1.76033        0.474523 
        2.79607         1.74717        0.467629 
        2.81179         1.73802        0.460878 
        2.82749         1.70706        0.454266 
        2.84321         1.70744        0.447775 
        2.85893          1.6881        0.441412 
        2.87462         1.66986        0.435182 
        2.89033         1.65951        0.429065 
        2.90605         1.64236        0.423059 
        2.92176         1.62468         0.41717 
        2.93747         1.60726        0.411394 
        2.95318         1.59583        0.405726 
        2.96891         1.58914         0.40016 
        2.98456         1.57268        0.394723 
        3.00023         1.55739        0.389377 
        3.01596         1.54744        0.384113 
        3.03164         1.53673         0.37896 
        3.04738         1.51792        0.373885 
         3.0631          1.5072        0.368904 
        3.07883         1.49631        0.364012 
        3.09456         1.48268        0.359209 
        3.11026         1.47411        0.354499 
        3.12596         1.45527        0.349873 
        3.14163         1.44756         0.34534 
        3.15734         1.43738        0.340875 
        3.17308         1.42406        0.336477 
        3.18879         1.41779        0.332168 
        3.20447          1.4084         0.32794 
         3.2202         1.38899        0.323772 
         3.2359         1.38405        0.319683 
        3.25157         1.37425        0.315673 
        3.26729         1.35766        0.311719 
        3.28304         1.35424        0.307824 
        3.29877         1.33849        0.304001 
        3.31446         1.32977        0.300249 
        3.33014         1.32377        0.296564 
        3.34585         1.31483        0.292934 
        3.36158          1.3036        0.289359 
        3.37727         1.28703        0.285854 
        3.39294         1.28477        0.282409 
        3.40867         1.27005        0.279009 
        3.42439         1.26579        0.275665 
        3.44008         1.25592        0.272382 
        3.45578         1.24604         0.26915 
        3.47153         1.23797        0.265962 
        3.48724         1.22923        0.262831 
        3.50292         1.22223        0.259757 
        3.51859         1.21282        0.256734 
        3.53431         1.20318        0.253748 
        3.55007         1.19484        0.250802 
        3.56577         1.18756        0.247914 
        3.58146         1.18085        0.245072 
        3.59719         1.17398        0.242267 
        3.61292         1.16418        0.239507 
        3.62859         1.15641          0.2368 
        3.64429         1.14315        0.234129 
        3.66003         1.14136         0.23149 
        3.67578         1.13525        0.228893 
        3.69146         1.12614        0.226345 
        3.70712         1.11569         0.22384 
        3.72284         1.10947        0.221363 
        3.73853         1.10284        0.218927 
        3.75422         1.09728        0.216527 
        3.76993         1.08619         0.21416 
        3.78564         1.08339        0.211829 
        3.80137          1.0778        0.209528 
        3.81707         1.06622        0.207267 
        3.83279         1.05955        0.205036 
        3.84853         1.05504        0.202834 
        3.86424          1.0473        0.200669 
        3.87992         1.04234        0.198538 
        3.89561         1.03487        0.196437 
        3.91134         1.03106        0.194362 
        3.92704         1.02364        0.192319 
        3.94273         1.01623        0.190308 
        3.95845         1.00802        0.188321 
        3.97418         1.00267        0.186361 
        3.98988        0.995685        0.184432 
        4.00554        0.989797        0.182535 
        4.02125        0.984027        0.180659 
        4.03698        0.978111        0.178806 
        4.05268        0.969721        0.176983 
        4.06839        0.964662        0.175184 
         4.0841         0.95571         0.17341 
        4.09983        0.948796        0.171658 
        4.11555        0.943452         0.16993 
        4.13124          0.9365        0.168231 
        4.14693        0.929817        0.166553 
        4.16266        0.922892        0.164894 
        4.17839        0.916623        0.163259 
        4.19408         0.91384        0.161649 
        4.20977        0.903134         0.16006 
        4.22551        0.900156        0.158488 
        4.24123        0.894506        0.156938 
        4.25691        0.885636        0.155413 
        4.27259        0.882729        0.153908 
        4.28831        0.877045         0.15242 
        4.30404        0.870843        0.150949 
        4.31974        0.868221        0.149501 
        4.33543        0.861131        0.148072 
        4.35116         0.85735        0.146659 
        4.36688        0.851014        0.145264 
        4.38255        0.844147        0.143892 
        4.39825         0.83955        0.142535 
        4.41398        0.835604        0.141193 
         4.4297        0.831629        0.139869 
        4.44541        0.828815        0.138562 
        4.46111        0.824242        0.137272 
        4.47683        0.820073        0.135998 
        4.49251        0.816598        0.134743 
        4.50819        0.812052        0.133503 
         4.5239        0.808279        0.132277 
        4.53962        0.804409        0.131065 
        4.55535        0.799907        0.129867 
        4.57106        0.794078        0.128686 
        4.58678        0.792318        0.127518 
         4.6025        0.790878        0.126365 
        4.61821        0.785018        0.125227 
        4.63391        0.780762        0.124103 
         4.6496        0.777129        0.122994 
        4.66532        0.776554        0.121896 
        4.68103        0.771923        0.120812 
        4.69673        0.769508        0.119742 
        4.71241        0.766544        0.118686 
        4.72811        0.761891        0.117641 
        4.74384        0.760498        0.116607 
        4.75955        0.756148        0.115587 
        4.77525        0.753824        0.114579 
        4.79096        0.751074        0.113583 
        4.80669        0.748215        0.112597 
         4.8224        0.746527        0.111624 
        4.83809        0.742862        0.110663 
        4.85379        0.740195        0.109713 
         4.8695          0.7379        0.108773 
        4.88521        0.735308        0.107845 
        4.90093        0.734622        0.106927 
        4.91663        0.731288         0.10602 
        4.93234        0.728188        0.105123 
        4.94807        0.726347        0.104236 
        4.96377        0.724223         0.10336 
        4.97943        0.722673        0.102496 
        4.99514        0.718403         0.10164 
        5.01086        0.719029        0.100793 
        5.02654        0.716424       0.0999569 
        5.04227        0.713694       0.0991282 
          5.058        0.713075       0.0983083 
        5.07371         0.71134       0.0974993 
        5.08942         0.70797       0.0966991 
        5.10513        0.707129       0.0959077 
        5.12084        0.704177       0.0951247 
        5.13656         0.70458       0.0943504 
        5.15225        0.702264        0.093586 
        5.16796        0.701496       0.0928287 
        5.18369        0.698768       0.0920791 
         5.1994        0.698105       0.0913389 
        5.21509        0.697046       0.0906075 
        5.23079        0.696073       0.0898831 
        5.24649        0.694154       0.0891672 
        5.26217        0.692025       0.0884594 
        5.27788        0.692265       0.0877582 
        5.29359        0.689116       0.0870644 
        5.30933        0.689563        0.086377 
        5.32504        0.687771       0.0856981 
        5.34073        0.687831       0.0850272 
        5.35646        0.686724        0.084362 
        5.37218        0.685344       0.0837037 
        5.38789        0.685138       0.0830534 
        5.40357        0.683269       0.0824107 
        5.41929        0.681232       0.0817733 
        5.43502        0.680694       0.0811424 
         5.4507        0.678991       0.0805197 
        5.46639        0.678607       0.0799033 
        5.48212        0.679372       0.0792919 
        5.49786        0.677152        0.078686 
        5.51353        0.677775       0.0780894 
        5.52921        0.673626       0.0774984 
        5.54495        0.675515       0.0769116 
        5.56066        0.677337       0.0763315 
        5.57637        0.674587       0.0757574 
        5.59207        0.671437       0.0751896 
        5.60778        0.672955       0.0746273 
        5.62346        0.672551       0.0740715 
        5.63916        0.672848       0.0735208 
        5.65487        0.672817       0.0729753 
         5.6706        0.671883       0.0724347 
        5.68633        0.670921       0.0718993 
        5.70203        0.669989       0.0713703 
        5.71773        0.671074       0.0708467 
        5.73344        0.670675        0.070328 
        5.74916        0.670478       0.0698139 
        5.76486        0.668385       0.0693056 
        5.78054        0.668876       0.0688031 
        5.79626        0.668299       0.0683042 
          5.812        0.666778       0.0678096 
         5.8277        0.666416       0.0673213 
        5.84339        0.667068       0.0668377 
        5.85911        0.667017       0.0663579 
        5.87484        0.666641       0.0658829 
        5.89053        0.666389       0.0654134 
        5.90623        0.666019       0.0649482 
        5.92195        0.666103       0.0644866 
        5.93767        0.665721       0.0640298 
        5.95336         0.66491        0.063578 
        5.96905        0.665151       0.0631308 
        5.98476         0.66385       0.0626872 
        6.00048        0.663628       0.0622476 
        6.01617        0.663973       0.0618128 
        6.03185        0.663142       0.0613826 
        6.04756        0.664144       0.0609555 
        6.06331        0.662283       0.0605314 
        6.07903        0.663647       0.0601122 
        6.09473        0.662819       0.0596974 
        6.11044        0.663569        0.059286 
        6.12616        0.662797       0.0588785 
        6.14186        0.662009       0.0584752 
        6.15755        0.661536       0.0580757 
        6.17326        0.661081       0.0576796 
        6.18898        0.661667       0.0572869 
        6.20467        0.661689       0.0568985 
        6.22036        0.660927       0.0565137 
         6.2361        0.660829       0.0561314 
         6.2518        0.660271       0.0557532 
        6.26748        0.659163       0.0553793 
        6.28319        0.660126       0.0550078 
        6.29893        0.660017       0.0546393 
        6.31463        0.660141       0.0542747 
        6.33033        0.660005       0.0539136 
        6.34604        0.658316       0.0535555 
        6.36177        0.659707       0.0532002 
        6.37747        0.659411       0.0528488 
