# k  (h/Mpc)    Pcb(k)  (Mpc/h)^3    Pcb_linear(k) (Mpc/h)^3   ShotnoiseSubtracted = true
      0.0200456         18489.6         18748.1 
      0.0350414           13008         12552.5 
      0.0492313         8685.01         8785.39 
      0.0637834         6835.98            7107 
      0.0800726         5167.23         5395.67 
       0.096163         4027.34         3801.38 
       0.111083         3259.65         3031.97 
       0.126058         2678.82         2656.96 
       0.142273         2273.79         2169.32 
       0.158546         1841.74         1684.04 
        0.17375         1626.69         1432.06 
       0.188953         1519.69         1287.18 
       0.204907          1282.6         1106.66 
       0.220756          1146.6         923.339 
        0.23588         1020.21         809.238 
         0.2514         910.642         733.196 
       0.267535         877.379         649.994 
       0.283568         767.972         566.177 
       0.299022          730.06         505.903 
       0.314451         750.245         461.854 
       0.330372         643.933         418.258 
       0.346141         591.577         375.751 
       0.361624         564.769         341.163 
       0.377134         534.946         313.545 
       0.392932         510.719         287.906 
       0.408854          487.33         263.261 
       0.424564         472.496         241.907 
       0.440253          429.92         223.821 
       0.455999         410.095           207.5 
       0.471626         415.462         192.378 
        0.48727         390.199         178.677 
       0.502856         364.998         166.619 
       0.518488          360.18         155.681 
       0.534347         339.211         145.441 
       0.550082         323.948         136.114 
       0.565732         321.099         127.723 
       0.581496         309.561         120.008 
       0.597222         300.509         112.912 
       0.612804         291.749         106.411 
       0.628434         280.617         100.414 
       0.644267         269.164         94.8245 
       0.660051         265.584          89.671 
       0.675724         259.335         84.9248 
       0.691403         253.759         80.5144 
       0.707174         243.575         76.3891 
       0.722871         239.425         72.5659 
        0.73838         235.794         69.0423 
       0.754018         226.482         65.7236 
       0.769845         225.945         62.5849 
        0.78569         218.874         59.6463 
       0.801365         212.039         56.9235 
       0.817031         210.353         54.3713 
       0.832809         205.236         51.9582 
       0.848511         200.197         49.7012 
       0.864097         194.357         47.5927 
       0.879701         193.793         45.6035 
       0.895507         188.728         43.7038 
       0.911279         183.952         41.9153 
        0.92691          180.85         40.2408 
       0.942635         179.199         38.6479 
       0.958396           174.5         37.1372 
       0.974128         172.162         35.7092 
       0.989692         165.686         34.3698 
        1.00528         165.535         33.0966 
        1.02113         162.707         31.8674 
        1.03692          158.78         30.7047 
        1.05264         155.628         29.6048 
        1.06832         155.185         28.5601 
        1.08405         150.889         27.5627 
        1.09979         149.349         26.6119 
        1.11537         147.127          25.715 
        1.13105          144.08         24.8537 
        1.14679         142.682         24.0283 
        1.16256         139.625         23.2384 
        1.17828         138.247         22.4864 
        1.19395         134.736         21.7698 
         1.2097         133.966         21.0806 
        1.22537         132.714         20.4243 
          1.241         128.664         19.7977 
        1.25666         127.908         19.1956 
        1.27241         124.934         18.6155 
        1.28819         123.639         18.0582 
        1.30392         122.147         17.5251 
        1.31957          119.11         17.0157 
        1.33529         117.259         16.5246 
        1.35108         116.223         16.0507 
        1.36674         113.846         15.5986 
         1.3824         113.011         15.1641 
        1.39811         111.229         14.7447 
        1.41389          108.95         14.3393 
        1.42964         107.387         13.9498 
        1.44531         106.526         13.5764 
        1.46101          104.16         13.2158 
        1.47667         103.854         12.8693 
        1.49229         102.413          12.536 
        1.50793         100.314          12.214 
        1.52367         98.8882         11.9012 
        1.53953         97.2594         11.5971 
        1.55526         96.5858          11.306 
        1.57092         95.5825          11.026 
        1.58662         93.8283         10.7547 
        1.60235         92.5211         10.4919 
        1.61809         91.4938         10.2377 
        1.63369         89.8318         9.99404 
        1.64941         89.6045         9.75653 
        1.66519         88.0939         9.52582 
        1.68085         86.2849         9.30413 
        1.69652         85.5876         9.08936 
        1.71228         84.2976         8.88009 
        1.72806         83.8503         8.67718 
        1.74368          82.281         8.48258 
        1.75933         81.4976          8.2935 
        1.77505         80.3873         8.10925 
        1.79081         79.1146         7.93022 
         1.8065         77.7249          7.7573 
        1.82218         77.0334         7.58963 
        1.83797         76.6629         7.42573 
        1.85367          75.146         7.26753 
        1.86928          74.798         7.11483 
        1.88497         73.3444         6.96565 
        1.90073          72.681         6.82016 
        1.91647         71.5145         6.67891 
        1.93218         70.7748         6.54191 
        1.94787         69.4596         6.40892 
        1.96363         68.9077         6.27907 
        1.97935         68.3041         6.15304 
        1.99499         67.6475         6.03115 
        2.01064         66.0961         5.91235 
         2.0264         65.5726         5.79597 
        2.04216         64.4941         5.68275 
        2.05781         63.8598         5.57324 
        2.07353         63.2142         5.46619 
        2.08928         62.3845          5.3617 
        2.10499         61.5147         5.26018 
        2.12065          61.134         5.16157 
        2.13633         60.2061         5.06538 
        2.15211         59.3305         4.97099 
        2.16785          58.413         4.87925 
        2.18349         57.8761         4.79037 
        2.19916         57.2075          4.7035 
        2.21489         56.4496         4.61847 
        2.23063         55.5761         4.53546 
         2.2463         55.1942         4.45485 
        2.26194         54.6961         4.37637 
        2.27765         53.8578         4.29936 
        2.29341         53.2602         4.22399 
        2.30914          52.637         4.15056 
        2.32486         52.0093          4.0789 
        2.34061         51.1966         4.00879 
        2.35635         50.7716         3.94037 
        2.37203         50.0178         3.87377 
        2.38768         49.5871         3.80884 
        2.40339         49.0753         3.74514 
        2.41914         48.1302         3.68273 
        2.43483          48.022         3.62195 
         2.4505         47.3939         3.56262 
        2.46622         46.8865         3.50441 
        2.48195         46.2873         3.44749 
        2.49759          45.854         3.39211 
        2.51328         45.2819          3.3378 
        2.52906         44.8013         3.28431 
        2.54479         44.2821         3.23219 
        2.56049         43.4917         3.18129 
        2.57618         43.1919         3.13151 
        2.59189         42.6842         3.08272 
        2.60758         42.1472         3.03502 
        2.62325         41.8007         2.98839 
        2.63898         41.4556         2.94256 
        2.65468         40.8776         2.89778 
        2.67044         40.4437         2.85373 
        2.68618         40.0592         2.81068 
        2.70184         39.5864         2.76869 
        2.71755         38.8614         2.72743 
        2.73329         38.6352         2.68695 
        2.74897          38.285         2.64741 
        2.76462         37.9071         2.60875 
        2.78034         37.5096         2.57069 
        2.79607         36.9333         2.53334 
        2.81179         36.5167         2.49677 
        2.82749          36.265         2.46095 
        2.84321         35.9486         2.42579 
        2.85893         35.4761         2.39131 
        2.87462         35.0007         2.35756 
        2.89033         34.5539         2.32442 
        2.90605         34.1564         2.29189 
        2.92176         34.0356         2.25998 
        2.93747         33.5718          2.2287 
        2.95318         33.2316         2.19799 
        2.96891         32.8137         2.16784 
        2.98456         32.5776         2.13838 
        3.00023         32.1331         2.10942 
        3.01596         31.7485          2.0809 
        3.03164         31.4503         2.05298 
        3.04738          31.175         2.02549 
         3.0631         30.9682         1.99851 
        3.07883          30.536         1.97201 
        3.09456         30.2337         1.94599 
        3.11026          29.836         1.92047 
        3.12596         29.6017         1.89541 
        3.14163         29.2441         1.87085 
        3.15734         28.9917         1.84666 
        3.17308         28.7117         1.82284 
        3.18879         28.4307         1.79949 
        3.20447         28.0103         1.77659 
         3.2202         27.7609         1.75401 
         3.2359          27.588         1.73185 
        3.25157         27.2337         1.71013 
        3.26729         27.0056         1.68871 
        3.28304         26.7125         1.66761 
        3.29877         26.3768          1.6469 
        3.31446         26.1124         1.62658 
        3.33014         25.8608         1.60661 
        3.34585         25.5514         1.58695 
        3.36158         25.4016         1.56758 
        3.37727         25.0723         1.54859 
        3.39294         24.8428         1.52993 
        3.40867         24.6045         1.51151 
        3.42439         24.3789         1.49339 
        3.44008         24.1651         1.47561 
        3.45578         23.8951          1.4581 
        3.47153         23.7228         1.44083 
        3.48724          23.381         1.42387 
        3.50292         23.2455         1.40721 
        3.51859         23.0016         1.39083 
        3.53431         22.7599         1.37466 
        3.55007         22.4835          1.3587 
        3.56577         22.2576         1.34305 
        3.58146         22.0331         1.32766 
        3.59719          21.898         1.31246 
        3.61292         21.6468         1.29751 
        3.62859         21.4577         1.28284 
        3.64429         21.2556         1.26837 
        3.66003         20.9868         1.25408 
        3.67578           20.82         1.24001 
        3.69146         20.6121          1.2262 
        3.70712         20.4907         1.21263 
        3.72284         20.3154         1.19921 
        3.73853         20.1317         1.18602 
        3.75422          19.888         1.17301 
        3.76993         19.7564         1.16019 
        3.78564         19.5194         1.14757 
        3.80137           19.32          1.1351 
        3.81707         19.1611         1.12285 
        3.83279         18.9481         1.11077 
        3.84853         18.8257         1.09884 
        3.86424         18.5971         1.08711 
        3.87992         18.4478         1.07556 
        3.89561         18.2689         1.06418 
        3.91134         18.1024         1.05294 
        3.92704         17.9019         1.04187 
        3.94273          17.738         1.03098 
        3.95845         17.6209         1.02021 
        3.97418         17.4793          1.0096 
        3.98988         17.2768        0.999145 
        4.00554         17.0835        0.988868 
        4.02125         16.9973        0.978705 
        4.03698         16.7939        0.968668 
        4.05268          16.667        0.958792 
        4.06839         16.4972        0.949045 
         4.0841         16.3331        0.939435 
        4.09983          16.232        0.929943 
        4.11555         16.0724        0.920584 
        4.13124         15.9621        0.911379 
        4.14693         15.7803         0.90229 
        4.16266          15.682        0.893302 
        4.17839         15.5255        0.884441 
        4.19408         15.4159        0.875719 
        4.20977         15.2717        0.867109 
        4.22551         15.1423        0.858593 
        4.24123         14.9877        0.850199 
        4.25691         14.8785        0.841939 
        4.27259         14.7233        0.833784 
        4.28831         14.6142         0.82572 
        4.30404         14.4619        0.817754 
        4.31974         14.3535        0.809909 
        4.33543          14.215         0.80217 
        4.35116          14.107        0.794512 
        4.36688          13.956        0.786956 
        4.38255         13.8714        0.779525 
        4.39825         13.7556        0.772173 
        4.41398         13.6256          0.7649 
         4.4297         13.5215        0.757728 
        4.44541         13.4071        0.750648 
        4.46111         13.2458        0.743662 
        4.47683         13.1654        0.736759 
        4.49251         13.0323        0.729957 
        4.50819         12.9455        0.723242 
         4.5239         12.8979          0.7166 
        4.53962         12.7105        0.710032 
        4.55535         12.6181        0.703543 
        4.57106         12.5237        0.697143 
        4.58678         12.4155        0.690821 
         4.6025         12.3193        0.684574 
        4.61821         12.1949        0.678405 
        4.63391         12.0866        0.672319 
         4.6496         11.9807        0.666309 
        4.66532         11.8915        0.660363 
        4.68103         11.8132        0.654491 
        4.69673         11.7108        0.648695 
        4.71241         11.6097        0.642974 
        4.72811         11.5124        0.637312 
        4.74384         11.4288         0.63171 
        4.75955         11.3216        0.626183 
        4.77525         11.2193        0.620725 
        4.79096         11.1308        0.615324 
        4.80669         11.0305        0.609984 
         4.8224         10.9767        0.604713 
        4.83809         10.8529        0.599509 
        4.85379          10.775        0.594362 
         4.8695         10.7106        0.589271 
        4.88521         10.6205        0.584241 
        4.90093         10.5252        0.579268 
        4.91663         10.4493        0.574357 
        4.93234         10.3794        0.569497 
        4.94807         10.2811        0.564689 
        4.96377         10.2256        0.559945 
        4.97943         10.1308        0.555265 
        4.99514         10.0364        0.550626 
        5.01086         9.94921        0.546035 
        5.02654         9.90821        0.541508 
        5.04227         9.80366        0.537019 
          5.058         9.73415        0.532577 
        5.07371         9.67641        0.528194 
        5.08942           9.618        0.523859 
        5.10513          9.5071        0.519572 
        5.12084         9.44745         0.51533 
        5.13656         9.36459        0.511136 
        5.15225         9.30598        0.506995 
        5.16796         9.23996        0.502892 
        5.18369         9.15245        0.498831 
         5.1994         9.10457        0.494821 
        5.21509         9.03143        0.490859 
        5.23079         8.95668        0.486935 
        5.24649         8.86664        0.483056 
        5.26217         8.82554        0.479221 
        5.27788         8.76482        0.475423 
        5.29359         8.68049        0.471664 
        5.30933         8.62327         0.46794 
        5.32504         8.55943        0.464262 
        5.34073         8.49988        0.460628 
        5.35646         8.42544        0.457024 
        5.37218         8.36942        0.453458 
        5.38789         8.28443        0.449935 
        5.40357         8.22877        0.446453 
        5.41929         8.18559           0.443 
        5.43502         8.12343        0.439582 
         5.4507         8.05499        0.436209 
        5.46639          7.9938         0.43287 
        5.48212         7.95043        0.429557 
        5.49786         7.88103        0.426275 
        5.51353         7.83453        0.423043 
        5.52921         7.78019        0.419841 
        5.54495         7.72492        0.416662 
        5.56066         7.66042         0.41352 
        5.57637          7.6054        0.410409 
        5.59207         7.52548        0.407333 
        5.60778         7.50521        0.404287 
        5.62346          7.4461        0.401276 
        5.63916         7.38526        0.398293 
        5.65487         7.34169        0.395338 
         5.6706         7.27601        0.392409 
        5.68633         7.22022        0.389508 
        5.70203         7.17899        0.386643 
        5.71773         7.13067        0.383806 
        5.73344         7.07099        0.380996 
        5.74916          7.0282        0.378211 
        5.76486         6.97757        0.375458 
        5.78054         6.93573        0.372735 
        5.79626         6.87756        0.370032 
          5.812         6.83047        0.367353 
         5.8277         6.77179        0.364707 
        5.84339         6.72827        0.362088 
        5.85911         6.68947        0.359489 
        5.87484         6.65274        0.356915 
        5.89053         6.60507        0.354372 
        5.90623          6.5597        0.351851 
        5.92195         6.49555        0.349351 
        5.93767         6.46629        0.346876 
        5.95336         6.40684        0.344429 
        5.96905         6.36851        0.342006 
        5.98476         6.34518        0.339603 
        6.00048          6.2782        0.337221 
        6.01617         6.24805        0.334866 
        6.03185         6.20312        0.332535 
        6.04756         6.15085        0.330221 
        6.06331         6.11755        0.327924 
        6.07903         6.08658        0.325653 
        6.09473         6.02236        0.323406 
        6.11044         5.99565        0.321177 
        6.12616         5.96479         0.31897 
        6.14186         5.92398        0.316785 
        6.15755         5.89446         0.31462 
        6.17326         5.84409        0.312474 
        6.18898         5.79488        0.310347 
        6.20467         5.76499        0.308243 
        6.22036         5.72181        0.306159 
         6.2361         5.69642        0.304087 
         6.2518         5.65048        0.302039 
        6.26748         5.61863        0.300013 
        6.28319         5.58506           0.298 
        6.29893         5.54354        0.296004 
        6.31463         5.50451        0.294029 
        6.33033         5.46284        0.292073 
        6.34604         5.43802        0.290132 
        6.36177         5.40193        0.288208 
        6.37747         5.36126        0.286304 
