# k  (h/Mpc)    Pcb(k)  (Mpc/h)^3    Pcb_linear(k) (Mpc/h)^3   ShotnoiseSubtracted = true
      0.0200456         12480.9         12683.9 
      0.0350414         8262.72         8492.31 
      0.0492313         5911.28          5943.7 
      0.0637834          4933.1          4808.2 
      0.0800726         3755.95         3650.41 
       0.096163         2548.96          2571.8 
       0.111083         2029.35         2051.26 
       0.126058         1847.35         1797.55 
       0.142273         1558.03         1467.64 
       0.158546         1285.07         1139.32 
        0.17375         1031.01         968.852 
       0.188953         989.318         870.833 
       0.204907         911.992         748.706 
       0.220756         767.629         624.679 
        0.23588         675.443         547.485 
         0.2514         586.878         496.039 
       0.267535         564.677          439.75 
       0.283568         507.994         383.043 
       0.299022         472.864         342.265 
       0.314451         441.443         312.464 
       0.330372         404.961          282.97 
       0.346141         363.923         254.212 
       0.361624         350.182         230.812 
       0.377134         323.484         212.127 
       0.392932         304.259         194.781 
       0.408854         290.824         178.108 
       0.424564         275.115         163.661 
       0.440253         265.146         151.425 
       0.455999         248.067         140.383 
       0.471626          231.61         130.152 
        0.48727         222.479         120.883 
       0.502856         214.673         112.725 
       0.518488         211.461         105.325 
       0.534347         198.712         98.3972 
       0.550082         185.993         92.0873 
       0.565732         181.668         86.4104 
       0.581496         171.962         81.1907 
       0.597222         167.384         76.3899 
       0.612804         161.218         71.9914 
       0.628434         155.044         67.9343 
       0.644267         149.779          64.153 
       0.660051         147.716         60.6663 
       0.675724         143.584         57.4554 
       0.691403         139.104         54.4715 
       0.707174         133.292         51.6806 
       0.722871         131.534          49.094 
        0.73838         128.433         46.7101 
       0.754018         124.389         44.4649 
       0.769845         120.479         42.3414 
        0.78569         118.363         40.3533 
       0.801365         114.312         38.5113 
       0.817031         110.569         36.7846 
       0.832809         109.095          35.152 
       0.848511         105.575         33.6251 
       0.864097         103.708         32.1985 
       0.879701         101.345         30.8528 
       0.895507         98.7615         29.5675 
       0.911279         96.5183         28.3575 
        0.92691         95.5423         27.2247 
       0.942635           92.57          26.147 
       0.958396         92.3096         25.1249 
       0.974128         89.6816         24.1589 
       0.989692           87.45         23.2527 
        1.00528         85.4636         22.3913 
        1.02113         84.6996         21.5597 
        1.03692         81.6297         20.7731 
        1.05264          81.097          20.029 
        1.06832         79.0037         19.3222 
        1.08405         77.6838         18.6474 
        1.09979         77.3639         18.0041 
        1.11537         74.7242         17.3973 
        1.13105         74.4279         16.8146 
        1.14679         73.2788         16.2562 
        1.16256         72.1326         15.7218 
        1.17828         70.4988          15.213 
        1.19395          69.128         14.7282 
         1.2097         67.7002          14.262 
        1.22537         67.6542          13.818 
          1.241         66.1134          13.394 
        1.25666         64.6333         12.9867 
        1.27241         63.6828         12.5942 
        1.28819         62.6236         12.2172 
        1.30392         61.7773         11.8565 
        1.31957         61.0305         11.5119 
        1.33529           59.71         11.1796 
        1.35108         59.2156          10.859 
        1.36674         58.6545         10.5531 
         1.3824         57.3072         10.2592 
        1.39811         56.5609         9.97542 
        1.41389         55.8103         9.70118 
        1.42964         55.0068         9.43762 
        1.44531         53.9292         9.18505 
        1.46101         53.0677          8.9411 
        1.47667           53.13         8.70666 
        1.49229         52.0568         8.48117 
        1.50793         51.7436         8.26334 
        1.52367         50.5813         8.05168 
        1.53953         49.8577         7.84596 
        1.55526         49.5041           7.649 
        1.57092         49.1615         7.45954 
        1.58662         48.0798           7.276 
        1.60235         47.6998         7.09822 
        1.61809         47.0526         6.92623 
        1.63369          46.311         6.76141 
        1.64941         45.9955         6.60072 
        1.66519          44.814         6.44463 
        1.68085         44.7136         6.29465 
        1.69652         43.8398         6.14935 
        1.71228         43.5854         6.00777 
        1.72806         43.1042         5.87049 
        1.74368         42.4134         5.73884 
        1.75933          41.977         5.61092 
        1.77505         41.4611         5.48626 
        1.79081         41.0345         5.36514 
         1.8065         40.5412         5.24815 
        1.82218         40.0241         5.13472 
        1.83797         39.4927         5.02384 
        1.85367          39.104          4.9168 
        1.86928         38.4421          4.8135 
        1.88497         38.2837         4.71257 
        1.90073         37.6579         4.61414 
        1.91647         37.3808         4.51857 
        1.93218         37.0494         4.42589 
        1.94787         36.4683         4.33592 
        1.96363         36.0543         4.24807 
        1.97935         35.6322          4.1628 
        1.99499         35.2573         4.08034 
        2.01064         34.9139         3.99997 
         2.0264         34.1649         3.92123 
        2.04216         34.1469         3.84463 
        2.05781          33.615         3.77054 
        2.07353         33.2249         3.69812 
        2.08928         33.0181         3.62742 
        2.10499         32.4866         3.55874 
        2.12065          32.111         3.49203 
        2.13633         31.8894         3.42695 
        2.15211         31.6308         3.36309 
        2.16785          31.061         3.30103 
        2.18349         30.7478          3.2409 
        2.19916         30.4827         3.18212 
        2.21489         30.2029          3.1246 
        2.23063         29.7495         3.06844 
         2.2463         29.4171          3.0139 
        2.26194         29.0191         2.96081 
        2.27765         28.7701         2.90871 
        2.29341         28.4483         2.85772 
        2.30914         28.1744         2.80804 
        2.32486         27.7271         2.75955 
        2.34061         27.6111         2.71212 
        2.35635         27.2731         2.66584 
        2.37203         26.9707         2.62078 
        2.38768         26.7177         2.57684 
        2.40339         26.4998         2.53375 
        2.41914         26.2287         2.49153 
        2.43483          25.829         2.45041 
         2.4505         25.6335         2.41027 
        2.46622         25.3384         2.37089 
        2.48195         25.1536         2.33238 
        2.49759         24.8642         2.29491 
        2.51328         24.5123         2.25817 
        2.52906         24.3085         2.22198 
        2.54479         24.0065         2.18672 
        2.56049         23.7974         2.15228 
        2.57618         23.5478         2.11861 
        2.59189         23.3663         2.08559 
        2.60758          23.182         2.05333 
        2.62325          22.858         2.02178 
        2.63898         22.6587         1.99077 
        2.65468         22.3831         1.96047 
        2.67044         22.2304         1.93067 
        2.68618         21.9832         1.90155 
        2.70184         21.7183         1.87314 
        2.71755         21.5937         1.84523 
        2.73329         21.3418         1.81784 
        2.74897         21.0778         1.79109 
        2.76462         20.8414         1.76493 
        2.78034         20.7695         1.73918 
        2.79607         20.6115         1.71392 
        2.81179         20.3404         1.68917 
        2.82749         20.1468         1.66494 
        2.84321         19.8912         1.64115 
        2.85893         19.6467         1.61783 
        2.87462         19.5022         1.59499 
        2.89033          19.368         1.57258 
        2.90605         19.1623         1.55056 
        2.92176         19.0284         1.52898 
        2.93747         18.8475         1.50781 
        2.95318         18.6093         1.48703 
        2.96891         18.4466         1.46664 
        2.98456         18.2404         1.44671 
        3.00023         18.0439         1.42711 
        3.01596          17.841         1.40782 
        3.03164         17.7465         1.38893 
        3.04738         17.5316         1.37033 
         3.0631         17.3981         1.35208 
        3.07883          17.305         1.33415 
        3.09456         17.0508         1.31655 
        3.11026         16.9128         1.29928 
        3.12596         16.7552         1.28233 
        3.14163         16.6119         1.26571 
        3.15734         16.5007         1.24935 
        3.17308         16.2751         1.23323 
        3.18879         16.1992         1.21744 
        3.20447         16.0091         1.20194 
         3.2202         15.8297         1.18666 
         3.2359          15.687         1.17168 
        3.25157         15.6038         1.15698 
        3.26729         15.4461         1.14249 
        3.28304         15.2774         1.12821 
        3.29877         15.1668          1.1142 
        3.31446         14.9414         1.10045 
        3.33014         14.8618         1.08694 
        3.34585          14.724         1.07364 
        3.36158         14.5818         1.06054 
        3.37727         14.4227         1.04769 
        3.39294         14.3042         1.03506 
        3.40867         14.1548          1.0226 
        3.42439         14.0649         1.01035 
        3.44008         13.9636        0.998315 
        3.45578         13.7801        0.986468 
        3.47153         13.6535        0.974784 
        3.48724         13.5427        0.963309 
        3.50292          13.487        0.952043 
        3.51859         13.2998         0.94096 
        3.53431          13.199        0.930017 
        3.55007         13.0645         0.91922 
        3.56577         12.9191        0.908634 
        3.58146         12.8255        0.898218 
        3.59719         12.7067        0.887939 
        3.61292         12.6164        0.877823 
        3.62859         12.4759          0.8679 
        3.64429         12.3958         0.85811 
        3.66003         12.2895         0.84844 
        3.67578          12.191         0.83892 
        3.69146          12.091        0.829581 
        3.70712         11.9775        0.820399 
        3.72284          11.875        0.811321 
        3.73853         11.7585        0.802394 
        3.75422         11.6169        0.793596 
        3.76993         11.5507        0.784922 
        3.78564         11.4311        0.776378 
        3.80137         11.3408        0.767947 
        3.81707         11.2385        0.759657 
        3.83279         11.1702        0.751482 
        3.84853         11.0404        0.743412 
        3.86424         10.9482        0.735475 
        3.87992         10.8453        0.727664 
        3.89561         10.7463        0.719965 
        3.91134         10.6794        0.712361 
        3.92704         10.5592        0.704874 
        3.94273         10.4776          0.6975 
        3.95845         10.4063        0.690218 
        3.97418         10.3005        0.683036 
        3.98988         10.2138        0.675965 
        4.00554         10.1445        0.669013 
        4.02125         10.0779        0.662137 
        4.03698          9.9421        0.655346 
        4.05268         9.84255        0.648665 
        4.06839         9.79684        0.642071 
         4.0841         9.72172        0.635569 
        4.09983         9.59392        0.629147 
        4.11555         9.55494        0.622816 
        4.13124         9.45051        0.616588 
        4.14693         9.38451        0.610439 
        4.16266         9.29849        0.604358 
        4.17839         9.22611        0.598363 
        4.19408          9.1451        0.592462 
        4.20977         9.08844        0.586638 
        4.22551         8.97643        0.580876 
        4.24123         8.92154        0.575197 
        4.25691         8.83587        0.569609 
        4.27259         8.78346        0.564092 
        4.28831         8.69212        0.558636 
        4.30404         8.62334        0.553246 
        4.31974         8.55551        0.547939 
        4.33543         8.48874        0.542703 
        4.35116         8.42394        0.537522 
        4.36688         8.35866         0.53241 
        4.38255         8.29823        0.527383 
        4.39825          8.2173        0.522409 
        4.41398          8.1657        0.517489 
         4.4297          8.0722        0.512636 
        4.44541         8.02925        0.507846 
        4.46111         7.96828         0.50312 
        4.47683         7.89138         0.49845 
        4.49251         7.82108        0.493848 
        4.50819         7.78577        0.489305 
         4.5239         7.70932        0.484811 
        4.53962         7.64209        0.480368 
        4.55535         7.57568        0.475978 
        4.57106         7.49715        0.471648 
        4.58678         7.45824        0.467371 
         4.6025         7.39375        0.463145 
        4.61821         7.32617        0.458971 
        4.63391         7.26903        0.454854 
         4.6496         7.23625        0.450788 
        4.66532         7.16632        0.446765 
        4.68103         7.10551        0.442792 
        4.69673         7.06092        0.438871 
        4.71241         7.00838           0.435 
        4.72811         6.94767         0.43117 
        4.74384          6.8954         0.42738 
        4.75955         6.84193        0.423641 
        4.77525         6.81015        0.419948 
        4.79096         6.72342        0.416294 
        4.80669         6.69277        0.412681 
         4.8224         6.65092        0.409115 
        4.83809         6.57172        0.405594 
        4.85379         6.52086        0.402112 
         4.8695         6.49369        0.398668 
        4.88521         6.43638        0.395265 
        4.90093         6.37356          0.3919 
        4.91663         6.33905        0.388578 
        4.93234          6.2853         0.38529 
        4.94807          6.2432        0.382037 
        4.96377         6.19096        0.378827 
        4.97943         6.14622        0.375661 
        4.99514         6.09908        0.372522 
        5.01086         6.06809        0.369417 
        5.02654         6.00402        0.366354 
        5.04227         5.97867        0.363317 
          5.058         5.91615        0.360312 
        5.07371         5.87941        0.357347 
        5.08942         5.83177        0.354414 
        5.10513         5.78679        0.351513 
        5.12084         5.74923        0.348643 
        5.13656         5.70261        0.345806 
        5.15225         5.66797        0.343004 
        5.16796         5.62699        0.340229 
        5.18369         5.57675        0.337481 
         5.1994         5.53177        0.334768 
        5.21509         5.50625        0.332088 
        5.23079         5.45151        0.329433 
        5.24649         5.41071        0.326808 
        5.26217          5.3718        0.324214 
        5.27788         5.34856        0.321644 
        5.29359         5.29939        0.319102 
        5.30933         5.27499        0.316582 
        5.32504         5.21766        0.314094 
        5.34073         5.19486        0.311635 
        5.35646         5.16694        0.309197 
        5.37218         5.13022        0.306784 
        5.38789         5.08649        0.304401 
        5.40357         5.05053        0.302045 
        5.41929          5.0074        0.299709 
        5.43502         4.97742        0.297397 
         5.4507         4.94904        0.295114 
        5.46639         4.91583        0.292855 
        5.48212          4.8811        0.290614 
        5.49786         4.84756        0.288394 
        5.51353         4.79808        0.286207 
        5.52921         4.76949        0.284041 
        5.54495         4.74869         0.28189 
        5.56066         4.71997        0.279764 
        5.57637            4.68         0.27766 
        5.59207         4.64391        0.275579 
        5.60778         4.61337        0.273518 
        5.62346         4.57836        0.271481 
        5.63916          4.5549        0.269463 
        5.65487         4.51761        0.267463 
         5.6706         4.48677        0.265482 
        5.68633         4.46025         0.26352 
        5.70203         4.42812        0.261581 
        5.71773          4.3931        0.259662 
        5.73344         4.36611        0.257761 
        5.74916          4.3425        0.255876 
        5.76486         4.31229        0.254014 
        5.78054         4.28598        0.252172 
        5.79626         4.25404        0.250343 
          5.812          4.2305         0.24853 
         5.8277         4.20206        0.246741 
        5.84339         4.16969        0.244968 
        5.85911          4.1466         0.24321 
        5.87484         4.11992        0.241469 
        5.89053         4.09361        0.239748 
        5.90623          4.0681        0.238043 
        5.92195         4.03956        0.236351 
        5.93767         4.01615        0.234677 
        5.95336         3.98644        0.233021 
        5.96905         3.96914        0.231382 
        5.98476         3.93812        0.229756 
        6.00048          3.9196        0.228145 
        6.01617         3.89161        0.226551 
        6.03185          3.8616        0.224975 
        6.04756         3.83817        0.223409 
        6.06331          3.8131        0.221855 
        6.07903         3.79277        0.220319 
        6.09473          3.7645        0.218798 
        6.11044         3.74717         0.21729 
        6.12616         3.71338        0.215797 
        6.14186         3.68736        0.214319 
        6.15755         3.67605        0.212855 
        6.17326         3.65242        0.211403 
        6.18898         3.62817        0.209963 
        6.20467         3.60335         0.20854 
        6.22036         3.58396         0.20713 
         6.2361         3.55763        0.205729 
         6.2518         3.53975        0.204342 
        6.26748         3.51936        0.202972 
        6.28319         3.48903         0.20161 
        6.29893          3.4691         0.20026 
        6.31463         3.45112        0.198924 
        6.33033         3.43297          0.1976 
        6.34604          3.4104        0.196287 
        6.36177          3.3891        0.194985 
        6.37747         3.36877        0.193697 
