# k  (h/Mpc)    Pcb(k)  (Mpc/h)^3    Pcb_linear(k) (Mpc/h)^3   ShotnoiseSubtracted = true
      0.0200456         5751.95         5816.81 
      0.0350414         3992.84         3894.54 
      0.0492313         2725.82         2725.76 
      0.0637834         2158.39         2205.02 
      0.0800726          1635.5         1674.07 
       0.096163         1222.15         1179.42 
       0.111083         983.759           940.7 
       0.126058         823.123         824.351 
       0.142273         679.549         673.055 
       0.158546         544.821          522.49 
        0.17375         471.534         444.312 
       0.188953         426.423         399.361 
       0.204907         354.933         343.354 
       0.220756         311.687         286.476 
        0.23588         274.693         251.075 
         0.2514         245.671         227.482 
       0.267535          229.35         201.668 
       0.283568         198.219         175.662 
       0.299022         184.725         156.962 
       0.314451         177.122         143.295 
       0.330372         153.808         129.769 
       0.346141         140.634         116.581 
       0.361624         130.841          105.85 
       0.377134         119.394         97.2808 
       0.392932         115.069          89.326 
       0.408854         107.176         81.6797 
       0.424564         101.551         75.0542 
       0.440253         92.0199          69.443 
       0.455999         84.6135         64.3792 
       0.471626          81.321         59.6874 
        0.48727         78.2692         55.4364 
       0.502856         71.7413         51.6955 
       0.518488         69.1353         48.3018 
       0.534347         64.8203         45.1246 
       0.550082         62.6697         42.2309 
       0.565732         60.5544         39.6275 
       0.581496         55.6651         37.2338 
       0.597222         53.7248         35.0321 
       0.612804         51.4087          33.015 
       0.628434         50.2466         31.1545 
       0.644267          47.365         29.4203 
       0.660051         45.4992         27.8214 
       0.675724          43.832         26.3488 
       0.691403         42.8725         24.9805 
       0.707174         41.1535         23.7005 
       0.722871         39.9955         22.5144 
        0.73838         38.1858         21.4211 
       0.754018          35.992         20.3915 
       0.769845         35.4946         19.4176 
        0.78569         34.2061         18.5059 
       0.801365         33.1065         17.6611 
       0.817031         31.7518         16.8693 
       0.832809          31.062         16.1206 
       0.848511         30.1318         15.4203 
       0.864097         29.3864         14.7661 
       0.879701         28.7173          14.149 
       0.895507         27.5672         13.5596 
       0.911279         26.7853         13.0047 
        0.92691         26.2329         12.4852 
       0.942635         25.5815         11.9909 
       0.958396         25.0916         11.5222 
       0.974128         24.3895         11.0792 
       0.989692         23.3913         10.6636 
        1.00528         23.0741         10.2686 
        1.02113         22.4072          9.8872 
        1.03692         22.0604         9.52646 
        1.05264         21.5362         9.18522 
        1.06832         21.0709         8.86109 
        1.08405         20.4751         8.55162 
        1.09979         20.2348         8.25662 
        1.11537         19.5178         7.97835 
        1.13105         19.1807         7.71113 
        1.14679         18.7065         7.45503 
        1.16256         18.4287         7.20997 
        1.17828         18.1201         6.97663 
        1.19395         17.6874         6.75432 
         1.2097         17.4497         6.54049 
        1.22537         17.0249         6.33687 
          1.241         16.6636         6.14246 
        1.25666         16.3954         5.95565 
        1.27241         16.1563         5.77566 
        1.28819         15.5464         5.60275 
        1.30392         15.6059         5.43736 
        1.31957         15.2548         5.27932 
        1.33529         14.9437         5.12693 
        1.35108         14.7402         4.97989 
        1.36674         14.4773         4.83963 
         1.3824         14.1728         4.70484 
        1.39811         13.8792         4.57469 
        1.41389         13.7058         4.44893 
        1.42964         13.5717         4.32806 
        1.44531         13.3021         4.21223 
        1.46101         13.1364         4.10036 
        1.47667         12.8873         3.99284 
        1.49229         12.5741         3.88944 
        1.50793         12.4918         3.78954 
        1.52367         12.2964         3.69248 
        1.53953         12.1544         3.59813 
        1.55526         11.8812         3.50781 
        1.57092          11.817         3.42092 
        1.58662         11.6415         3.33675 
        1.60235          11.467         3.25522 
        1.61809         11.2742         3.17634 
        1.63369         11.1198         3.10076 
        1.64941         10.9424         3.02707 
        1.66519         10.8537         2.95549 
        1.68085         10.5841         2.88671 
        1.69652         10.5939         2.82007 
        1.71228         10.4086         2.75514 
        1.72806         10.2263         2.69219 
        1.74368         10.1371         2.63181 
        1.75933          10.003         2.57315 
        1.77505         9.86687         2.51598 
        1.79081         9.74492         2.46044 
         1.8065         9.63945         2.40678 
        1.82218         9.56639         2.35477 
        1.83797         9.45646         2.30391 
        1.85367         9.34305         2.25483 
        1.86928          9.2111         2.20745 
        1.88497         9.09415         2.16117 
        1.90073         8.96392         2.11603 
        1.91647         8.78947          2.0722 
        1.93218         8.77569          2.0297 
        1.94787         8.62432         1.98844 
        1.96363         8.55631         1.94815 
        1.97935         8.42247         1.90905 
        1.99499         8.32967         1.87123 
        2.01064         8.24025         1.83437 
         2.0264         8.12699         1.79826 
        2.04216          8.1226         1.76314 
        2.05781         8.01386         1.72916 
        2.07353          7.9155         1.69595 
        2.08928         7.82595         1.66352 
        2.10499         7.73153         1.63203 
        2.12065         7.65598         1.60143 
        2.13633         7.56442         1.57159 
        2.15211         7.49013          1.5423 
        2.16785         7.40712         1.51384 
        2.18349         7.31928         1.48626 
        2.19916         7.26918         1.45931 
        2.21489           7.167         1.43293 
        2.23063         7.13471         1.40718 
         2.2463          7.0178         1.38216 
        2.26194         6.95732         1.35782 
        2.27765         6.86938         1.33392 
        2.29341          6.8047         1.31054 
        2.30914         6.75652         1.28776 
        2.32486         6.69892         1.26552 
        2.34061         6.63235         1.24377 
        2.35635         6.58175         1.22254 
        2.37203         6.48793         1.20188 
        2.38768         6.40112         1.18173 
        2.40339         6.38309         1.16197 
        2.41914         6.28333         1.14261 
        2.43483         6.26641         1.12375 
         2.4505          6.1893         1.10534 
        2.46622         6.13071         1.08728 
        2.48195         6.10322         1.06962 
        2.49759         6.00704         1.05244 
        2.51328         5.96898         1.03559 
        2.52906          5.8985         1.01899 
        2.54479         5.85975         1.00282 
        2.56049         5.77682        0.987029 
        2.57618         5.74823        0.971586 
        2.59189         5.74381        0.956446 
        2.60758         5.64372        0.941649 
        2.62325         5.58926         0.92718 
        2.63898         5.58501        0.912961 
        2.65468         5.50483        0.899067 
        2.67044         5.48249        0.885399 
        2.68618         5.39823        0.872044 
        2.70184         5.36987        0.859015 
        2.71755         5.32471        0.846216 
        2.73329         5.25502        0.833656 
        2.74897         5.21542        0.821388 
        2.76462         5.19154        0.809393 
        2.78034         5.12961        0.797584 
        2.79607         5.12185        0.785996 
        2.81179         5.05411        0.774649 
        2.82749         5.00859        0.763536 
        2.84321          4.9793        0.752627 
        2.85893         4.94205        0.741931 
        2.87462         4.90051        0.731459 
        2.89033         4.84449        0.721178 
        2.90605         4.81385        0.711083 
        2.92176         4.77448        0.701184 
        2.93747         4.73045        0.691477 
        2.95318         4.69153        0.681949 
        2.96891         4.66328        0.672595 
        2.98456         4.61343        0.663455 
        3.00023         4.58774         0.65447 
        3.01596         4.53887        0.645622 
        3.03164         4.51651         0.63696 
        3.04738          4.4777        0.628431 
         3.0631         4.43677        0.620059 
        3.07883         4.40319        0.611837 
        3.09456         4.35834        0.603764 
        3.11026          4.3261        0.595847 
        3.12596         4.29459        0.588071 
        3.14163         4.27477        0.580451 
        3.15734         4.23559        0.572946 
        3.17308         4.22466        0.565555 
        3.18879         4.16972        0.558313 
        3.20447         4.13578        0.551206 
         3.2202         4.11501          0.5442 
         3.2359          4.0798        0.537327 
        3.25157         4.05289        0.530587 
        3.26729         4.02551        0.523941 
        3.28304         3.99399        0.517395 
        3.29877         3.96544        0.510968 
        3.31446         3.94555        0.504663 
        3.33014         3.90321        0.498468 
        3.34585         3.87814        0.492367 
        3.36158          3.8437        0.486358 
        3.37727         3.81385        0.480467 
        3.39294         3.79065        0.474677 
        3.40867         3.76758        0.468961 
        3.42439         3.74697        0.463342 
        3.44008         3.72012        0.457824 
        3.45578         3.68755        0.452391 
        3.47153         3.65866        0.447033 
        3.48724         3.62717         0.44177 
        3.50292          3.5985        0.436604 
        3.51859         3.58367        0.431521 
        3.53431         3.54711        0.426503 
        3.55007         3.53185        0.421551 
        3.56577           3.497        0.416697 
        3.58146         3.48183         0.41192 
        3.59719         3.46167        0.407206 
        3.61292         3.42943        0.402567 
        3.62859         3.40875        0.398016 
        3.64429         3.39074        0.393527 
        3.66003          3.3591        0.389092 
        3.67578         3.35625        0.384726 
        3.69146         3.32662        0.380443 
        3.70712         3.30383        0.376232 
        3.72284         3.28128        0.372069 
        3.73853         3.25684        0.367975 
        3.75422         3.22236        0.363941 
        3.76993         3.22436        0.359962 
        3.78564         3.19183        0.356045 
        3.80137         3.17129        0.352178 
        3.81707         3.14398        0.348376 
        3.83279         3.12523        0.344627 
        3.84853         3.09785        0.340926 
        3.86424         3.07778        0.337286 
        3.87992         3.06622        0.333704 
        3.89561          3.0451        0.330174 
        3.91134         3.01901        0.326686 
        3.92704         3.00042        0.323253 
        3.94273         2.98673        0.319871 
        3.95845          2.9653        0.316532 
        3.97418         2.93589        0.313238 
        3.98988         2.92461        0.309996 
        4.00554         2.90277        0.306807 
        4.02125         2.87776        0.303654 
        4.03698         2.86464         0.30054 
        4.05268         2.83394        0.297476 
        4.06839          2.8194        0.294451 
         4.0841         2.79811         0.29147 
        4.09983         2.78237        0.288525 
        4.11555           2.763        0.285621 
        4.13124         2.74242        0.282765 
        4.14693         2.72201        0.279945 
        4.16266         2.71006        0.277157 
        4.17839           2.693        0.274407 
        4.19408         2.67981        0.271701 
        4.20977         2.66112         0.26903 
        4.22551         2.63609        0.266388 
        4.24123         2.61875        0.263784 
        4.25691         2.60218        0.261221 
        4.27259         2.58312        0.258691 
        4.28831         2.56733        0.256189 
        4.30404         2.55267        0.253717 
        4.31974         2.53579        0.251283 
        4.33543         2.51713        0.248882 
        4.35116         2.50724        0.246506 
        4.36688         2.49012        0.244162 
        4.38255         2.47695        0.241856 
        4.39825         2.46087        0.239575 
        4.41398         2.44251        0.237319 
         4.4297         2.43074        0.235093 
        4.44541         2.41533        0.232897 
        4.46111         2.39622        0.230729 
        4.47683         2.38767        0.228588 
        4.49251         2.36552        0.226477 
        4.50819         2.35541        0.224394 
         4.5239         2.33499        0.222333 
        4.53962         2.32605        0.220295 
        4.55535         2.30914        0.218282 
        4.57106         2.29275        0.216296 
        4.58678         2.28361        0.214335 
         4.6025          2.2715        0.212397 
        4.61821         2.25383        0.210483 
        4.63391         2.24149        0.208594 
         4.6496          2.2281         0.20673 
        4.66532         2.21142        0.204885 
        4.68103         2.20185        0.203063 
        4.69673         2.19049        0.201265 
        4.71241         2.17726         0.19949 
        4.72811         2.16666        0.197733 
        4.74384          2.1602        0.195995 
        4.75955          2.1411         0.19428 
        4.77525         2.13001        0.192587 
        4.79096         2.11889        0.190911 
        4.80669         2.10662        0.189254 
         4.8224         2.08989        0.187619 
        4.83809         2.08421        0.186004 
        4.85379         2.07154        0.184407 
         4.8695         2.06374        0.182828 
        4.88521         2.04768        0.181267 
        4.90093         2.03577        0.179724 
        4.91663         2.02604          0.1782 
        4.93234         2.00964        0.176693 
        4.94807         2.00559        0.175201 
        4.96377         1.99746        0.173729 
        4.97943         1.98446        0.172277 
        4.99514         1.97322        0.170838 
        5.01086         1.96517        0.169413 
        5.02654         1.95067        0.168009 
        5.04227         1.94002        0.166616 
          5.058         1.92866        0.165238 
        5.07371         1.92304        0.163878 
        5.08942         1.90726        0.162533 
        5.10513         1.90007        0.161203 
        5.12084         1.88995        0.159887 
        5.13656         1.87966        0.158585 
        5.15225         1.87098        0.157301 
        5.16796         1.86353        0.156028 
        5.18369         1.84945        0.154768 
         5.1994         1.84391        0.153524 
        5.21509         1.83172        0.152294 
        5.23079         1.82398        0.151077 
        5.24649         1.81688        0.149873 
        5.26217         1.80686        0.148684 
        5.27788         1.79487        0.147505 
        5.29359         1.79359        0.146339 
        5.30933         1.78167        0.145184 
        5.32504          1.7718        0.144042 
        5.34073         1.76304        0.142915 
        5.35646         1.75256        0.141797 
        5.37218         1.74677         0.14069 
        5.38789          1.7377        0.139597 
        5.40357         1.73076        0.138517 
        5.41929         1.72319        0.137446 
        5.43502         1.71356        0.136385 
         5.4507         1.70292        0.135338 
        5.46639         1.69045        0.134302 
        5.48212         1.68535        0.133275 
        5.49786         1.68462        0.132256 
        5.51353         1.67343        0.131254 
        5.52921         1.66553         0.13026 
        5.54495         1.65567        0.129274 
        5.56066         1.64855        0.128299 
        5.57637         1.64329        0.127334 
        5.59207         1.63313         0.12638 
        5.60778         1.62715        0.125435 
        5.62346         1.61883          0.1245 
        5.63916          1.6126        0.123575 
        5.65487         1.60372        0.122658 
         5.6706         1.59567        0.121749 
        5.68633         1.59146        0.120849 
        5.70203         1.58072         0.11996 
        5.71773         1.57476         0.11908 
        5.73344         1.57012        0.118208 
        5.74916         1.56082        0.117344 
        5.76486         1.55572         0.11649 
        5.78054         1.54973        0.115645 
        5.79626          1.5416        0.114806 
          5.812         1.53075        0.113975 
         5.8277         1.52655        0.113154 
        5.84339         1.51958        0.112342 
        5.85911         1.51183        0.111535 
        5.87484         1.50786        0.110737 
        5.89053         1.50065        0.109948 
        5.90623          1.4967        0.109166 
        5.92195         1.48787         0.10839 
        5.93767         1.48198        0.107622 
        5.95336         1.47296        0.106863 
        5.96905         1.46971        0.106111 
        5.98476         1.46205        0.105365 
        6.00048         1.45732        0.104627 
        6.01617          1.4503        0.103896 
        6.03185         1.44366        0.103173 
        6.04756          1.4393        0.102455 
        6.06331         1.43332        0.101742 
        6.07903         1.42537        0.101037 
        6.09473         1.42062         0.10034 
        6.11044         1.41661       0.0996486 
        6.12616         1.41201       0.0989638 
        6.14186         1.40443       0.0982859 
        6.15755         1.39992       0.0976144 
        6.17326         1.39398       0.0969485 
        6.18898         1.38744       0.0962885 
        6.20467         1.38298       0.0956357 
        6.22036         1.37576        0.094989 
         6.2361         1.37224       0.0943464 
         6.2518         1.36786       0.0937108 
        6.26748         1.36114       0.0930823 
        6.28319         1.35801       0.0924578 
        6.29893         1.35022       0.0918384 
        6.31463         1.34506       0.0912257 
        6.33033         1.33914       0.0906187 
        6.34604         1.33458       0.0900167 
        6.36177         1.33156       0.0894195 
        6.37747         1.32742       0.0888289 
