# k  (h/Mpc)    Pcb(k)  (Mpc/h)^3    Pcb_linear(k) (Mpc/h)^3   ShotnoiseSubtracted = true
      0.0200456         21878.9           22202 
      0.0350414         15431.2         14864.9 
      0.0492313         10253.2         10403.9 
      0.0637834         8066.38         8416.26 
      0.0800726         6094.07         6389.67 
       0.096163         4787.53         4501.68 
       0.111083         3875.73         3590.52 
       0.126058         3179.81         3146.43 
       0.142273         2715.16         2568.95 
       0.158546         2198.49         1994.27 
        0.17375         1953.62         1695.88 
       0.188953         1837.37         1524.31 
       0.204907         1555.55         1310.53 
       0.220756         1395.69         1093.44 
        0.23588         1242.49         958.317 
         0.2514         1113.77         868.267 
       0.267535         1071.45         769.738 
       0.283568         944.251         670.479 
       0.299022         896.061         599.101 
       0.314451         929.252         546.937 
       0.330372         805.139          495.31 
       0.346141          737.86         444.972 
       0.361624         705.685         404.013 
       0.377134         673.005         371.307 
       0.392932         638.992         340.945 
       0.408854         611.719          311.76 
       0.424564         595.147         286.471 
       0.440253         545.456         265.054 
       0.455999         519.939         245.726 
       0.471626         528.868         227.819 
        0.48727         496.063         211.593 
       0.502856         471.307         197.314 
       0.518488         458.934         184.361 
       0.534347         437.579         172.234 
       0.550082         416.337         161.189 
       0.565732          410.65         151.253 
       0.581496         399.136         142.116 
       0.597222         388.872         133.713 
       0.612804         378.219         126.014 
       0.628434         362.774         118.912 
       0.644267         350.179         112.293 
       0.660051         345.886          106.19 
       0.675724         336.817          100.57 
       0.691403         329.375         95.3469 
       0.707174         317.067         90.4616 
       0.722871         312.752         85.9342 
        0.73838         306.026         81.7614 
       0.754018         295.777         77.8314 
       0.769845         294.376         74.1144 
        0.78569         286.022         70.6344 
       0.801365         276.281         67.4101 
       0.817031         275.088         64.3877 
       0.832809         268.825           61.53 
       0.848511         263.679         58.8573 
       0.864097         255.353         56.3603 
       0.879701         254.789         54.0047 
       0.895507         246.272          51.755 
       0.911279         241.183          49.637 
        0.92691         238.598         47.6541 
       0.942635         235.343         45.7677 
       0.958396         228.459         43.9787 
       0.974128         226.086         42.2877 
       0.989692         217.849         40.7015 
        1.00528         217.015         39.1937 
        1.02113         214.357         37.7381 
        1.03692         209.591         36.3611 
        1.05264         205.488         35.0587 
        1.06832         203.245         33.8215 
        1.08405         199.386         32.6403 
        1.09979         196.241         31.5144 
        1.11537         193.065         30.4522 
        1.13105          189.25         29.4323 
        1.14679         187.508         28.4548 
        1.16256          184.64         27.5194 
        1.17828         182.065         26.6288 
        1.19395         177.268         25.7803 
         1.2097         176.794         24.9641 
        1.22537         174.578         24.1869 
          1.241         168.839         23.4449 
        1.25666         168.496         22.7319 
        1.27241         165.359         22.0449 
        1.28819         163.064         21.3849 
        1.30392         161.509         20.7536 
        1.31957         157.265         20.1504 
        1.33529         154.551         19.5688 
        1.35108         153.953         19.0076 
        1.36674         149.615         18.4722 
         1.3824         148.659         17.9577 
        1.39811         147.491          17.461 
        1.41389         143.749         16.9809 
        1.42964         141.404         16.5196 
        1.44531         140.739         16.0775 
        1.46101             138         15.6505 
        1.47667         136.867         15.2401 
        1.49229         135.035         14.8454 
        1.50793          132.29         14.4641 
        1.52367          130.52         14.0937 
        1.53953         128.152         13.7336 
        1.55526         127.084         13.3888 
        1.57092         126.223         13.0572 
        1.58662         123.293         12.7359 
        1.60235         122.055         12.4247 
        1.61809         119.962         12.1237 
        1.63369         117.906         11.8352 
        1.64941         117.074         11.5539 
        1.66519         115.139         11.2807 
        1.68085         113.221         11.0182 
        1.69652          112.22         10.7638 
        1.71228          110.14          10.516 
        1.72806         109.558         10.2757 
        1.74368          108.17         10.0453 
        1.75933         106.881         9.82135 
        1.77505         105.394         9.60315 
        1.79081         103.553         9.39114 
         1.8065         101.795         9.18636 
        1.82218         100.502         8.98781 
        1.83797         99.6818         8.79372 
        1.85367          98.684         8.60637 
        1.86928         97.6308         8.42554 
        1.88497         96.0155         8.24888 
        1.90073          95.209         8.07658 
        1.91647          93.455         7.90931 
        1.93218         92.4992         7.74708 
        1.94787         90.7752         7.58959 
        1.96363         90.3191         7.43581 
        1.97935         89.1087         7.28657 
        1.99499         88.2077         7.14222 
        2.01064         86.6487         7.00154 
         2.0264         85.5146         6.86372 
        2.04216          84.486         6.72964 
        2.05781         83.3469         6.59995 
        2.07353         82.6455         6.47319 
        2.08928         81.4628         6.34944 
        2.10499         80.7992         6.22922 
        2.12065         79.4215         6.11245 
        2.13633         78.6128         5.99853 
        2.15211         77.4014         5.88676 
        2.16785         76.4672         5.77811 
        2.18349         75.1808         5.67286 
        2.19916         74.7848         5.56999 
        2.21489         73.8772         5.46929 
        2.23063         72.4706         5.37099 
         2.2463         71.7492         5.27553 
        2.26194         71.2752          5.1826 
        2.27765         69.9261          5.0914 
        2.29341         69.2417         5.00214 
        2.30914         68.2232         4.91518 
        2.32486         67.3706         4.83032 
        2.34061         66.4726          4.7473 
        2.35635         65.9916         4.66628 
        2.37203         64.9198         4.58741 
        2.38768         64.2485         4.51051 
        2.40339         63.4471         4.43507 
        2.41914         62.6439         4.36117 
        2.43483         62.0747         4.28919 
         2.4505         61.1277         4.21894 
        2.46622         60.4615            4.15 
        2.48195         60.0666         4.08259 
        2.49759         59.0558         4.01701 
        2.51328         58.2758         3.95269 
        2.52906         57.5793         3.88936 
        2.54479         57.0199         3.82763 
        2.56049         56.2089         3.76735 
        2.57618         55.5756         3.70841 
        2.59189         54.9357         3.65062 
        2.60758         54.1575         3.59414 
        2.62325         53.6827         3.53891 
        2.63898         53.3027         3.48464 
        2.65468         52.4935         3.43161 
        2.67044         52.0185         3.37944 
        2.68618         51.6816         3.32847 
        2.70184         50.7851         3.27874 
        2.71755         50.3053         3.22989 
        2.73329         49.5963         3.18195 
        2.74897         49.1681         3.13512 
        2.76462         48.5172         3.08934 
        2.78034         47.9892         3.04427 
        2.79607         47.6761         3.00004 
        2.81179           47.08         2.95673 
        2.82749         46.6517         2.91431 
        2.84321         46.0605         2.87267 
        2.85893         45.4873         2.83185 
        2.87462         45.1446         2.79188 
        2.89033         44.4365         2.75263 
        2.90605         43.9415          2.7141 
        2.92176         43.5255         2.67632 
        2.93747         43.1525         2.63927 
        2.95318         42.6518          2.6029 
        2.96891           42.08          2.5672 
        2.98456          41.598         2.53232 
        3.00023          41.284         2.49802 
        3.01596         40.6364         2.46425 
        3.03164         40.2018         2.43119 
        3.04738         39.8754         2.39863 
         3.0631         39.4087         2.36668 
        3.07883         38.8763         2.33529 
        3.09456         38.5202         2.30448 
        3.11026         38.2317         2.27426 
        3.12596         37.7411         2.24459 
        3.14163         37.3196          2.2155 
        3.15734         36.8565         2.18686 
        3.17308         36.6369         2.15864 
        3.18879          36.284           2.131 
        3.20447         35.9132         2.10388 
         3.2202         35.4252         2.07714 
         3.2359         35.1339          2.0509 
        3.25157         34.8404         2.02518 
        3.26729         34.3468         1.99981 
        3.28304         34.0342         1.97482 
        3.29877         33.6312         1.95029 
        3.31446         33.3358         1.92623 
        3.33014         33.0242         1.90258 
        3.34585         32.5534          1.8793 
        3.36158         32.3403         1.85636 
        3.37727         31.8834         1.83387 
        3.39294         31.7069         1.81178 
        3.40867         31.3686         1.78996 
        3.42439         31.0527         1.76851 
        3.44008         30.7105         1.74745 
        3.45578         30.3943         1.72671 
        3.47153         30.1033         1.70626 
        3.48724         29.7342         1.68617 
        3.50292         29.5295         1.66645 
        3.51859         29.1754         1.64706 
        3.53431         28.9608          1.6279 
        3.55007         28.6771           1.609 
        3.56577         28.4235         1.59047 
        3.58146         28.0844         1.57224 
        3.59719         27.8204         1.55425 
        3.61292         27.5884         1.53654 
        3.62859         27.2736         1.51917 
        3.64429         27.0286         1.50204 
        3.66003         26.8331         1.48511 
        3.67578         26.5079         1.46845 
        3.69146         26.2664          1.4521 
        3.70712         25.9262         1.43603 
        3.72284         25.6914         1.42014 
        3.73853         25.5439         1.40451 
        3.75422         25.2095         1.38911 
        3.76993         25.0566         1.37393 
        3.78564         24.8262         1.35897 
        3.80137         24.6042         1.34421 
        3.81707         24.3261          1.3297 
        3.83279           24.17         1.31539 
        3.84853         23.8101         1.30127 
        3.86424         23.6741         1.28738 
        3.87992         23.4782          1.2737 
        3.89561         23.1727         1.26023 
        3.91134         22.9342         1.24692 
        3.92704         22.7641         1.23381 
        3.94273          22.543          1.2209 
        3.95845         22.3658         1.20816 
        3.97418           22.12         1.19559 
        3.98988         21.8797         1.18321 
        4.00554         21.7421         1.17104 
        4.02125         21.5227           1.159 
        4.03698         21.3041         1.14712 
        4.05268          21.132         1.13542 
        4.06839         20.9099         1.12388 
         4.0841         20.7613          1.1125 
        4.09983         20.4983         1.10126 
        4.11555         20.3224         1.09018 
        4.13124         20.1653         1.07927 
        4.14693         19.9616         1.06851 
        4.16266         19.7345         1.05787 
        4.17839         19.6489         1.04737 
        4.19408         19.4803         1.03705 
        4.20977         19.2697         1.02685 
        4.22551         19.1424         1.01677 
        4.24123         18.9229         1.00682 
        4.25691         18.7327        0.997043 
        4.27259         18.6573        0.987386 
        4.28831         18.4563        0.977836 
        4.30404         18.2833        0.968402 
        4.31974         18.1122        0.959112 
        4.33543         17.9733        0.949947 
        4.35116          17.809        0.940879 
        4.36688         17.7018        0.931931 
        4.38255         17.4897        0.923131 
        4.39825         17.3559        0.914425 
        4.41398         17.1938        0.905812 
         4.4297         17.0528        0.897318 
        4.44541          16.929        0.888933 
        4.46111         16.7405        0.880661 
        4.47683         16.6389        0.872487 
        4.49251         16.4692        0.864431 
        4.50819         16.3504        0.856479 
         4.5239         16.1722        0.848614 
        4.53962         16.0645        0.840836 
        4.55535         15.9184        0.833151 
        4.57106         15.8107        0.825573 
        4.58678         15.6207        0.818085 
         4.6025         15.5524        0.810688 
        4.61821         15.3942        0.803382 
        4.63391         15.2688        0.796175 
         4.6496         15.1239        0.789058 
        4.66532         15.0091        0.782016 
        4.68103          14.891        0.775063 
        4.69673         14.7544        0.768199 
        4.71241         14.6877        0.761424 
        4.72811         14.4931        0.754719 
        4.74384         14.4068        0.748085 
        4.75955           14.32         0.74154 
        4.77525         14.1929        0.735076 
        4.79096         14.0773         0.72868 
        4.80669         13.9474        0.722357 
         4.8224         13.8317        0.716114 
        4.83809         13.7125        0.709952 
        4.85379         13.6058        0.703857 
         4.8695         13.5193        0.697828 
        4.88521          13.388        0.691871 
        4.90093         13.2891        0.685982 
        4.91663         13.1897        0.680166 
        4.93234         13.0684        0.674411 
        4.94807         12.9751        0.668717 
        4.96377         12.8791        0.663099 
        4.97943         12.7787        0.657557 
        4.99514         12.6702        0.652063 
        5.01086         12.5689        0.646627 
        5.02654         12.4643        0.641266 
        5.04227         12.3461        0.635949 
          5.058         12.2613         0.63069 
        5.07371         12.1921        0.625499 
        5.08942         12.1125        0.620366 
        5.10513         12.0224        0.615289 
        5.12084         11.9251        0.610265 
        5.13656         11.7982        0.605298 
        5.15225         11.7137        0.600394 
        5.16796         11.6079        0.595536 
        5.18369         11.5616        0.590726 
         5.1994         11.4298        0.585978 
        5.21509         11.3625        0.581286 
        5.23079         11.2749        0.576639 
        5.24649         11.1827        0.572045 
        5.26217         11.1029        0.567505 
        5.27788         11.0164        0.563006 
        5.29359         10.9268        0.558555 
        5.30933         10.8351        0.554145 
        5.32504         10.7684         0.54979 
        5.34073         10.6941        0.545485 
        5.35646         10.6165        0.541218 
        5.37218         10.5242        0.536995 
        5.38789         10.4464        0.532823 
        5.40357         10.3651          0.5287 
        5.41929         10.2755         0.52461 
        5.43502         10.1854        0.520563 
         5.4507         10.1378        0.516568 
        5.46639         10.0597        0.512614 
        5.48212         9.98136        0.508691 
        5.49786         9.88883        0.504804 
        5.51353         9.85402        0.500977 
        5.52921         9.74578        0.497185 
        5.54495         9.66939        0.493421 
        5.56066         9.62819        0.489699 
        5.57637         9.53548        0.486016 
        5.59207         9.47928        0.482373 
        5.60778         9.40526        0.478766 
        5.62346         9.34363          0.4752 
        5.63916         9.27592        0.471667 
        5.65487         9.19363        0.468168 
         5.6706         9.14569        0.464699 
        5.68633         9.08286        0.461264 
        5.70203         9.02237        0.457871 
        5.71773         8.94213        0.454512 
        5.73344         8.87173        0.451184 
        5.74916          8.8203        0.447886 
        5.76486         8.76617        0.444625 
        5.78054          8.6914        0.441401 
        5.79626         8.60623          0.4382 
          5.812         8.57108        0.435027 
         5.8277         8.50209        0.431895 
        5.84339         8.44563        0.428792 
        5.85911         8.39203        0.425714 
        5.87484         8.30812        0.422667 
        5.89053         8.26896        0.419655 
        5.90623         8.22021         0.41667 
        5.92195         8.14313        0.413709 
        5.93767         8.08543        0.410778 
        5.95336         8.04201         0.40788 
        5.96905         7.98381        0.405011 
        5.98476         7.93582        0.402165 
        6.00048         7.86653        0.399345 
        6.01617           7.825        0.396555 
        6.03185         7.77402        0.393796 
        6.04756         7.71904        0.391055 
        6.06331         7.65342        0.388335 
        6.07903         7.62233        0.385646 
        6.09473         7.56783        0.382984 
        6.11044         7.50482        0.380345 
        6.12616         7.44003        0.377731 
        6.14186         7.40026        0.375144 
        6.15755         7.35321         0.37258 
        6.17326         7.30711        0.370039 
        6.18898         7.26982         0.36752 
        6.20467         7.21832        0.365028 
        6.22036         7.15247         0.36256 
         6.2361         7.11899        0.360107 
         6.2518         7.06575        0.357681 
        6.26748         7.01419        0.355282 
        6.28319         6.97199        0.352898 
        6.29893         6.92273        0.350534 
        6.31463         6.87229        0.348196 
        6.33033         6.83582        0.345879 
        6.34604         6.78554        0.343581 
        6.36177         6.75246        0.341302 
        6.37747         6.70424        0.339047 
