# k  (h/Mpc)    Pcb(k)  (Mpc/h)^3    Pcb_linear(k) (Mpc/h)^3   ShotnoiseSubtracted = true
      0.0200456         1659.29         1677.09 
      0.0350414         1142.23         1122.87 
      0.0492313         788.577         785.886 
      0.0637834         628.303         635.748 
      0.0800726         476.594         482.663 
       0.096163         347.342         340.048 
       0.111083         278.045         271.221 
       0.126058         236.521         237.675 
       0.142273         193.429         194.054 
       0.158546         152.912         150.643 
        0.17375         131.342         128.103 
       0.188953         117.308         115.143 
       0.204907         98.2702         98.9951 
       0.220756         84.6468         82.5961 
        0.23588         74.1883         72.3894 
         0.2514         66.9714         65.5872 
       0.267535          60.387         58.1444 
       0.283568         52.4987         50.6466 
       0.299022         47.5231         45.2549 
       0.314451         44.3606         41.3146 
       0.330372         39.4681         37.4147 
       0.346141         35.6389         33.6123 
       0.361624         32.4343         30.5183 
       0.377134         29.6316         28.0478 
       0.392932         28.2304         25.7543 
       0.408854         25.4242         23.5497 
       0.424564         24.0739         21.6395 
       0.440253         21.9001         20.0217 
       0.455999         19.9198         18.5617 
       0.471626         18.6516          17.209 
        0.48727         17.9025         15.9833 
       0.502856         16.7219         14.9047 
       0.518488         15.3868         13.9263 
       0.534347         14.3567         13.0102 
       0.550082         13.7169         12.1759 
       0.565732         13.0812         11.4253 
       0.581496         12.2433         10.7352 
       0.597222         11.5001         10.1004 
       0.612804         10.8103         9.51882 
       0.628434         10.4771         8.98239 
       0.644267         9.89291         8.48241 
       0.660051         9.32551          8.0214 
       0.675724         8.80923         7.59684 
       0.691403         8.51053         7.20232 
       0.707174         8.07019         6.83329 
       0.722871         7.82244         6.49129 
        0.73838         7.31912         6.17609 
       0.754018         6.93489         5.87923 
       0.769845         6.64023         5.59845 
        0.78569         6.44906         5.33558 
       0.801365         6.14081         5.09202 
       0.817031         5.90277         4.86372 
       0.832809         5.62224         4.64786 
       0.848511         5.44025         4.44596 
       0.864097           5.227         4.25735 
       0.879701         5.08656         4.07941 
       0.895507         4.86703         3.90947 
       0.911279         4.65976         3.74948 
        0.92691         4.51836          3.5997 
       0.942635         4.33304          3.4572 
       0.958396         4.19011         3.32206 
       0.974128         4.06651         3.19433 
       0.989692         3.86265         3.07451 
        1.00528         3.79073         2.96061 
        1.02113         3.65751         2.85066 
        1.03692         3.55999         2.74665 
        1.05264         3.41927         2.64826 
        1.06832         3.32404         2.55481 
        1.08405         3.21894         2.46558 
        1.09979         3.12802         2.38053 
        1.11537         3.03083          2.3003 
        1.13105         2.93293         2.22326 
        1.14679          2.8535         2.14942 
        1.16256         2.76027         2.07876 
        1.17828          2.7129         2.01149 
        1.19395         2.60868         1.94739 
         1.2097         2.52671         1.88574 
        1.22537         2.44745         1.82703 
          1.241         2.38869         1.77098 
        1.25666         2.35652         1.71712 
        1.27241         2.29548         1.66523 
        1.28819         2.19716         1.61537 
        1.30392         2.14418         1.56769 
        1.31957         2.10618         1.52212 
        1.33529          2.0269         1.47818 
        1.35108         1.98716         1.43579 
        1.36674         1.92969         1.39535 
         1.3824          1.9043         1.35649 
        1.39811         1.85004         1.31897 
        1.41389         1.79606         1.28271 
        1.42964         1.75707         1.24786 
        1.44531         1.71949         1.21446 
        1.46101         1.68547         1.18221 
        1.47667         1.64524         1.15121 
        1.49229         1.58867         1.12139 
        1.50793         1.54717         1.09259 
        1.52367         1.51885         1.06461 
        1.53953         1.47856         1.03741 
        1.55526          1.4756         1.01136 
        1.57092         1.43206        0.986313 
        1.58662          1.4136        0.962044 
        1.60235         1.36646        0.938538 
        1.61809         1.33981        0.915797 
        1.63369         1.30793        0.894004 
        1.64941         1.28504        0.872759 
        1.66519         1.26478         0.85212 
        1.68085         1.23163        0.832289 
        1.69652         1.20783        0.813078 
        1.71228         1.18209        0.794358 
        1.72806          1.1626        0.776206 
        1.74368         1.13735        0.758799 
        1.75933          1.1194        0.741885 
        1.77505         1.09725        0.725403 
        1.79081         1.06854        0.709388 
         1.8065         1.05542        0.693919 
        1.82218         1.02705        0.678921 
        1.83797         1.00957         0.66426 
        1.85367        0.993054        0.650108 
        1.86928        0.974225        0.636449 
        1.88497        0.954197        0.623104 
        1.90073        0.943774        0.610089 
        1.91647        0.919705        0.597453 
        1.93218        0.905168        0.585199 
        1.94787        0.891692        0.573302 
        1.96363        0.875993        0.561686 
        1.97935        0.859285        0.550413 
        1.99499         0.84401        0.539509 
        2.01064        0.829965        0.528882 
         2.0264        0.812789        0.518472 
        2.04216        0.803071        0.508344 
        2.05781        0.786553        0.498547 
        2.07353         0.77738        0.488972 
        2.08928        0.763033        0.479624 
        2.10499        0.748406        0.470543 
        2.12065        0.737183        0.461722 
        2.13633        0.726626        0.453117 
        2.15211        0.709798        0.444674 
        2.16785        0.702279        0.436467 
        2.18349        0.688777        0.428517 
        2.19916        0.681318        0.420746 
        2.21489        0.671841        0.413139 
        2.23063        0.656025        0.405714 
         2.2463        0.645798        0.398503 
        2.26194        0.639051        0.391483 
        2.27765        0.626188        0.384594 
        2.29341        0.618643        0.377852 
        2.30914        0.606605        0.371283 
        2.32486        0.601094        0.364873 
        2.34061        0.590469        0.358601 
        2.35635        0.580973        0.352481 
        2.37203        0.573244        0.346524 
        2.38768        0.564862        0.340715 
        2.40339        0.557593        0.335016 
        2.41914        0.550531        0.329434 
        2.43483         0.54257        0.323997 
         2.4505        0.533013         0.31869 
        2.46622        0.526326        0.313483 
        2.48195        0.519443        0.308391 
        2.49759         0.51037        0.303437 
        2.51328        0.502374        0.298578 
        2.52906        0.498155        0.293794 
        2.54479        0.489297        0.289132 
        2.56049        0.484139        0.284578 
        2.57618        0.477656        0.280126 
        2.59189        0.471098        0.275761 
        2.60758         0.46434        0.271494 
        2.62325        0.458752        0.267323 
        2.63898        0.453351        0.263223 
        2.65468        0.443995        0.259217 
        2.67044        0.441492        0.255276 
        2.68618        0.436227        0.251426 
        2.70184        0.430159        0.247669 
        2.71755        0.424589        0.243979 
        2.73329        0.417925        0.240358 
        2.74897        0.412972        0.236821 
        2.76462        0.407502        0.233362 
        2.78034        0.402935        0.229958 
        2.79607        0.397859        0.226617 
        2.81179        0.392836        0.223345 
        2.82749        0.387583        0.220141 
        2.84321        0.381731        0.216996 
        2.85893        0.377823        0.213912 
        2.87462        0.373541        0.210893 
        2.89033        0.370282        0.207928 
        2.90605        0.366065        0.205018 
        2.92176        0.361663        0.202164 
        2.93747        0.357186        0.199365 
        2.95318        0.352527        0.196618 
        2.96891        0.351143        0.193921 
        2.98456        0.343556        0.191286 
        3.00023        0.341119        0.188695 
        3.01596          0.3371        0.186144 
        3.03164        0.333556        0.183647 
        3.04738        0.329786        0.181188 
         3.0631        0.325013        0.178774 
        3.07883        0.322069        0.176404 
        3.09456        0.318743        0.174076 
        3.11026        0.315545        0.171793 
        3.12596        0.312122        0.169552 
        3.14163        0.310337        0.167354 
        3.15734        0.305783        0.165191 
        3.17308        0.302384         0.16306 
        3.18879        0.299921        0.160972 
        3.20447        0.296869        0.158923 
         3.2202        0.291834        0.156903 
         3.2359        0.289616        0.154921 
        3.25157        0.285789        0.152978 
        3.26729        0.284118        0.151062 
        3.28304        0.281679        0.149174 
        3.29877        0.278889        0.147321 
        3.31446        0.276928        0.145503 
        3.33014        0.272537        0.143717 
        3.34585        0.270716        0.141958 
        3.36158        0.267762        0.140226 
        3.37727        0.266059        0.138527 
        3.39294        0.263173        0.136858 
        3.40867        0.260291         0.13521 
        3.42439        0.258551         0.13359 
        3.44008         0.25572        0.131999 
        3.45578        0.253617        0.130432 
        3.47153        0.251715        0.128888 
        3.48724        0.248787         0.12737 
        3.50292        0.246744        0.125881 
        3.51859        0.245353        0.124415 
        3.53431        0.242273        0.122968 
        3.55007        0.240292        0.121541 
        3.56577        0.238196        0.120141 
        3.58146        0.236386        0.118764 
        3.59719        0.234451        0.117405 
        3.61292        0.232187        0.116067 
        3.62859        0.230436        0.114755 
        3.64429        0.228165        0.113461 
        3.66003        0.226254        0.112182 
        3.67578        0.225054        0.110923 
        3.69146        0.222981        0.109689 
        3.70712         0.22158        0.108475 
        3.72284        0.219739        0.107274 
        3.73853        0.217644        0.106094 
        3.75422        0.215679        0.104931 
        3.76993        0.214309        0.103784 
        3.78564        0.211933        0.102654 
        3.80137        0.210516        0.101539 
        3.81707        0.209048        0.100443 
        3.83279        0.207406       0.0993622 
        3.84853         0.20539       0.0982952 
        3.86424        0.204446       0.0972457 
        3.87992         0.20313        0.096213 
        3.89561        0.201353        0.095195 
        3.91134         0.19931       0.0941895 
        3.92704        0.197999       0.0931996 
        3.94273        0.196884       0.0922246 
        3.95845        0.195049       0.0912617 
        3.97418        0.193935       0.0903122 
        3.98988         0.19219       0.0893773 
        4.00554        0.189884        0.088458 
        4.02125        0.188756       0.0875489 
        4.03698        0.186589        0.086651 
        4.05268        0.184499       0.0857675 
        4.06839        0.183078       0.0848956 
         4.0841        0.180576        0.084036 
        4.09983        0.179679       0.0831869 
        4.11555        0.177093       0.0823497 
        4.13124        0.176049       0.0815263 
        4.14693        0.174628       0.0807132 
        4.16266        0.171873       0.0799093 
        4.17839        0.170288       0.0791166 
        4.19408        0.169327       0.0783364 
        4.20977        0.167564       0.0775662 
        4.22551        0.166223       0.0768044 
        4.24123        0.165045       0.0760535 
        4.25691        0.163421       0.0753146 
        4.27259        0.161757       0.0745852 
        4.28831        0.160891       0.0738638 
        4.30404        0.159593       0.0731512 
        4.31974        0.158501       0.0724494 
        4.33543        0.157117       0.0717571 
        4.35116        0.156548       0.0710721 
        4.36688        0.155352       0.0703962 
        4.38255         0.15412       0.0697315 
        4.39825        0.153079       0.0690738 
        4.41398        0.152154       0.0684232 
         4.4297        0.151351       0.0677816 
        4.44541        0.150554       0.0671483 
        4.46111        0.149643       0.0665234 
        4.47683        0.148766       0.0659059 
        4.49251        0.148061       0.0652974 
        4.50819        0.147858       0.0646967 
         4.5239         0.14693       0.0641026 
        4.53962        0.146091       0.0635151 
        4.55535        0.145523       0.0629346 
        4.57106        0.145207       0.0623621 
        4.58678        0.144196       0.0617965 
         4.6025        0.144114       0.0612378 
        4.61821        0.143637       0.0606859 
        4.63391        0.143896       0.0601415 
         4.6496        0.142661       0.0596039 
        4.66532        0.142496        0.059072 
        4.68103        0.142002       0.0585467 
        4.69673        0.141969       0.0580282 
        4.71241        0.141691       0.0575165 
        4.72811        0.141812         0.05701 
        4.74384        0.141198       0.0565088 
        4.75955        0.141361       0.0560145 
        4.77525        0.141266       0.0555262 
        4.79096        0.141064        0.055043 
        4.80669        0.140934       0.0545654 
         4.8224        0.141024       0.0540939 
        4.83809        0.140953       0.0536283 
        4.85379        0.141562       0.0531679 
         4.8695        0.142028       0.0527125 
        4.88521        0.141772       0.0522625 
        4.90093        0.141844       0.0518177 
        4.91663        0.142048       0.0513784 
        4.93234        0.142132       0.0509436 
        4.94807        0.142565       0.0505136 
        4.96377        0.143246       0.0500892 
        4.97943        0.143407       0.0496705 
        4.99514        0.143712       0.0492555 
        5.01086        0.144788       0.0488449 
        5.02654        0.145408         0.04844 
        5.04227        0.145407       0.0480383 
          5.058        0.146275        0.047641 
        5.07371        0.146801        0.047249 
        5.08942        0.147793       0.0468612 
        5.10513        0.148492       0.0464777 
        5.12084         0.14866       0.0460982 
        5.13656        0.150096        0.045723 
        5.15225        0.150745       0.0453526 
        5.16796        0.151811       0.0449856 
        5.18369        0.152499       0.0446223 
         5.1994        0.153601       0.0442636 
        5.21509        0.154215       0.0439092 
        5.23079        0.155102       0.0435581 
        5.24649        0.156947       0.0432112 
        5.26217        0.157273       0.0428682 
        5.27788        0.158791       0.0425284 
        5.29359        0.160081       0.0421921 
        5.30933        0.161296        0.041859 
        5.32504         0.16273         0.04153 
        5.34073        0.164547       0.0412049 
        5.35646        0.165785       0.0408825 
        5.37218        0.166635       0.0405635 
        5.38789        0.167518       0.0402484 
        5.40357        0.169842       0.0399369 
        5.41929        0.171418        0.039628 
        5.43502        0.173088       0.0393223 
         5.4507        0.174964       0.0390205 
        5.46639        0.176208       0.0387218 
        5.48212        0.177251       0.0384255 
        5.49786        0.179749       0.0381319 
        5.51353        0.181847       0.0378428 
        5.52921        0.182789       0.0375564 
        5.54495        0.185545        0.037272 
        5.56066        0.187209       0.0369909 
        5.57637        0.189135       0.0367127 
        5.59207        0.191476       0.0364375 
        5.60778        0.193272        0.036165 
        5.62346         0.19552       0.0358957 
        5.63916        0.197375       0.0356288 
        5.65487        0.199178       0.0353645 
         5.6706         0.20169       0.0351025 
        5.68633        0.204793        0.034843 
        5.70203        0.206959       0.0345867 
        5.71773        0.208164       0.0343329 
        5.73344        0.211192       0.0340815 
        5.74916        0.214364       0.0338324 
        5.76486        0.216571       0.0335861 
        5.78054        0.219108       0.0333426 
        5.79626        0.220698       0.0331008 
          5.812        0.224141       0.0328611 
         5.8277        0.226638       0.0326245 
        5.84339           0.229       0.0323901 
        5.85911        0.232256       0.0321576 
        5.87484        0.235155       0.0319274 
        5.89053        0.238415       0.0316999 
        5.90623        0.240356       0.0314744 
        5.92195        0.243204       0.0312508 
        5.93767        0.245964       0.0310294 
        5.95336        0.248353       0.0308105 
        5.96905        0.251479       0.0305937 
        5.98476         0.25385       0.0303787 
        6.00048        0.256769       0.0301657 
        6.01617        0.261581        0.029955 
        6.03185        0.263017       0.0297465 
        6.04756        0.265449       0.0295395 
        6.06331        0.268226        0.029334 
        6.07903        0.272489       0.0291309 
        6.09473        0.275833       0.0289298 
        6.11044        0.278719       0.0287305 
        6.12616        0.281033        0.028533 
        6.14186        0.284141       0.0283376 
        6.15755        0.289674        0.028144 
        6.17326        0.291079        0.027952 
        6.18898         0.29329       0.0277617 
        6.20467        0.297052       0.0275735 
        6.22036         0.29897        0.027387 
         6.2361        0.302933       0.0272018 
         6.2518        0.307755       0.0270185 
        6.26748         0.30888       0.0268373 
        6.28319        0.313538       0.0266572 
        6.29893        0.315862       0.0264787 
        6.31463        0.319682        0.026302 
        6.33033        0.323146        0.026127 
        6.34604        0.325795       0.0259534 
        6.36177        0.328285       0.0257813 
        6.37747        0.331863        0.025611 
