# k  (h/Mpc)    Pcb(k)  (Mpc/h)^3    Pcb_linear(k) (Mpc/h)^3   ShotnoiseSubtracted = true
      0.0200456           27460         27901.1 
      0.0350414         19439.1         18680.7 
      0.0492313         12821.2         13074.5 
      0.0637834         10084.1         10576.7 
      0.0800726          7612.3         8029.88 
       0.096163         6050.49         5657.25 
       0.111083         4896.71          4512.2 
       0.126058          4013.3         3954.11 
       0.142273         3455.86          3228.4 
       0.158546         2794.84          2506.2 
        0.17375         2509.49          2131.2 
       0.188953         2384.18         1915.59 
       0.204907         2025.74         1646.94 
       0.220756         1829.41         1374.12 
        0.23588            1629         1204.31 
         0.2514         1472.12         1091.15 
       0.267535         1410.19         967.327 
       0.283568         1256.99         842.589 
       0.299022         1188.18         752.889 
       0.314451         1242.42         687.335 
       0.330372         1098.01         622.455 
       0.346141         1005.08         559.195 
       0.361624         962.022         507.722 
       0.377134          925.24         466.621 
       0.392932         870.405         428.464 
       0.408854         839.144         391.788 
       0.424564         819.695         360.008 
       0.440253          760.23         333.093 
       0.455999         723.609         308.804 
       0.471626         735.761         286.299 
        0.48727         690.483         265.908 
       0.502856         670.951         247.964 
       0.518488         642.719         231.686 
       0.534347         623.285         216.446 
       0.550082         593.145         202.566 
       0.565732          580.68         190.079 
       0.581496          567.15         178.597 
       0.597222         556.234         168.036 
       0.612804          540.45         158.361 
       0.628434          517.77         149.437 
       0.644267         503.187         141.119 
       0.660051         497.669         133.449 
       0.675724         485.786         126.386 
       0.691403         469.384         119.822 
       0.707174         456.191         113.683 
       0.722871         455.601         107.993 
        0.73838         439.371         102.749 
       0.754018         429.536         97.8105 
       0.769845         424.607         93.1393 
        0.78569          414.39         88.7661 
       0.801365         400.476         84.7141 
       0.817031         396.023         80.9158 
       0.832809         390.119         77.3246 
       0.848511         383.757         73.9658 
       0.864097         372.753         70.8278 
       0.879701         374.392         67.8676 
       0.895507         359.127         65.0403 
       0.911279         353.886         62.3787 
        0.92691         349.538         59.8868 
       0.942635         343.632         57.5162 
       0.958396         333.194         55.2679 
       0.974128         327.542         53.1428 
       0.989692         320.745         51.1495 
        1.00528         314.348         49.2546 
        1.02113         310.782         47.4253 
        1.03692         305.654         45.6949 
        1.05264         301.872         44.0581 
        1.06832          294.18         42.5034 
        1.08405         292.883          41.019 
        1.09979         286.087          39.604 
        1.11537         279.211         38.2692 
        1.13105         275.773         36.9875 
        1.14679         270.931         35.7591 
        1.16256         269.041         34.5836 
        1.17828         265.177         33.4644 
        1.19395         258.377          32.398 
         1.2097         255.632         31.3724 
        1.22537         252.521         30.3957 
          1.241         245.992         29.4631 
        1.25666         244.026         28.5671 
        1.27241         241.189         27.7038 
        1.28819         235.039         26.8744 
        1.30392         234.747          26.081 
        1.31957         228.729          25.323 
        1.33529         224.226          24.592 
        1.35108         224.257         23.8867 
        1.36674         218.926         23.2139 
         1.3824          214.92         22.5674 
        1.39811         211.924         21.9431 
        1.41389         208.763         21.3399 
        1.42964         205.014         20.7601 
        1.44531          203.53         20.2046 
        1.46101          199.23         19.6679 
        1.47667         196.253         19.1522 
        1.49229         194.793         18.6562 
        1.50793         190.795          18.177 
        1.52367         187.634         17.7115 
        1.53953         185.479         17.2589 
        1.55526         181.953         16.8257 
        1.57092         181.232         16.4089 
        1.58662         177.514         16.0052 
        1.60235         174.868         15.6141 
        1.61809         172.928         15.2358 
        1.63369         169.506         14.8732 
        1.64941         167.806         14.5198 
        1.66519         164.727         14.1764 
        1.68085         162.082         13.8465 
        1.69652         160.788         13.5269 
        1.71228          158.44         13.2154 
        1.72806         156.522         12.9135 
        1.74368         154.066         12.6239 
        1.75933         152.626         12.3425 
        1.77505         150.435         12.0683 
        1.79081         147.778         11.8018 
         1.8065         146.716         11.5445 
        1.82218         142.945          11.295 
        1.83797         141.927          11.051 
        1.85367          140.02         10.8156 
        1.86928         138.006         10.5884 
        1.88497         137.457         10.3663 
        1.90073          135.22         10.1498 
        1.91647         133.106          9.9396 
        1.93218         130.536         9.73573 
        1.94787         128.724         9.53781 
        1.96363         128.166         9.34456 
        1.97935         126.744         9.15701 
        1.99499         124.559         8.97561 
        2.01064         122.763         8.79881 
         2.0264         121.879         8.62562 
        2.04216          119.43         8.45712 
        2.05781         117.918         8.29414 
        2.07353         116.785         8.13483 
        2.08928         114.655         7.97932 
        2.10499         114.111         7.82825 
        2.12065         112.828          7.6815 
        2.13633         111.089         7.53834 
        2.15211         109.549         7.39787 
        2.16785         108.335         7.26134 
        2.18349         107.018         7.12907 
        2.19916         106.046         6.99979 
        2.21489          103.82         6.87325 
        2.23063         102.518         6.74971 
         2.2463         101.196         6.62974 
        2.26194         100.357         6.51295 
        2.27765          98.903         6.39835 
        2.29341         97.5913         6.28618 
        2.30914         96.6059          6.1769 
        2.32486          95.668         6.07025 
        2.34061         94.2391         5.96591 
        2.35635         93.2237          5.8641 
        2.37203         91.8061         5.76498 
        2.38768         90.6695         5.66834 
        2.40339         89.8124         5.57354 
        2.41914         88.5588         5.48067 
        2.43483         87.6231         5.39021 
         2.4505         86.6713         5.30193 
        2.46622         85.4128          5.2153 
        2.48195         84.2092         5.13058 
        2.49759         83.1556         5.04817 
        2.51328          82.547         4.96734 
        2.52906         81.5519         4.88775 
        2.54479         80.6072         4.81017 
        2.56049         79.3921         4.73442 
        2.57618         78.6366         4.66034 
        2.59189         77.7624         4.58772 
        2.60758          76.413         4.51675 
        2.62325         75.7472         4.44734 
        2.63898           74.93         4.37914 
        2.65468         74.2723          4.3125 
        2.67044         73.1485         4.24694 
        2.68618         72.1528         4.18288 
        2.70184         71.4986         4.12038 
        2.71755         70.8376         4.05899 
        2.73329         69.7136         3.99874 
        2.74897         69.1331          3.9399 
        2.76462         68.4236         3.88236 
        2.78034           67.59         3.82572 
        2.79607         66.8624         3.77014 
        2.81179         65.9264         3.71571 
        2.82749         65.5143         3.66241 
        2.84321         64.3705         3.61008 
        2.85893         63.7265         3.55877 
        2.87462         63.1509         3.50854 
        2.89033         62.3984         3.45923 
        2.90605         61.6295         3.41081 
        2.92176         61.0893         3.36333 
        2.93747         60.3044         3.31676 
        2.95318         59.6447         3.27106 
        2.96891         59.2068         3.22619 
        2.98456         58.2678         3.18235 
        3.00023         57.6272         3.13926 
        3.01596         57.2309         3.09681 
        3.03164         56.4358         3.05527 
        3.04738         56.0081         3.01435 
         3.0631         55.2836          2.9742 
        3.07883         54.6924         2.93476 
        3.09456         53.9062         2.89603 
        3.11026         53.8083         2.85806 
        3.12596         52.9427         2.82077 
        3.14163         52.4749         2.78421 
        3.15734         51.6803         2.74822 
        3.17308         51.3127         2.71276 
        3.18879         50.7627         2.67802 
        3.20447         50.3618         2.64394 
         3.2202         49.5502         2.61033 
         3.2359          49.035         2.57736 
        3.25157         48.6823         2.54503 
        3.26729         48.1964         2.51316 
        3.28304         47.7566         2.48176 
        3.29877         47.2649         2.45093 
        3.31446         46.5953         2.42068 
        3.33014           46.19         2.39097 
        3.34585         45.6543         2.36171 
        3.36158         45.3772         2.33288 
        3.37727         44.9525         2.30462 
        3.39294           44.41         2.27686 
        3.40867          43.953         2.24944 
        3.42439         43.4698         2.22248 
        3.44008         43.1421         2.19601 
        3.45578         42.4935         2.16995 
        3.47153         42.1272         2.14425 
        3.48724         41.6474         2.11901 
        3.50292         41.3897         2.09423 
        3.51859          41.007         2.06985 
        3.53431         40.4218         2.04578 
        3.55007         40.1207         2.02203 
        3.56577         39.7508         1.99874 
        3.58146         39.2866         1.97583 
        3.59719          38.966         1.95322 
        3.61292         38.5503         1.93097 
        3.62859         38.2711         1.90914 
        3.64429         37.9247          1.8876 
        3.66003         37.4555         1.86633 
        3.67578         37.0661         1.84539 
        3.69146         36.6771         1.82485 
        3.70712         36.4385         1.80465 
        3.72284         36.1121         1.78468 
        3.73853         35.8059         1.76504 
        3.75422         35.3898         1.74569 
        3.76993         35.1275         1.72661 
        3.78564         34.7821         1.70782 
        3.80137         34.4254         1.68927 
        3.81707         34.0066         1.67104 
        3.83279         33.7766         1.65305 
        3.84853         33.5124          1.6353 
        3.86424         33.1232         1.61784 
        3.87992         32.7657         1.60066 
        3.89561         32.5038         1.58372 
        3.91134         32.1908           1.567 
        3.92704          31.896         1.55053 
        3.94273         31.6848         1.53431 
        3.95845         31.4075         1.51829 
        3.97418         31.0402         1.50249 
        3.98988         30.7723         1.48694 
        4.00554         30.5037         1.47164 
        4.02125         30.2454         1.45652 
        4.03698         29.9353         1.44158 
        4.05268         29.6241         1.42688 
        4.06839         29.4274         1.41238 
         4.0841         29.1446         1.39808 
        4.09983         28.8701         1.38395 
        4.11555         28.6661         1.37002 
        4.13124         28.3554         1.35632 
        4.14693         28.1607          1.3428 
        4.16266         27.9157         1.32942 
        4.17839         27.5333         1.31623 
        4.19408         27.3686         1.30325 
        4.20977         27.1002         1.29044 
        4.22551         26.8906         1.27777 
        4.24123         26.6051         1.26527 
        4.25691         26.4619         1.25298 
        4.27259         26.1215         1.24085 
        4.28831          25.966         1.22884 
        4.30404         25.6818         1.21699 
        4.31974         25.5118         1.20531 
        4.33543         25.3002          1.1938 
        4.35116           25.08          1.1824 
        4.36688         24.7815         1.17115 
        4.38255         24.6954          1.1601 
        4.39825         24.4566         1.14916 
        4.41398         24.2861         1.13833 
         4.4297         24.0119         1.12766 
        4.44541         23.8104         1.11712 
        4.46111         23.5381         1.10672 
        4.47683         23.4252         1.09645 
        4.49251         23.2388         1.08633 
        4.50819         23.0334         1.07633 
         4.5239         22.7406         1.06645 
        4.53962         22.6558         1.05668 
        4.55535         22.4464         1.04702 
        4.57106         22.2876         1.03749 
        4.58678         22.0291         1.02809 
         4.6025         21.8387         1.01879 
        4.61821         21.7255         1.00961 
        4.63391           21.56         1.00055 
         4.6496         21.3227        0.991607 
        4.66532          21.154        0.982758 
        4.68103          20.915        0.974019 
        4.69673         20.7951        0.965393 
        4.71241         20.6508        0.956879 
        4.72811         20.4967        0.948453 
        4.74384         20.3381        0.940116 
        4.75955         20.1369        0.931891 
        4.77525         19.9794        0.923768 
        4.79096         19.8234         0.91573 
        4.80669         19.6473        0.907784 
         4.8224         19.4666        0.899939 
        4.83809         19.2951        0.892194 
        4.85379         19.2091        0.884535 
         4.8695         19.0037        0.876958 
        4.88521         18.8894        0.869472 
        4.90093         18.6882        0.862072 
        4.91663         18.5951        0.854763 
        4.93234         18.3982         0.84753 
        4.94807          18.256        0.840375 
        4.96377         18.0988        0.833315 
        4.97943         17.9454         0.82635 
        4.99514         17.8637        0.819446 
        5.01086         17.7128        0.812614 
        5.02654         17.5389        0.805877 
        5.04227         17.3857        0.799196 
          5.058         17.2905        0.792586 
        5.07371         17.1259        0.786063 
        5.08942         17.0167        0.779612 
        5.10513         16.8857        0.773232 
        5.12084         16.7489        0.766919 
        5.13656         16.5873        0.760677 
        5.15225         16.4848        0.754514 
        5.16796         16.3471        0.748408 
        5.18369         16.2342        0.742364 
         5.1994         16.0831        0.736397 
        5.21509         15.9931          0.7305 
        5.23079         15.8592         0.72466 
        5.24649          15.729        0.718888 
        5.26217         15.6262        0.713181 
        5.27788         15.4899        0.707528 
        5.29359          15.364        0.701935 
        5.30933         15.2644        0.696393 
        5.32504         15.1519        0.690919 
        5.34073         15.0267         0.68551 
        5.35646         14.8952        0.680147 
        5.37218         14.7825         0.67484 
        5.38789         14.6939        0.669597 
        5.40357         14.5927        0.664415 
        5.41929         14.4672        0.659276 
        5.43502         14.3682         0.65419 
         5.4507         14.2515         0.64917 
        5.46639         14.1599          0.6442 
        5.48212         14.0305        0.639271 
        5.49786          13.938        0.634386 
        5.51353         13.8228        0.629576 
        5.52921         13.7198        0.624811 
        5.54495          13.632         0.62008 
        5.56066         13.5379        0.615403 
        5.57637         13.4532        0.610775 
        5.59207         13.3511        0.606197 
        5.60778         13.2139        0.601664 
        5.62346         13.1623        0.597183 
        5.63916         13.0492        0.592743 
        5.65487         12.9646        0.588345 
         5.6706         12.8437        0.583987 
        5.68633         12.7466         0.57967 
        5.70203         12.6834        0.575405 
        5.71773         12.5968        0.571184 
        5.73344         12.4869        0.567002 
        5.74916         12.4068        0.562857 
        5.76486         12.2811        0.558759 
        5.78054          12.228        0.554708 
        5.79626         12.1388        0.550685 
          5.812          12.034        0.546698 
         5.8277          11.947        0.542761 
        5.84339         11.8993        0.538862 
        5.85911         11.7993        0.534994 
        5.87484         11.6996        0.531164 
        5.89053         11.6058        0.527379 
        5.90623         11.5502        0.523628 
        5.92195         11.4444        0.519907 
        5.93767         11.3742        0.516224 
        5.95336         11.2993        0.512582 
        5.96905         11.2233        0.508976 
        5.98476         11.1523        0.505399 
        6.00048         11.0587        0.501856 
        6.01617         10.9797         0.49835 
        6.03185         10.8929        0.494882 
        6.04756         10.8463        0.491438 
        6.06331         10.7439        0.488019 
        6.07903         10.6698         0.48464 
        6.09473         10.5978        0.481295 
        6.11044         10.5493        0.477978 
        6.12616         10.4655        0.474693 
        6.14186         10.4046        0.471442 
        6.15755         10.3243        0.468221 
        6.17326         10.2368        0.465027 
        6.18898         10.1695        0.461861 
        6.20467         10.1117         0.45873 
        6.22036         10.0402        0.455628 
         6.2361         9.95839        0.452546 
         6.2518          9.8953        0.449497 
        6.26748         9.84148        0.446482 
        6.28319         9.75889        0.443486 
        6.29893         9.69943        0.440515 
        6.31463         9.61646        0.437576 
        6.33033         9.55497        0.434665 
        6.34604         9.51644        0.431777 
        6.36177         9.42964        0.428913 
        6.37747         9.38975         0.42608 
