# k  (h/Mpc)    Pcb(k)  (Mpc/h)^3    Pcb_linear(k) (Mpc/h)^3   ShotnoiseSubtracted = true
      0.0200456         2466.36         2492.99 
      0.0350414         1701.47         1669.14 
      0.0492313         1171.46         1168.22 
      0.0637834         931.714         945.036 
      0.0800726          706.57         717.476 
       0.096163         518.188          505.48 
       0.111083          415.41         403.168 
       0.126058         351.784         353.303 
       0.142273         288.164          288.46 
       0.158546         228.665         223.931 
        0.17375         196.803         190.425 
       0.188953         176.162         171.159 
       0.204907           147.1         147.156 
       0.220756         127.443         122.779 
        0.23588         111.811         107.606 
         0.2514         100.739          97.495 
       0.267535         91.5623         86.4314 
       0.283568         79.4854          75.286 
       0.299022         72.4651         67.2712 
       0.314451          67.995         61.4139 
       0.330372         60.1873         55.6168 
       0.346141         54.4994         49.9645 
       0.361624         49.8219         45.3654 
       0.377134         45.4664         41.6929 
       0.392932         43.5137         38.2836 
       0.408854         39.4553         35.0065 
       0.424564          37.421          32.167 
       0.440253         34.0193         29.7621 
       0.455999         30.9044         27.5918 
       0.471626         29.1029          25.581 
        0.48727          28.042         23.7591 
       0.502856         26.1216         22.1558 
       0.518488         24.2293         20.7013 
       0.534347         22.6732         19.3397 
       0.550082         21.6965         18.0995 
       0.565732         20.7397         16.9837 
       0.581496         19.3867         15.9578 
       0.597222         18.2662         15.0142 
       0.612804         17.2446         14.1497 
       0.628434         16.8314         13.3523 
       0.644267         15.8692         12.6091 
       0.660051         14.9856         11.9238 
       0.675724         14.2129         11.2927 
       0.691403         13.8198         10.7062 
       0.707174         13.1448         10.1577 
       0.722871         12.7029         9.64928 
        0.73838         11.9597         9.18073 
       0.754018         11.2935         8.73944 
       0.769845         10.9377         8.32207 
        0.78569         10.5901         7.93132 
       0.801365         10.1163         7.56927 
       0.817031         9.70876         7.22989 
       0.832809         9.33474         6.90902 
       0.848511         9.01995          6.6089 
       0.864097         8.68114         6.32852 
       0.879701         8.48874         6.06402 
       0.895507         8.14529          5.8114 
       0.911279         7.77677         5.57358 
        0.92691         7.57439         5.35093 
       0.942635         7.32431         5.13912 
       0.958396         7.06849         4.93823 
       0.974128         6.87118         4.74835 
       0.989692         6.52346         4.57024 
        1.00528         6.44996         4.40094 
        1.02113          6.2107         4.23749 
        1.03692         6.05168         4.08288 
        1.05264         5.86495         3.93663 
        1.06832         5.71316         3.79771 
        1.08405         5.54283         3.66508 
        1.09979         5.38257         3.53865 
        1.11537         5.22895         3.41939 
        1.13105         5.09936         3.30486 
        1.14679         4.97356          3.1951 
        1.16256         4.83083         3.09007 
        1.17828         4.72651         2.99007 
        1.19395         4.58435         2.89479 
         1.2097         4.43222         2.80315 
        1.22537         4.32559         2.71588 
          1.241         4.20177         2.63255 
        1.25666         4.17286         2.55249 
        1.27241         4.07007         2.47535 
        1.28819         3.89492         2.40125 
        1.30392         3.83339         2.33036 
        1.31957         3.74327         2.26263 
        1.33529         3.65575         2.19731 
        1.35108         3.57354          2.1343 
        1.36674         3.47062         2.07418 
         1.3824         3.42779         2.01641 
        1.39811         3.34621         1.96064 
        1.41389         3.25223         1.90674 
        1.42964         3.19593         1.85493 
        1.44531         3.12361         1.80529 
        1.46101         3.08732         1.75735 
        1.47667         3.00803         1.71127 
        1.49229         2.90902         1.66695 
        1.50793         2.85607         1.62413 
        1.52367          2.7952         1.58253 
        1.53953         2.74089          1.5421 
        1.55526         2.72496         1.50339 
        1.57092         2.64878         1.46615 
        1.58662         2.60545         1.43007 
        1.60235         2.55172         1.39513 
        1.61809         2.50232         1.36133 
        1.63369         2.45096         1.32893 
        1.64941         2.40396         1.29735 
        1.66519          2.3739         1.26667 
        1.68085         2.31892         1.23719 
        1.69652         2.28123         1.20864 
        1.71228         2.24935         1.18081 
        1.72806         2.20661         1.15383 
        1.74368         2.16707         1.12795 
        1.75933         2.13038         1.10281 
        1.77505         2.08605         1.07831 
        1.79081         2.05422          1.0545 
         1.8065         2.02683         1.03151 
        1.82218          1.9815         1.00921 
        1.83797         1.94354        0.987419 
        1.85367         1.91672        0.966382 
        1.86928         1.89201        0.946078 
        1.88497         1.85001        0.926241 
        1.90073         1.82996        0.906894 
        1.91647         1.79696        0.888111 
        1.93218         1.76745        0.869895 
        1.94787         1.74802        0.852211 
        1.96363         1.71935        0.834944 
        1.97935         1.69158        0.818186 
        1.99499         1.66603        0.801978 
        2.01064         1.64354        0.786181 
         2.0264          1.6135        0.770705 
        2.04216         1.59137         0.75565 
        2.05781         1.56921        0.741088 
        2.07353          1.5515        0.726854 
        2.08928         1.52453        0.712958 
        2.10499         1.49435         0.69946 
        2.12065         1.49038        0.686348 
        2.13633         1.46279        0.673557 
        2.15211         1.43405        0.661006 
        2.16785         1.41956        0.648806 
        2.18349         1.39738        0.636988 
        2.19916         1.38613        0.625436 
        2.21489          1.3704         0.61413 
        2.23063           1.343        0.603092 
         2.2463         1.32081        0.592373 
        2.26194         1.30864        0.581937 
        2.27765         1.27704        0.571698 
        2.29341         1.26781        0.561675 
        2.30914          1.2521        0.551911 
        2.32486         1.24473        0.542381 
        2.34061          1.2245        0.533059 
        2.35635         1.20807        0.523962 
        2.37203         1.19903        0.515106 
        2.38768         1.18112        0.506471 
        2.40339          1.1605           0.498 
        2.41914         1.15008        0.489702 
        2.43483         1.13462         0.48162 
         2.4505          1.1209        0.473731 
        2.46622         1.10635        0.465991 
        2.48195          1.0954        0.458421 
        2.49759         1.07919        0.451058 
        2.51328         1.07006        0.443835 
        2.52906         1.05746        0.436724 
        2.54479         1.04227        0.429793 
        2.56049         1.03332        0.423024 
        2.57618         1.01944        0.416405 
        2.59189         1.01035        0.409917 
        2.60758        0.998386        0.403575 
        2.62325        0.983303        0.397374 
        2.63898         0.97138         0.39128 
        2.65468        0.958461        0.385325 
        2.67044        0.954811        0.379467 
        2.68618        0.943711        0.373743 
        2.70184         0.93522        0.368159 
        2.71755         0.92381        0.362674 
        2.73329        0.908922        0.357291 
        2.74897        0.902755        0.352033 
        2.76462        0.893148        0.346892 
        2.78034        0.886793        0.341831 
        2.79607        0.873964        0.336865 
        2.81179        0.864674        0.332002 
        2.82749        0.855423        0.327239 
        2.84321        0.846617        0.322563 
        2.85893        0.838045        0.317979 
        2.87462        0.832344        0.313491 
        2.89033        0.823205        0.309085 
        2.90605        0.814301        0.304758 
        2.92176        0.807833        0.300516 
        2.93747        0.798378        0.296355 
        2.95318        0.789872        0.292272 
        2.96891        0.785499        0.288263 
        2.98456        0.776139        0.284346 
        3.00023        0.767501        0.280495 
        3.01596        0.758183        0.276703 
        3.03164        0.753584        0.272991 
        3.04738        0.746691        0.269335 
         3.0631        0.739825        0.265747 
        3.07883        0.731803        0.262223 
        3.09456        0.724613        0.258763 
        3.11026        0.721521         0.25537 
        3.12596        0.711756        0.252038 
        3.14163        0.707514        0.248772 
        3.15734        0.698369        0.245555 
        3.17308         0.69518        0.242387 
        3.18879        0.689067        0.239283 
        3.20447        0.681023        0.236238 
         3.2202        0.676887        0.233235 
         3.2359        0.670266        0.230289 
        3.25157        0.662466        0.227401 
        3.26729        0.659297        0.224552 
        3.28304         0.65401        0.221747 
        3.29877        0.646656        0.218992 
        3.31446        0.643426         0.21629 
        3.33014        0.634787        0.213635 
        3.34585        0.631387         0.21102 
        3.36158        0.626725        0.208445 
        3.37727        0.623916         0.20592 
        3.39294        0.615042        0.203439 
        3.40867        0.613221        0.200989 
        3.42439        0.607184         0.19858 
        3.44008        0.603936        0.196216 
        3.45578        0.597621        0.193887 
        3.47153        0.592746        0.191591 
        3.48724        0.589113        0.189335 
        3.50292         0.58225        0.187121 
        3.51859        0.581693        0.184943 
        3.53431        0.574246        0.182792 
        3.55007        0.571885         0.18067 
        3.56577        0.567042        0.178589 
        3.58146        0.564029        0.176542 
        3.59719        0.559095        0.174522 
        3.61292        0.555332        0.172533 
        3.62859        0.551155        0.170583 
        3.64429        0.546591        0.168659 
        3.66003        0.542086        0.166758 
        3.67578        0.538999        0.164887 
        3.69146        0.536228        0.163052 
        3.70712        0.531419        0.161247 
        3.72284        0.527963        0.159463 
        3.73853        0.523181        0.157708 
        3.75422        0.521662        0.155979 
        3.76993        0.516755        0.154274 
        3.78564        0.512678        0.152595 
        3.80137        0.509345        0.150938 
        3.81707        0.504777        0.149308 
        3.83279        0.502938        0.147701 
        3.84853        0.498964        0.146115 
        3.86424         0.49531        0.144555 
        3.87992        0.493171         0.14302 
        3.89561        0.489263        0.141507 
        3.91134        0.485311        0.140012 
        3.92704        0.482552        0.138541 
        3.94273        0.479852        0.137091 
        3.95845        0.475071         0.13566 
        3.97418        0.472441        0.134249 
        3.98988        0.469512        0.132859 
        4.00554        0.466089        0.131492 
        4.02125        0.462309        0.130141 
        4.03698        0.458989        0.128806 
        4.05268        0.455239        0.127493 
        4.06839        0.450486        0.126197 
         4.0841         0.44793        0.124919 
        4.09983        0.444692        0.123657 
        4.11555        0.441127        0.122412 
        4.13124        0.436667        0.121188 
        4.14693        0.434659         0.11998 
        4.16266        0.430716        0.118785 
        4.17839        0.426401        0.117606 
        4.19408        0.423683        0.116447 
        4.20977        0.421517        0.115302 
        4.22551        0.417689        0.114169 
        4.24123         0.41459        0.113053 
        4.25691        0.412214        0.111955 
        4.27259        0.408958         0.11087 
        4.28831        0.407902        0.109798 
        4.30404        0.404971        0.108739 
        4.31974        0.401421        0.107696 
        4.33543        0.398945        0.106667 
        4.35116        0.396733        0.105648 
        4.36688        0.393525        0.104644 
        4.38255        0.392348        0.103656 
        4.39825        0.390286        0.102678 
        4.41398         0.38736        0.101711 
         4.4297        0.386489        0.100757 
        4.44541        0.383164       0.0998156 
        4.46111        0.381581       0.0988867 
        4.47683        0.379603       0.0979688 
        4.49251         0.37771       0.0970643 
        4.50819         0.37612       0.0961713 
         4.5239        0.374322       0.0952882 
        4.53962         0.37162       0.0944149 
        4.55535        0.370945        0.093552 
        4.57106        0.368777        0.092701 
        4.58678        0.368234       0.0918602 
         4.6025        0.366613       0.0910296 
        4.61821         0.36544       0.0902093 
        4.63391        0.364943          0.0894 
         4.6496        0.361659       0.0886009 
        4.66532        0.361414       0.0878102 
        4.68103        0.359754       0.0870294 
        4.69673        0.358877       0.0862586 
        4.71241        0.358446       0.0854979 
        4.72811        0.356465        0.084745 
        4.74384        0.357235       0.0840001 
        4.75955        0.354982       0.0832652 
        4.77525        0.353982       0.0825394 
        4.79096        0.354483       0.0818212 
        4.80669        0.352887       0.0811112 
         4.8224        0.350967       0.0804102 
        4.83809        0.351812       0.0797182 
        4.85379         0.35023       0.0790339 
         4.8695         0.35007       0.0783569 
        4.88521        0.349156        0.077688 
        4.90093        0.349026       0.0770268 
        4.91663        0.348499       0.0763737 
        4.93234        0.347142       0.0757274 
        4.94807        0.347219       0.0750882 
        4.96377        0.348428       0.0744573 
        4.97943        0.347721        0.073835 
        4.99514        0.346352       0.0732181 
        5.01086         0.34733       0.0726077 
        5.02654        0.347607       0.0720058 
        5.04227        0.346577       0.0714088 
          5.058        0.347319       0.0708182 
        5.07371        0.347281       0.0702354 
        5.08942        0.347195       0.0696589 
        5.10513        0.347107       0.0690888 
        5.12084        0.347278       0.0685248 
        5.13656        0.347674        0.067967 
        5.15225        0.348268       0.0674164 
        5.16796        0.348893       0.0668709 
        5.18369        0.349004       0.0663308 
         5.1994        0.349462       0.0657977 
        5.21509        0.350119       0.0652708 
        5.23079        0.349905       0.0647489 
        5.24649         0.35128       0.0642332 
        5.26217         0.35148       0.0637233 
        5.27788        0.352478       0.0632182 
        5.29359        0.353344       0.0627184 
        5.30933        0.354171       0.0622232 
        5.32504        0.353432       0.0617342 
        5.34073        0.355217       0.0612509 
        5.35646        0.355854       0.0607717 
        5.37218        0.356572       0.0602975 
        5.38789          0.3575        0.059829 
        5.40357        0.357815        0.059366 
        5.41929        0.359761       0.0589068 
        5.43502        0.360608       0.0584524 
         5.4507        0.360719       0.0580038 
        5.46639        0.362546       0.0575598 
        5.48212         0.36295       0.0571193 
        5.49786        0.365332       0.0566829 
        5.51353        0.366505       0.0562531 
        5.52921        0.366846       0.0558273 
        5.54495        0.367844       0.0554047 
        5.56066        0.370196       0.0549868 
        5.57637        0.371408       0.0545732 
        5.59207        0.372413       0.0541642 
        5.60778        0.373728       0.0537591 
        5.62346        0.375182       0.0533588 
        5.63916        0.376362        0.052962 
        5.65487        0.376645       0.0525691 
         5.6706        0.377418       0.0521797 
        5.68633        0.381118       0.0517939 
        5.70203        0.382473       0.0514129 
        5.71773        0.384163       0.0510357 
        5.73344        0.384958        0.050662 
        5.74916        0.386505       0.0502917 
        5.76486        0.387662       0.0499256 
        5.78054        0.390027       0.0495636 
        5.79626        0.390573       0.0492041 
          5.812        0.391811       0.0488479 
         5.8277        0.394263       0.0484961 
        5.84339         0.39657       0.0481478 
        5.85911        0.397642       0.0478021 
        5.87484        0.399718       0.0474599 
        5.89053        0.401003       0.0471217 
        5.90623         0.40304       0.0467866 
        5.92195         0.40401       0.0464541 
        5.93767        0.406699        0.046125 
        5.95336        0.408899       0.0457996 
        5.96905        0.409043       0.0454774 
        5.98476        0.409183       0.0451578 
        6.00048        0.412067       0.0448412 
        6.01617        0.412527        0.044528 
        6.03185        0.415285       0.0442181 
        6.04756        0.416907       0.0439104 
        6.06331        0.418963       0.0436049 
        6.07903        0.420768       0.0433029 
        6.09473        0.421093       0.0430041 
        6.11044        0.424183       0.0427077 
        6.12616         0.42567       0.0424142 
        6.14186        0.427288       0.0421237 
        6.15755         0.42975       0.0418359 
        6.17326        0.430239       0.0415505 
        6.18898        0.432316       0.0412676 
        6.20467        0.434667       0.0409879 
        6.22036        0.436277       0.0407107 
         6.2361        0.437299       0.0404353 
         6.2518        0.438147       0.0401629 
        6.26748        0.439637       0.0398935 
        6.28319        0.443585       0.0396259 
        6.29893        0.443781       0.0393604 
        6.31463        0.445743       0.0390978 
        6.33033        0.445659       0.0388376 
        6.34604        0.448796       0.0385796 
        6.36177        0.449186       0.0383237 
        6.37747         0.45309       0.0380706 
