# k  (h/Mpc)    Pcb(k)  (Mpc/h)^3    Pcb_linear(k) (Mpc/h)^3   ShotnoiseSubtracted = true
      0.0200456         331.689         335.445 
      0.0350414         225.025         224.592 
      0.0492313         157.919          157.19 
      0.0637834          127.73          127.16 
      0.0800726         97.0554         96.5404 
       0.096163          68.177         68.0151 
       0.111083          54.149         54.2485 
       0.126058         47.5648         47.5389 
       0.142273         39.0313         38.8139 
       0.158546         30.4149         30.1311 
        0.17375         25.5818         25.6227 
       0.188953         23.0598         23.0304 
       0.204907         20.1501         19.8006 
       0.220756         16.6964         16.5206 
        0.23588         14.6011          14.479 
         0.2514         13.1404         13.1185 
       0.267535           11.69         11.6298 
       0.283568         10.2202         10.1301 
       0.299022         9.15871         9.05171 
       0.314451         8.24532         8.26358 
       0.330372         7.51926         7.48355 
       0.346141         6.76347         6.72301 
       0.361624         6.16177         6.10416 
       0.377134         5.68874         5.61001 
       0.392932          5.1127         5.15127 
       0.408854         4.77308         4.71032 
       0.424564         4.35921         4.32825 
       0.440253          4.0357         4.00465 
       0.455999         3.76154         3.71263 
       0.471626         3.50333         3.44207 
        0.48727         3.23435         3.19692 
       0.502856          3.0034         2.98119 
       0.518488         2.84191         2.78548 
       0.534347         2.67654         2.60226 
       0.550082         2.45841         2.43538 
       0.565732         2.27583         2.28525 
       0.581496         2.18082         2.14721 
       0.597222         2.05993         2.02024 
       0.612804         1.92809         1.90392 
       0.628434          1.8388         1.79662 
       0.644267         1.72775         1.69662 
       0.660051         1.62626         1.60441 
       0.675724         1.54524         1.51949 
       0.691403          1.4735         1.44058 
       0.707174         1.39099         1.36677 
       0.722871         1.31576         1.29836 
        0.73838         1.26126         1.23532 
       0.754018         1.21049         1.17594 
       0.769845         1.14599         1.11978 
        0.78569         1.09185          1.0672 
       0.801365         1.03933         1.01849 
       0.817031        0.995743        0.972822 
       0.832809         0.95153        0.929646 
       0.848511        0.905757        0.889264 
       0.864097        0.862886        0.851538 
       0.879701        0.827184        0.815947 
       0.895507        0.797989        0.781956 
       0.911279        0.769237        0.749956 
        0.92691        0.735693        0.719997 
       0.942635        0.706285        0.691496 
       0.958396        0.675988        0.664466 
       0.974128        0.650133        0.638917 
       0.989692        0.629248        0.614951 
        1.00528        0.605182         0.59217 
        1.02113         0.57767        0.570177 
        1.03692        0.561438        0.549374 
        1.05264        0.540675        0.529695 
        1.06832        0.522772        0.511003 
        1.08405        0.499612        0.493157 
        1.09979        0.483207        0.476145 
        1.11537         0.47053        0.460097 
        1.13105        0.454648        0.444688 
        1.14679        0.441526        0.429919 
        1.16256        0.422302        0.415786 
        1.17828        0.409081         0.40233 
        1.19395        0.395223         0.38951 
         1.2097        0.380293        0.377179 
        1.22537        0.372887        0.365436 
          1.241        0.360562        0.354225 
        1.25666        0.352427        0.343452 
        1.27241        0.337951        0.333072 
        1.28819        0.327643        0.323101 
        1.30392        0.318993        0.313563 
        1.31957        0.310085        0.304449 
        1.33529        0.299818        0.295661 
        1.35108        0.290795        0.287182 
        1.36674        0.280341        0.279093 
         1.3824        0.276258         0.27132 
        1.39811        0.267035        0.263815 
        1.41389        0.260334        0.256562 
        1.42964        0.253821        0.249592 
        1.44531        0.244766        0.242912 
        1.46101        0.239655        0.236461 
        1.47667        0.230732         0.23026 
        1.49229        0.227113        0.224297 
        1.50793        0.219519        0.218536 
        1.52367        0.214753        0.212939 
        1.53953        0.209064        0.207498 
        1.55526        0.203929        0.202289 
        1.57092        0.197467        0.197279 
        1.58662        0.193693        0.192424 
        1.60235        0.189398        0.187723 
        1.61809        0.182597        0.183174 
        1.63369         0.18085        0.178815 
        1.64941        0.175205        0.174566 
        1.66519        0.170405        0.170438 
        1.68085        0.166061        0.166471 
        1.69652        0.162129        0.162629 
        1.71228        0.159355        0.158884 
        1.72806        0.153992        0.155254 
        1.74368        0.151999        0.151772 
        1.75933        0.148045        0.148389 
        1.77505        0.144415        0.145092 
        1.79081        0.141768        0.141889 
         1.8065        0.137459        0.138795 
        1.82218        0.134985        0.135795 
        1.83797        0.131658        0.132863 
        1.85367        0.129286        0.130032 
        1.86928        0.126494          0.1273 
        1.88497        0.123905        0.124631 
        1.90073        0.120828        0.122028 
        1.91647        0.118261          0.1195 
        1.93218        0.115482        0.117049 
        1.94787        0.113001         0.11467 
        1.96363        0.110866        0.112346 
        1.97935        0.108068        0.110091 
        1.99499        0.106254        0.107911 
        2.01064        0.104109        0.105785 
         2.0264        0.101712        0.103703 
        2.04216         0.10028        0.101677 
        2.05781       0.0980186       0.0997175 
        2.07353       0.0952831       0.0978022 
        2.08928       0.0935555       0.0959325 
        2.10499       0.0917717       0.0941162 
        2.12065       0.0903797       0.0923519 
        2.13633       0.0881222       0.0906308 
        2.15211        0.087038        0.088942 
        2.16785       0.0849022       0.0873005 
        2.18349       0.0829196       0.0857103 
        2.19916       0.0820702       0.0841559 
        2.21489       0.0803252       0.0826346 
        2.23063       0.0789701       0.0811494 
         2.2463       0.0772239        0.079707 
        2.26194       0.0755594       0.0783029 
        2.27765       0.0741541       0.0769251 
        2.29341       0.0730972       0.0755765 
        2.30914       0.0715261       0.0742626 
        2.32486       0.0701991       0.0729804 
        2.34061       0.0691001        0.071726 
        2.35635       0.0675987       0.0705019 
        2.37203       0.0664965       0.0693103 
        2.38768       0.0652169       0.0681484 
        2.40339       0.0641662       0.0670087 
        2.41914       0.0632715       0.0658921 
        2.43483       0.0619733       0.0648046 
         2.4505       0.0605825       0.0637432 
        2.46622       0.0595869       0.0627017 
        2.48195        0.058531       0.0616831 
        2.49759       0.0578947       0.0606923 
        2.51328       0.0569331       0.0597205 
        2.52906       0.0558521       0.0587636 
        2.54479       0.0547895        0.057831 
        2.56049        0.053832       0.0569202 
        2.57618       0.0529775       0.0560296 
        2.59189       0.0522128       0.0551566 
        2.60758       0.0514827       0.0543032 
        2.62325       0.0504311       0.0534688 
        2.63898       0.0496286       0.0526488 
        2.65468       0.0485713       0.0518476 
        2.67044       0.0481819       0.0510594 
        2.68618       0.0473151       0.0502892 
        2.70184       0.0463914       0.0495379 
        2.71755       0.0455811       0.0487998 
        2.73329        0.044993       0.0480755 
        2.74897       0.0444073        0.047368 
        2.76462       0.0435872       0.0466762 
        2.78034       0.0429698       0.0459953 
        2.79607       0.0421692        0.045327 
        2.81179       0.0417389       0.0446726 
        2.82749       0.0408623       0.0440318 
        2.84321       0.0403724       0.0434026 
        2.85893       0.0398506       0.0427859 
        2.87462       0.0393183        0.042182 
        2.89033       0.0386381       0.0415891 
        2.90605       0.0378512       0.0410069 
        2.92176       0.0375129       0.0404361 
        2.93747       0.0368371       0.0398763 
        2.95318       0.0362807       0.0393268 
        2.96891       0.0358111       0.0387874 
        2.98456       0.0353359       0.0382603 
        3.00023       0.0347919       0.0377421 
        3.01596       0.0342346       0.0372319 
        3.03164       0.0339648       0.0367324 
        3.04738       0.0333139       0.0362405 
         3.0631       0.0327927       0.0357577 
        3.07883       0.0323478       0.0352835 
        3.09456       0.0319818        0.034818 
        3.11026       0.0314749       0.0343614 
        3.12596       0.0311794        0.033913 
        3.14163       0.0306718       0.0334736 
        3.15734       0.0303241       0.0330408 
        3.17308       0.0298461       0.0326146 
        3.18879       0.0294162       0.0321969 
        3.20447        0.029117       0.0317871 
         3.2202       0.0287934       0.0313831 
         3.2359       0.0283949       0.0309867 
        3.25157       0.0279171        0.030598 
        3.26729       0.0275775       0.0302148 
        3.28304       0.0273291       0.0298373 
        3.29877       0.0269074       0.0294666 
        3.31446       0.0265382        0.029103 
        3.33014       0.0262933       0.0287458 
        3.34585       0.0259906        0.028394 
        3.36158       0.0255977       0.0280474 
        3.37727       0.0253276       0.0277077 
        3.39294       0.0250136       0.0273738 
        3.40867       0.0247137       0.0270442 
        3.42439       0.0244091       0.0267201 
        3.44008       0.0240804       0.0264019 
        3.45578       0.0239224       0.0260886 
        3.47153       0.0235508       0.0257796 
        3.48724       0.0234056       0.0254761 
        3.50292       0.0230228       0.0251782 
        3.51859       0.0227675       0.0248851 
        3.53431       0.0225995       0.0245957 
        3.55007       0.0223111       0.0243101 
        3.56577       0.0220872       0.0240302 
        3.58146       0.0218233       0.0237547 
        3.59719       0.0216372       0.0234828 
        3.61292       0.0213327       0.0232153 
        3.62859       0.0211066       0.0229529 
        3.64429       0.0209367        0.022694 
        3.66003        0.020698       0.0224382 
        3.67578       0.0204846       0.0221865 
        3.69146       0.0202693       0.0219395 
        3.70712       0.0201387       0.0216967 
        3.72284       0.0199059       0.0214566 
        3.73853       0.0196823       0.0212205 
        3.75422       0.0195523       0.0209878 
        3.76993       0.0192673       0.0207584 
        3.78564       0.0191558       0.0205325 
        3.80137       0.0189134       0.0203095 
        3.81707       0.0187333       0.0200903 
        3.83279       0.0186185        0.019874 
        3.84853       0.0184078       0.0196606 
        3.86424       0.0182602       0.0194507 
        3.87992        0.018084       0.0192442 
        3.89561       0.0179012       0.0190405 
        3.91134       0.0177778       0.0188394 
        3.92704       0.0175841       0.0186414 
        3.94273       0.0174178       0.0184464 
        3.95845       0.0172377       0.0182538 
        3.97418       0.0171093       0.0180639 
        3.98988       0.0168972       0.0178769 
        4.00554       0.0167281        0.017693 
        4.02125       0.0165244       0.0175112 
        4.03698       0.0162812       0.0173316 
        4.05268       0.0161032       0.0171549 
        4.06839       0.0158739       0.0169805 
         4.0841       0.0156396       0.0168086 
        4.09983       0.0154261       0.0166387 
        4.11555       0.0152286       0.0164713 
        4.13124       0.0150335       0.0163066 
        4.14693       0.0147975       0.0161439 
        4.16266        0.014624       0.0159831 
        4.17839       0.0144657       0.0158246 
        4.19408       0.0142861       0.0156685 
        4.20977       0.0140986       0.0155145 
        4.22551       0.0139135       0.0153621 
        4.24123       0.0137723       0.0152119 
        4.25691       0.0136053       0.0150641 
        4.27259       0.0134586       0.0149182 
        4.28831       0.0133506       0.0147739 
        4.30404       0.0132143       0.0146314 
        4.31974       0.0130789        0.014491 
        4.33543       0.0129854       0.0143526 
        4.35116       0.0128823       0.0142156 
        4.36688        0.012761       0.0140804 
        4.38255       0.0126678       0.0139474 
        4.39825        0.012581       0.0138159 
        4.41398       0.0125266       0.0136857 
         4.4297       0.0124555       0.0135574 
        4.44541       0.0123684       0.0134307 
        4.46111       0.0122891       0.0133057 
        4.47683        0.012255       0.0131822 
        4.49251       0.0121635       0.0130605 
        4.50819        0.012128       0.0129404 
         4.5239       0.0120765       0.0128215 
        4.53962       0.0120603        0.012704 
        4.55535       0.0120559       0.0125879 
        4.57106        0.012032       0.0124734 
        4.58678       0.0119721       0.0123603 
         4.6025       0.0119969       0.0122485 
        4.61821       0.0119963       0.0121382 
        4.63391       0.0119909       0.0120293 
         4.6496       0.0119589       0.0119217 
        4.66532       0.0120246       0.0118153 
        4.68103       0.0120401       0.0117103 
        4.69673       0.0120447       0.0116066 
        4.71241       0.0121058       0.0115042 
        4.72811        0.012078       0.0114029 
        4.74384       0.0121737       0.0113027 
        4.75955       0.0122383       0.0112038 
        4.77525       0.0122867       0.0111061 
        4.79096       0.0123234       0.0110095 
        4.80669       0.0123725        0.010914 
         4.8224       0.0124906       0.0108196 
        4.83809       0.0125745       0.0107265 
        4.85379       0.0126531       0.0106344 
         4.8695       0.0127407       0.0105434 
        4.88521       0.0128225       0.0104534 
        4.90093       0.0130054       0.0103644 
        4.91663       0.0131219       0.0102765 
        4.93234       0.0131735       0.0101895 
        4.94807       0.0132599       0.0101035 
        4.96377        0.013459       0.0100186 
        4.97943       0.0136006      0.00993491 
        4.99514       0.0136795       0.0098519 
        5.01086       0.0138476      0.00976977 
        5.02654       0.0140199      0.00968877 
        5.04227        0.014242      0.00960844 
          5.058        0.014392      0.00952898 
        5.07371       0.0145265      0.00945056 
        5.08942       0.0148201      0.00937299 
        5.10513        0.015024      0.00929628 
        5.12084        0.015141      0.00922039 
        5.13656       0.0154045      0.00914534 
        5.15225       0.0156067      0.00907125 
        5.16796       0.0158844      0.00899784 
        5.18369        0.016076      0.00892518 
         5.1994       0.0163183      0.00885344 
        5.21509       0.0165528      0.00878254 
        5.23079       0.0168057      0.00871233 
        5.24649       0.0171273      0.00864293 
        5.26217       0.0174515      0.00857432 
        5.27788       0.0177341      0.00850636 
        5.29359       0.0180797      0.00843911 
        5.30933       0.0183129      0.00837248 
        5.32504       0.0186427      0.00830667 
        5.34073       0.0190422      0.00824164 
        5.35646       0.0193395      0.00817716 
        5.37218       0.0196656      0.00811336 
        5.38789       0.0201726      0.00805032 
        5.40357       0.0204771      0.00798803 
        5.41929       0.0208854      0.00792624 
        5.43502       0.0213079       0.0078651 
         5.4507       0.0216838      0.00780473 
        5.46639       0.0221772      0.00774499 
        5.48212       0.0226095      0.00768572 
        5.49786        0.023053        0.007627 
        5.51353       0.0236425      0.00756917 
        5.52921       0.0241157      0.00751188 
        5.54495       0.0247098        0.007455 
        5.56066       0.0251491      0.00739877 
        5.57637         0.02566      0.00734312 
        5.59207       0.0262788      0.00728809 
        5.60778       0.0268553      0.00723359 
        5.62346        0.027441      0.00717972 
        5.63916       0.0280296      0.00712634 
        5.65487       0.0286833      0.00707346 
         5.6706       0.0292082      0.00702106 
        5.68633       0.0301038      0.00696916 
        5.70203        0.030674      0.00691789 
        5.71773       0.0314069      0.00686713 
        5.73344       0.0320287      0.00681686 
        5.74916       0.0330233      0.00676703 
        5.76486        0.033741      0.00671776 
        5.78054       0.0344877      0.00666905 
        5.79626       0.0353033      0.00662069 
          5.812        0.036341      0.00657275 
         5.8277       0.0371019      0.00652542 
        5.84339       0.0379223      0.00647855 
        5.85911       0.0388716      0.00643204 
        5.87484       0.0399047        0.006386 
        5.89053       0.0409739      0.00634049 
        5.90623        0.042092      0.00629539 
        5.92195       0.0430674      0.00625066 
        5.93767       0.0441829      0.00620637 
        5.95336       0.0451139      0.00616259 
        5.96905       0.0467547      0.00611924 
        5.98476       0.0475809      0.00607624 
        6.00048       0.0486059      0.00603363 
        6.01617       0.0500758      0.00599148 
        6.03185       0.0515173      0.00594979 
        6.04756       0.0528531      0.00590838 
        6.06331       0.0543405      0.00586728 
        6.07903       0.0557379      0.00582665 
        6.09473       0.0571484      0.00578644 
        6.11044       0.0590943      0.00574656 
        6.12616       0.0606477      0.00570707 
        6.14186       0.0622083      0.00566798 
        6.15755       0.0637907      0.00562925 
        6.17326       0.0655596      0.00559085 
        6.18898       0.0672373      0.00555279 
        6.20467       0.0694396      0.00551514 
        6.22036       0.0709418      0.00547785 
         6.2361       0.0729815      0.00544079 
         6.2518       0.0751135      0.00540413 
        6.26748       0.0770369      0.00536789 
        6.28319       0.0800658      0.00533188 
        6.29893       0.0819324      0.00529616 
        6.31463       0.0842531      0.00526082 
        6.33033       0.0864635      0.00522582 
        6.34604       0.0892145       0.0051911 
        6.36177        0.091305      0.00515667 
        6.37747       0.0950509       0.0051226 
