# k  (h/Mpc)    Pcb(k)  (Mpc/h)^3    Pcb_linear(k) (Mpc/h)^3   ShotnoiseSubtracted = true
      0.0200456         30365.5         30873.7 
      0.0350414         21533.6         20670.9 
      0.0492313         14151.3         14467.4 
      0.0637834         11131.2         11703.5 
      0.0800726         8399.81         8885.38 
       0.096163         6713.41         6259.97 
       0.111083         5431.09         4992.92 
       0.126058         4452.21         4375.38 
       0.142273            3848         3572.35 
       0.158546         3109.77          2773.2 
        0.17375         2807.44         2358.26 
       0.188953         2680.77         2119.68 
       0.204907         2280.42         1822.41 
       0.220756         2066.58         1520.52 
        0.23588          1840.5         1332.62 
         0.2514         1669.94          1207.4 
       0.267535         1596.52         1070.39 
       0.283568         1430.95         932.358 
       0.299022         1350.11         833.101 
       0.314451         1413.74         760.563 
       0.330372         1262.71         688.771 
       0.346141         1157.83         618.772 
       0.361624         1107.53         561.814 
       0.377134         1069.53         516.334 
       0.392932         1001.29         474.113 
       0.408854         969.826         433.528 
       0.424564         947.798         398.363 
       0.440253          885.41          368.58 
       0.455999         842.324         341.703 
       0.471626         853.257         316.801 
        0.48727         802.632         294.238 
       0.502856         786.901         274.382 
       0.518488         750.581          256.37 
       0.534347          731.82         239.506 
       0.550082         698.912         224.148 
       0.565732         681.648          210.33 
       0.581496         666.449         197.625 
       0.597222         655.708         185.939 
       0.612804         636.167         175.233 
       0.628434         611.434         165.357 
       0.644267         594.864         156.153 
       0.660051         587.862         147.667 
       0.675724         575.884         139.851 
       0.691403         553.063         132.588 
       0.707174         540.309         125.795 
       0.722871         542.008         119.499 
        0.73838         519.455         113.696 
       0.754018          511.66         108.231 
       0.769845         503.091         103.062 
        0.78569         492.091         98.2231 
       0.801365         477.387         93.7394 
       0.817031         469.735         89.5365 
       0.832809         463.516         85.5627 
       0.848511          453.89          81.846 
       0.864097         444.093         78.3738 
       0.879701         446.608         75.0981 
       0.895507          430.09         71.9696 
       0.911279         425.545         69.0244 
        0.92691         417.663         66.2671 
       0.942635         410.389         63.6439 
       0.958396         400.224          61.156 
       0.974128          392.05         58.8046 
       0.989692         386.122         56.5989 
        1.00528         376.743         54.5021 
        1.02113         371.799          52.478 
        1.03692         366.232         50.5632 
        1.05264         361.804         48.7521 
        1.06832         353.581         47.0317 
        1.08405         351.612         45.3891 
        1.09979         342.858         43.8234 
        1.11537         335.008         42.3464 
        1.13105         330.627         40.9281 
        1.14679         325.753         39.5688 
        1.16256         322.015         38.2681 
        1.17828         318.092         37.0296 
        1.19395         311.099         35.8497 
         1.2097         305.289         34.7148 
        1.22537         301.712          33.634 
          1.241         295.505         32.6021 
        1.25666         291.995         31.6106 
        1.27241         290.095         30.6553 
        1.28819         282.651         29.7375 
        1.30392         280.552         28.8597 
        1.31957         274.394         28.0209 
        1.33529          269.87          27.212 
        1.35108         269.403         26.4316 
        1.36674         264.495         25.6871 
         1.3824         258.191         24.9717 
        1.39811         254.049         24.2809 
        1.41389         251.059         23.6134 
        1.42964         246.847         22.9719 
        1.44531         244.084         22.3571 
        1.46101         238.151         21.7633 
        1.47667         235.736         21.1927 
        1.49229          234.34         20.6438 
        1.50793         228.644         20.1136 
        1.52367         226.056         19.5984 
        1.53953         222.649         19.0977 
        1.55526         217.941         18.6183 
        1.57092         216.797         18.1571 
        1.58662         212.793         17.7103 
        1.60235         209.147         17.2776 
        1.61809         207.239          16.859 
        1.63369         203.092         16.4578 
        1.64941         201.188         16.0667 
        1.66519         197.609         15.6867 
        1.68085         194.157         15.3217 
        1.69652         192.459          14.968 
        1.71228         189.509         14.6234 
        1.72806         187.195         14.2892 
        1.74368         184.016         13.9688 
        1.75933         182.386         13.6574 
        1.77505         179.449          13.354 
        1.79081         176.648         13.0592 
         1.8065         175.719         12.7744 
        1.82218           171.1         12.4983 
        1.83797           169.8         12.2284 
        1.85367          167.53         11.9679 
        1.86928         164.881         11.7164 
        1.88497         163.841         11.4708 
        1.90073         161.088         11.2312 
        1.91647          159.04         10.9986 
        1.93218         156.532          10.773 
        1.94787         153.483          10.554 
        1.96363         152.822         10.3401 
        1.97935         150.178         10.1326 
        1.99499         148.871         9.93186 
        2.01064         146.088         9.73623 
         2.0264          144.61         9.54458 
        2.04216         142.706         9.35813 
        2.05781         140.313         9.17779 
        2.07353         139.221         9.00151 
        2.08928         137.004         8.82943 
        2.10499         135.424         8.66226 
        2.12065         134.007         8.49987 
        2.13633         131.964         8.34147 
        2.15211         130.341         8.18604 
        2.16785         129.184         8.03496 
        2.18349          127.33          7.8886 
        2.19916         126.705         7.74554 
        2.21489         124.029         7.60551 
        2.23063         122.194         7.46882 
         2.2463         120.509         7.33607 
        2.26194         119.685         7.20684 
        2.27765         117.753         7.08002 
        2.29341         116.349          6.9559 
        2.30914         115.291         6.83498 
        2.32486         114.004         6.71697 
        2.34061         112.119         6.60152 
        2.35635         110.445         6.48885 
        2.37203         109.592         6.37918 
        2.38768         107.617         6.27224 
        2.40339         107.347         6.16734 
        2.41914         105.547         6.06457 
        2.43483          104.15         5.96448 
         2.4505         103.546         5.86679 
        2.46622         101.702         5.77093 
        2.48195         100.076         5.67718 
        2.49759         99.1246           5.586 
        2.51328         97.9957         5.49655 
        2.52906         96.7982         5.40848 
        2.54479         95.9113         5.32265 
        2.56049         94.3194         5.23882 
        2.57618         93.6284         5.15685 
        2.59189         92.5357          5.0765 
        2.60758         91.5012         4.99796 
        2.62325         90.1017         4.92116 
        2.63898         88.6847         4.84569 
        2.65468         88.0086         4.77195 
        2.67044         87.1435          4.6994 
        2.68618         86.0333         4.62852 
        2.70184         85.5089         4.55936 
        2.71755         84.1766         4.49143 
        2.73329         83.0756         4.42477 
        2.74897         81.9444         4.35966 
        2.76462         81.5635         4.29599 
        2.78034         80.5292         4.23331 
        2.79607         79.7248          4.1718 
        2.81179         78.8773         4.11158 
        2.82749         77.6876          4.0526 
        2.84321         76.9259         3.99469 
        2.85893         76.0636         3.93792 
        2.87462         74.8793         3.88234 
        2.89033         74.5245         3.82777 
        2.90605         73.6527         3.77419 
        2.92176         72.8391         3.72165 
        2.93747         71.6939         3.67013 
        2.95318         71.2413         3.61956 
        2.96891         70.6195         3.56991 
        2.98456         69.7854          3.5214 
        3.00023         68.8596         3.47371 
        3.01596         68.2967         3.42674 
        3.03164         67.4154         3.38077 
        3.04738         66.5686          3.3355 
         3.0631         66.0395         3.29106 
        3.07883         65.4512         3.24742 
        3.09456         64.3678         3.20458 
        3.11026         63.9954         3.16256 
        3.12596         63.1751         3.12129 
        3.14163         62.7028         3.08084 
        3.15734         61.7656         3.04101 
        3.17308         61.2422         3.00178 
        3.18879         60.5227         2.96334 
        3.20447         60.0347         2.92562 
         3.2202          59.185         2.88843 
         3.2359         58.9137         2.85195 
        3.25157         58.0077         2.81618 
        3.26729         57.4455         2.78091 
        3.28304         56.8861         2.74616 
        3.29877         56.2447         2.71205 
        3.31446         55.6274         2.67858 
        3.33014         55.1041          2.6457 
        3.34585         54.5017         2.61332 
        3.36158         54.0121         2.58143 
        3.37727         53.5075         2.55016 
        3.39294         53.0235         2.51943 
        3.40867         52.3586         2.48909 
        3.42439         51.7677         2.45926 
        3.44008         51.2203         2.42998 
        3.45578         50.8518         2.40114 
        3.47153         50.3336          2.3727 
        3.48724         49.6972         2.34477 
        3.50292           49.37         2.31735 
        3.51859         48.8892         2.29037 
        3.53431         48.3263         2.26373 
        3.55007         47.8778         2.23745 
        3.56577         47.2586         2.21169 
        3.58146         46.7845         2.18633 
        3.59719         46.4077         2.16131 
        3.61292         46.0503         2.13669 
        3.62859         45.5213         2.11254 
        3.64429         44.9683         2.08871 
        3.66003         44.6647         2.06517 
        3.67578         44.2188           2.042 
        3.69146         43.7934         2.01926 
        3.70712         43.4612         1.99692 
        3.72284         42.7828         1.97482 
        3.73853         42.5693         1.95309 
        3.75422         42.1204         1.93167 
        3.76993         41.8899         1.91056 
        3.78564          41.407         1.88977 
        3.80137         41.0333         1.86924 
        3.81707         40.5922         1.84907 
        3.83279         40.1013         1.82917 
        3.84853         39.7736         1.80952 
        3.86424          39.475          1.7902 
        3.87992         39.0188         1.77119 
        3.89561          38.766         1.75245 
        3.91134         38.4024         1.73394 
        3.92704         37.9766         1.71572 
        3.94273         37.7258         1.69777 
        3.95845         37.3213         1.68004 
        3.97418         36.9469         1.66256 
        3.98988         36.5416         1.64535 
        4.00554         36.3234         1.62843 
        4.02125         36.0285         1.61169 
        4.03698         35.6579         1.59516 
        4.05268         35.2991          1.5789 
        4.06839         35.0004         1.56285 
         4.0841         34.6934         1.54702 
        4.09983         34.3767         1.53139 
        4.11555         34.0998         1.51598 
        4.13124         33.6896         1.50082 
        4.14693         33.4684         1.48586 
        4.16266         33.1762         1.47106 
        4.17839          32.836         1.45646 
        4.19408         32.5577          1.4421 
        4.20977         32.2811         1.42792 
        4.22551         31.9997          1.4139 
        4.24123         31.6406         1.40007 
        4.25691          31.429         1.38647 
        4.27259         31.0933         1.37304 
        4.28831         30.7816         1.35976 
        4.30404         30.5473         1.34665 
        4.31974         30.4214         1.33373 
        4.33543         30.0703         1.32098 
        4.35116         29.9367         1.30837 
        4.36688         29.5299         1.29593 
        4.38255         29.3382         1.28369 
        4.39825          29.083         1.27158 
        4.41398          28.784         1.25961 
         4.4297         28.5458          1.2478 
        4.44541         28.2785         1.23614 
        4.46111         28.0884         1.22463 
        4.47683         27.7971         1.21327 
        4.49251          27.613         1.20206 
        4.50819         27.3816         1.19101 
         4.5239         27.1594         1.18007 
        4.53962         26.9076         1.16925 
        4.55535         26.6558         1.15857 
        4.57106         26.4837         1.14803 
        4.58678         26.2421         1.13762 
         4.6025         25.9856         1.12733 
        4.61821         25.8294         1.11717 
        4.63391         25.6261         1.10715 
         4.6496          25.311         1.09725 
        4.66532         25.1772         1.08746 
        4.68103         24.9651         1.07779 
        4.69673         24.7586         1.06825 
        4.71241         24.5837         1.05882 
        4.72811          24.332          1.0495 
        4.74384         24.1783         1.04028 
        4.75955         23.9628         1.03117 
        4.77525         23.7579         1.02219 
        4.79096         23.5982         1.01329 
        4.80669         23.3533          1.0045 
         4.8224         23.1898        0.995818 
        4.83809         23.0055        0.987248 
        4.85379         22.8064        0.978772 
         4.8695          22.633        0.970388 
        4.88521         22.4476        0.962105 
        4.90093         22.2608        0.953916 
        4.91663         22.1247        0.945828 
        4.93234         21.9128        0.937825 
        4.94807          21.732        0.929908 
        4.96377         21.5812        0.922096 
        4.97943          21.402        0.914389 
        4.99514         21.2976        0.906749 
        5.01086         21.0679         0.89919 
        5.02654         20.8505        0.891735 
        5.04227         20.7366        0.884341 
          5.058         20.5861        0.877027 
        5.07371         20.4052         0.86981 
        5.08942         20.2472        0.862671 
        5.10513         20.0575        0.855611 
        5.12084           19.91        0.848625 
        5.13656         19.8171        0.841718 
        5.15225         19.6063        0.834899 
        5.16796         19.4792        0.828143 
        5.18369          19.341        0.821455 
         5.1994         19.1759        0.814852 
        5.21509         19.0235        0.808327 
        5.23079         18.8468        0.801865 
        5.24649         18.7647        0.795477 
        5.26217         18.5594        0.789163 
        5.27788          18.512        0.782908 
        5.29359         18.2966        0.776718 
        5.30933         18.1743        0.770586 
        5.32504         18.0195        0.764529 
        5.34073         17.9154        0.758544 
        5.35646         17.7816        0.752609 
        5.37218         17.6098        0.746737 
        5.38789         17.4942        0.740935 
        5.40357         17.3627        0.735201 
        5.41929         17.2102        0.729515 
        5.43502            17.1        0.723887 
         5.4507         16.9452        0.718332 
        5.46639         16.8528        0.712833 
        5.48212         16.7554        0.707378 
        5.49786          16.547        0.701973 
        5.51353         16.4493        0.696651 
        5.52921         16.3385        0.691378 
        5.54495         16.2245        0.686143 
        5.56066         16.1347        0.680968 
        5.57637          15.969        0.675846 
        5.59207          15.879        0.670781 
        5.60778         15.7578        0.665765 
        5.62346          15.649        0.660806 
        5.63916         15.5042        0.655893 
        5.65487         15.4003        0.651027 
         5.6706         15.2797        0.646204 
        5.68633         15.1864        0.641427 
        5.70203          15.112        0.636708 
        5.71773         14.9973        0.632037 
        5.73344          14.866        0.627409 
        5.74916         14.7649        0.622823 
        5.76486         14.6545        0.618289 
        5.78054         14.5364        0.613806 
        5.79626         14.4365        0.609354 
          5.812         14.3388        0.604942 
         5.8277          14.241        0.600586 
        5.84339         14.1385        0.596272 
        5.85911         14.0026        0.591992 
        5.87484         13.9124        0.587754 
        5.89053         13.8151        0.583565 
        5.90623         13.7498        0.579415 
        5.92195         13.6415        0.575297 
        5.93767         13.5404        0.571222 
        5.95336         13.4311        0.567192 
        5.96905         13.3458        0.563202 
        5.98476         13.2463        0.559244 
        6.00048         13.1409        0.555323 
        6.01617         13.0658        0.551444 
        6.03185         12.9627        0.547606 
        6.04756         12.8715        0.543795 
        6.06331         12.7759        0.540012 
        6.07903         12.7085        0.536273 
        6.09473         12.6019        0.532572 
        6.11044         12.5374        0.528902 
        6.12616         12.4227        0.525267 
        6.14186         12.3348        0.521669 
        6.15755         12.2777        0.518104 
        6.17326         12.1899         0.51457 
        6.18898         12.1082        0.511067 
        6.20467         12.0287        0.507603 
        6.22036         11.9306         0.50417 
         6.2361         11.8575        0.500759 
         6.2518         11.7742        0.497385 
        6.26748          11.698         0.49405 
        6.28319         11.6056        0.490735 
        6.29893          11.511        0.487448 
        6.31463         11.4634        0.484195 
        6.33033         11.3826        0.480974 
        6.34604         11.3078        0.477779 
        6.36177         11.2186        0.474609 
        6.37747         11.1404        0.471474 
