# k  (h/Mpc)    Pcb(k)  (Mpc/h)^3    Pcb_linear(k) (Mpc/h)^3   ShotnoiseSubtracted = true
      0.0200456         10851.9         11021.9 
      0.0350414         7199.09         7379.53 
      0.0492313         5144.28         5164.87 
      0.0637834         4281.84         4178.16 
      0.0800726         3260.13         3172.08 
       0.096163         2216.06         2234.81 
       0.111083         1762.28         1782.47 
       0.126058         1602.38         1562.01 
       0.142273         1349.01         1275.33 
       0.158546         1104.26         990.034 
        0.17375         888.231         841.899 
       0.188953         848.886         756.724 
       0.204907         781.073           650.6 
       0.220756         654.746         542.825 
        0.23588         574.955         475.746 
         0.2514         500.881         431.041 
       0.267535         478.536         382.127 
       0.283568         430.182         332.852 
       0.299022         399.124         297.417 
       0.314451         370.342         271.521 
       0.330372         339.993         245.891 
       0.346141         304.189         220.901 
       0.361624         292.068         200.568 
       0.377134         270.429         184.331 
       0.392932         252.156         169.258 
       0.408854         240.678          154.77 
       0.424564         228.553         142.215 
       0.440253         218.615         131.583 
       0.455999         204.442         121.988 
       0.471626         189.997         113.098 
        0.48727         182.676         105.043 
       0.502856          175.86         97.9544 
       0.518488         172.582          91.524 
       0.534347         162.791         85.5038 
       0.550082         151.457         80.0207 
       0.565732         147.098         75.0877 
       0.581496         139.812          70.552 
       0.597222         135.564         66.3802 
       0.612804         130.041         62.5581 
       0.628434         125.647         59.0326 
       0.644267         121.235         55.7467 
       0.660051         119.328          52.717 
       0.675724         115.597         49.9267 
       0.691403         111.818         47.3339 
       0.707174           107.1         44.9086 
       0.722871         105.653          42.661 
        0.73838          103.19         40.5895 
       0.754018          99.096         38.6385 
       0.769845         96.4832         36.7932 
        0.78569         94.2917         35.0657 
       0.801365          91.245          33.465 
       0.817031         87.9683         31.9645 
       0.832809         86.8068         30.5459 
       0.848511         83.8349          29.219 
       0.864097         81.9637         27.9794 
       0.879701         80.2777           26.81 
       0.895507         78.4678         25.6932 
       0.911279         76.7883         24.6417 
        0.92691         75.5283         23.6573 
       0.942635         73.0712         22.7209 
       0.958396         72.7777         21.8327 
       0.974128          70.704         20.9932 
       0.989692          68.979         20.2058 
        1.00528         67.3451         19.4573 
        1.02113         66.5644         18.7346 
        1.03692         64.1537         18.0511 
        1.05264         64.0165         17.4045 
        1.06832          62.018         16.7903 
        1.08405         61.0849         16.2039 
        1.09979          60.785          15.645 
        1.11537         58.5607         15.1177 
        1.13105         58.6492         14.6113 
        1.14679          57.355         14.1261 
        1.16256         56.4147         13.6617 
        1.17828          55.104         13.2196 
        1.19395         54.2035         12.7983 
         1.2097         52.9967         12.3932 
        1.22537         53.0597         12.0073 
          1.241         51.6722          11.639 
        1.25666         50.5168          11.285 
        1.27241         49.8339         10.9439 
        1.28819         48.9466         10.6163 
        1.30392         48.3292         10.3029 
        1.31957         47.7296         10.0034 
        1.33529         46.6931         9.71469 
        1.35108          46.418         9.43609 
        1.36674         45.8764          9.1703 
         1.3824         44.7066          8.9149 
        1.39811         44.2514          8.6683 
        1.41389         43.6317         8.42999 
        1.42964         43.0448         8.20097 
        1.44531         42.1733         7.98149 
        1.46101         41.4812         7.76951 
        1.47667         41.4333         7.56579 
        1.49229         40.7445         7.36985 
        1.50793         40.2997         7.18056 
        1.52367         39.4262         6.99664 
        1.53953         39.0479         6.81787 
        1.55526         38.6458         6.64672 
        1.57092         38.2302         6.48209 
        1.58662         37.6157         6.32259 
        1.60235         37.1858         6.16811 
        1.61809         36.6686         6.01865 
        1.63369          36.001         5.87543 
        1.64941          35.732          5.7358 
        1.66519         34.9603         5.60017 
        1.68085         34.8277         5.46984 
        1.69652         34.1885         5.34358 
        1.71228         33.9534         5.22055 
        1.72806          33.558         5.10126 
        1.74368          32.951         4.98686 
        1.75933         32.6678          4.8757 
        1.77505         32.2981         4.76738 
        1.79081         31.8727         4.66212 
         1.8065         31.5662         4.56046 
        1.82218         31.1366          4.4619 
        1.83797         30.6173         4.36554 
        1.85367         30.2946         4.27253 
        1.86928         29.8963         4.18277 
        1.88497         29.8246         4.09506 
        1.90073         29.3252         4.00953 
        1.91647         28.9819         3.92649 
        1.93218         28.7861         3.84595 
        1.94787           28.36         3.76776 
        1.96363         28.0882         3.69142 
        1.97935         27.6514         3.61733 
        1.99499         27.4368         3.54567 
        2.01064         27.1512         3.47583 
         2.0264         26.6803         3.40741 
        2.04216         26.5231         3.34085 
        2.05781         26.1378         3.27647 
        2.07353         25.8779         3.21354 
        2.08928         25.7955         3.15211 
        2.10499         25.3384         3.09243 
        2.12065         25.0073         3.03445 
        2.13633         24.8803          2.9779 
        2.15211         24.5732         2.92241 
        2.16785         24.1535         2.86848 
        2.18349         23.9747         2.81623 
        2.19916         23.7925         2.76516 
        2.21489         23.4798         2.71517 
        2.23063         23.2238         2.66637 
         2.2463         22.9448         2.61898 
        2.26194         22.7411         2.57284 
        2.27765         22.5188         2.52757 
        2.29341         22.3119         2.48326 
        2.30914         22.1073         2.44009 
        2.32486         21.7918         2.39796 
        2.34061         21.6295         2.35674 
        2.35635         21.3937         2.31652 
        2.37203         21.2609         2.27737 
        2.38768         20.9374         2.23919 
        2.40339         20.7912         2.20174 
        2.41914         20.5813         2.16505 
        2.43483         20.3223         2.12932 
         2.4505         20.1778         2.09444 
        2.46622         19.9473         2.06022 
        2.48195          19.748         2.02675 
        2.49759         19.5687          1.9942 
        2.51328         19.2559         1.96227 
        2.52906         19.2059         1.93083 
        2.54479         18.9327         1.90018 
        2.56049         18.7741         1.87026 
        2.57618         18.5491           1.841 
        2.59189         18.4735         1.81231 
        2.60758         18.2526         1.78427 
        2.62325         18.0251         1.75685 
        2.63898         17.9347         1.72991 
        2.65468         17.7078         1.70358 
        2.67044           17.55         1.67769 
        2.68618         17.3342         1.65238 
        2.70184         17.2163         1.62769 
        2.71755         17.0861         1.60344 
        2.73329         16.8661         1.57964 
        2.74897         16.6782          1.5564 
        2.76462         16.5439         1.53367 
        2.78034         16.4607         1.51129 
        2.79607         16.3086         1.48933 
        2.81179         16.0836         1.46783 
        2.82749         15.9865         1.44678 
        2.84321         15.8179          1.4261 
        2.85893         15.5755         1.40584 
        2.87462         15.5156           1.386 
        2.89033         15.4367         1.36651 
        2.90605         15.2351         1.34739 
        2.92176         15.0715         1.32863 
        2.93747         14.9692         1.31024 
        2.95318         14.8172         1.29218 
        2.96891         14.6998         1.27446 
        2.98456         14.5881         1.25714 
        3.00023         14.3467         1.24011 
        3.01596         14.3036         1.22335 
        3.03164          14.164         1.20694 
        3.04738          14.028         1.19077 
         3.0631         13.9103         1.17491 
        3.07883         13.7756         1.15933 
        3.09456         13.6137         1.14403 
        3.11026         13.5027         1.12903 
        3.12596         13.4023          1.1143 
        3.14163         13.2866         1.09986 
        3.15734         13.1474         1.08564 
        3.17308         13.0138         1.07163 
        3.18879         12.9359         1.05791 
        3.20447         12.8354         1.04445 
         3.2202         12.6959         1.03117 
         3.2359          12.548         1.01815 
        3.25157         12.4646         1.00538 
        3.26729         12.3851        0.992783 
        3.28304         12.2573        0.980379 
        3.29877          12.102        0.968201 
        3.31446         12.0057        0.956254 
        3.33014         11.9079        0.944516 
        3.34585         11.7807        0.932956 
        3.36158         11.6995        0.921569 
        3.37727         11.5892        0.910406 
        3.39294         11.4737        0.899436 
        3.40867         11.3594        0.888605 
        3.42439         11.2804        0.877957 
        3.44008         11.1763        0.867501 
        3.45578         11.0951        0.857207 
        3.47153         11.0144        0.847054 
        3.48724         10.8816        0.837082 
        3.50292         10.8398        0.827292 
        3.51859         10.7056        0.817662 
        3.53431          10.632        0.808153 
        3.55007         10.5476         0.79877 
        3.56577         10.4502        0.789572 
        3.58146          10.382         0.78052 
        3.59719         10.2545        0.771589 
        3.61292         10.1746        0.762798 
        3.62859         10.0936        0.754176 
        3.64429         10.0216        0.745669 
        3.66003         9.93802        0.737265 
        3.67578         9.88362        0.728993 
        3.69146         9.77955        0.720878 
        3.70712         9.66695        0.712899 
        3.72284         9.62324         0.70501 
        3.73853         9.50679        0.697253 
        3.75422         9.40823        0.689608 
        3.76993         9.36456         0.68207 
        3.78564         9.26801        0.674646 
        3.80137         9.21536         0.66732 
        3.81707         9.16017        0.660116 
        3.83279          9.0471        0.653012 
        3.84853         8.98034           0.646 
        3.86424         8.86405        0.639103 
        3.87992         8.82257        0.632316 
        3.89561         8.74147        0.625625 
        3.91134         8.67178        0.619017 
        3.92704         8.60338        0.612511 
        3.94273         8.52631        0.606104 
        3.95845          8.4618        0.599775 
        3.97418         8.41829        0.593535 
        3.98988         8.32173        0.587391 
        4.00554         8.28248        0.581349 
        4.02125         8.21018        0.575375 
        4.03698         8.11139        0.569473 
        4.05268         8.06326        0.563668 
        4.06839         8.01163        0.557937 
         4.0841          7.8985        0.552288 
        4.09983         7.84469        0.546707 
        4.11555         7.81084        0.541206 
        4.13124         7.74095        0.535794 
        4.14693         7.68058         0.53045 
        4.16266         7.60295        0.525167 
        4.17839         7.55351        0.519957 
        4.19408         7.49146         0.51483 
        4.20977         7.42871        0.509768 
        4.22551         7.37565        0.504762 
        4.24123         7.31057        0.499827 
        4.25691         7.27125        0.494971 
        4.27259         7.18454        0.490176 
        4.28831         7.13499        0.485436 
        4.30404         7.07047        0.480752 
        4.31974         7.03682         0.47614 
        4.33543         6.98003         0.47159 
        4.35116          6.9247        0.467089 
        4.36688         6.86682        0.462646 
        4.38255         6.79673        0.458278 
        4.39825         6.75676        0.453956 
        4.41398         6.69553         0.44968 
         4.4297         6.64773        0.445463 
        4.44541         6.59531        0.441301 
        4.46111         6.55184        0.437194 
        4.47683         6.50266        0.433136 
        4.49251         6.46143        0.429137 
        4.50819         6.37931        0.425189 
         4.5239         6.33917        0.421285 
        4.53962         6.30169        0.417424 
        4.55535         6.23787        0.413609 
        4.57106         6.19717        0.409846 
        4.58678         6.16218        0.406129 
         4.6025         6.09783        0.402457 
        4.61821         6.05477         0.39883 
        4.63391         6.02225        0.395252 
         4.6496         5.98009        0.391719 
        4.66532         5.92229        0.388223 
        4.68103         5.88826        0.384771 
        4.69673         5.84271        0.381364 
        4.71241         5.80268           0.378 
        4.72811         5.73025        0.374672 
        4.74384          5.7108        0.371378 
        4.75955         5.66232        0.368129 
        4.77525         5.62982         0.36492 
        4.79096         5.58681        0.361745 
        4.80669          5.5277        0.358606 
         4.8224         5.49177        0.355507 
        4.83809         5.45707        0.352447 
        4.85379         5.41813        0.349422 
         4.8695         5.38101        0.346429 
        4.88521         5.34262        0.343471 
        4.90093          5.2884        0.340548 
        4.91663         5.25361        0.337661 
        4.93234         5.20802        0.334803 
        4.94807         5.18941        0.331977 
        4.96377         5.14498        0.329188 
        4.97943         5.11789        0.326437 
        4.99514         5.06664        0.323709 
        5.01086         5.02906        0.321011 
        5.02654         5.00369        0.318349 
        5.04227         4.97012         0.31571 
          5.058          4.9334        0.313099 
        5.07371         4.89304        0.310522 
        5.08942          4.8572        0.307974 
        5.10513         4.81697        0.305453 
        5.12084         4.78827        0.302959 
        5.13656         4.76321        0.300493 
        5.15225         4.71811        0.298059 
        5.16796         4.69393        0.295647 
        5.18369         4.65204        0.293259 
         5.1994         4.61408        0.290902 
        5.21509         4.60213        0.288573 
        5.23079         4.55685        0.286266 
        5.24649         4.53571        0.283985 
        5.26217          4.5049        0.281731 
        5.27788         4.46564        0.279498 
        5.29359          4.4442        0.277288 
        5.30933         4.41359        0.275099 
        5.32504         4.38219        0.272937 
        5.34073         4.34422          0.2708 
        5.35646         4.31549        0.268682 
        5.37218         4.29198        0.266585 
        5.38789         4.26559        0.264514 
        5.40357         4.22982        0.262467 
        5.41929         4.20688        0.260437 
        5.43502         4.17507        0.258428 
         5.4507         4.14207        0.256444 
        5.46639          4.1172        0.254481 
        5.48212         4.08171        0.252534 
        5.49786         4.06305        0.250604 
        5.51353          4.0234        0.248704 
        5.52921         4.01318        0.246822 
        5.54495         3.98371        0.244953 
        5.56066         3.95371        0.243105 
        5.57637         3.92962        0.241277 
        5.59207         3.90827        0.239469 
        5.60778         3.87272        0.237678 
        5.62346         3.84661        0.235908 
        5.63916         3.82342        0.234154 
        5.65487          3.8012        0.232417 
         5.6706         3.77879        0.230695 
        5.68633         3.74859         0.22899 
        5.70203         3.72113        0.227305 
        5.71773         3.70585        0.225637 
        5.73344          3.6748        0.223985 
        5.74916         3.65328        0.222348 
        5.76486         3.63165        0.220729 
        5.78054         3.61194        0.219129 
        5.79626         3.57947         0.21754 
          5.812         3.56637        0.215964 
         5.8277         3.54357        0.214409 
        5.84339         3.52153        0.212869 
        5.85911         3.49956        0.211341 
        5.87484         3.47798        0.209828 
        5.89053         3.45589        0.208333 
        5.90623         3.43335        0.206851 
        5.92195         3.41067        0.205381 
        5.93767         3.39088        0.203926 
        5.95336         3.37084        0.202487 
        5.96905         3.34676        0.201063 
        5.98476         3.32385         0.19965 
        6.00048         3.31275         0.19825 
        6.01617         3.28992        0.196865 
        6.03185         3.25723        0.195495 
        6.04756         3.24007        0.194135 
        6.06331         3.22434        0.192784 
        6.07903         3.20338        0.191449 
        6.09473          3.1894        0.190128 
        6.11044         3.16167        0.188818 
        6.12616         3.14542         0.18752 
        6.14186         3.13092        0.186236 
        6.15755         3.10689        0.184963 
        6.17326         3.09354        0.183702 
        6.18898           3.075        0.182451 
        6.20467         3.06027        0.181214 
        6.22036         3.03684        0.179989 
         6.2361         3.01792        0.178771 
         6.2518         3.00465        0.177567 
        6.26748         2.98181        0.176376 
        6.28319         2.96464        0.175192 
        6.29893         2.94352        0.174019 
        6.31463         2.92983        0.172858 
        6.33033         2.91731        0.171708 
        6.34604         2.89144        0.170567 
        6.36177         2.87705        0.169435 
        6.37747         2.86902        0.168316 
