# k  (h/Mpc)    Pcb(k)  (Mpc/h)^3    Pcb_linear(k) (Mpc/h)^3   ShotnoiseSubtracted = true
      0.0200456         2462.44         2492.99 
      0.0350414         1657.28         1669.14 
      0.0492313         1171.82         1168.22 
      0.0637834         957.276         945.036 
      0.0800726         728.129         717.476 
       0.096163         503.765          505.48 
       0.111083         399.424         403.168 
       0.126058         356.506         353.303 
       0.142273         295.211          288.46 
       0.158546         231.809         223.931 
        0.17375         191.669         190.425 
       0.188953         176.267         171.159 
       0.204907         157.947         147.156 
       0.220756         129.941         122.779 
        0.23588         113.521         107.606 
         0.2514         101.103          97.495 
       0.267535         91.6193         86.4314 
       0.283568         80.9264          75.286 
       0.299022         73.3557         67.2712 
       0.314451         65.4483         61.4139 
       0.330372         60.2585         55.6168 
       0.346141         54.1094         49.9645 
       0.361624         49.9622         45.3654 
       0.377134         46.7108         41.6929 
       0.392932         41.2277         38.2836 
       0.408854         39.3735         35.0065 
       0.424564         36.7177          32.167 
       0.440253         33.7465         29.7621 
       0.455999         31.5651         27.5918 
       0.471626         29.4802          25.581 
        0.48727         27.7901         23.7591 
       0.502856         25.9346         22.1558 
       0.518488         24.6427         20.7013 
       0.534347         23.5403         19.3397 
       0.550082           21.37         18.0995 
       0.565732         19.8063         16.9837 
       0.581496         19.3181         15.9578 
       0.597222         18.5484         15.0142 
       0.612804         17.2161         14.1497 
       0.628434         16.5391         13.3523 
       0.644267          15.956         12.6091 
       0.660051         15.0231         11.9238 
       0.675724         14.1986         11.2927 
       0.691403         13.6974         10.7062 
       0.707174         13.0824         10.1577 
       0.722871         12.5315         9.64928 
        0.73838           11.98         9.18073 
       0.754018         11.5387         8.73944 
       0.769845          11.032         8.32207 
        0.78569         10.6438         7.93132 
       0.801365         10.1786         7.56927 
       0.817031         9.83178         7.22989 
       0.832809         9.58037         6.90902 
       0.848511         8.97198          6.6089 
       0.864097         8.73122         6.32852 
       0.879701         8.44223         6.06402 
       0.895507         8.04568          5.8114 
       0.911279         7.89007         5.57358 
        0.92691         7.61991         5.35093 
       0.942635         7.27154         5.13912 
       0.958396         7.05632         4.93823 
       0.974128         6.84167         4.74835 
       0.989692         6.72893         4.57024 
        1.00528           6.477         4.40094 
        1.02113         6.20589         4.23749 
        1.03692         6.04051         4.08288 
        1.05264         5.88916         3.93663 
        1.06832         5.72186         3.79771 
        1.08405         5.50142         3.66508 
        1.09979         5.36496         3.53865 
        1.11537         5.26075         3.41939 
        1.13105         5.09178         3.30486 
        1.14679         4.98078          3.1951 
        1.16256         4.80433         3.09007 
        1.17828         4.73269         2.99007 
        1.19395         4.55189         2.89479 
         1.2097         4.43922         2.80315 
        1.22537         4.31153         2.71588 
          1.241         4.22973         2.63255 
        1.25666         4.16299         2.55249 
        1.27241         4.01919         2.47535 
        1.28819         3.91905         2.40125 
        1.30392         3.85649         2.33036 
        1.31957          3.7612         2.26263 
        1.33529         3.66958         2.19731 
        1.35108         3.57355          2.1343 
        1.36674         3.53216         2.07418 
         1.3824         3.39038         2.01641 
        1.39811         3.33599         1.96064 
        1.41389         3.27803         1.90674 
        1.42964         3.20977         1.85493 
        1.44531         3.13942         1.80529 
        1.46101         3.06775         1.75735 
        1.47667         2.99775         1.71127 
        1.49229         2.96111         1.66695 
        1.50793         2.87369         1.62413 
        1.52367         2.83697         1.58253 
        1.53953         2.75921          1.5421 
        1.55526         2.71234         1.50339 
        1.57092         2.66498         1.46615 
        1.58662         2.59931         1.43007 
        1.60235          2.5604         1.39513 
        1.61809         2.51033         1.36133 
        1.63369         2.46342         1.32893 
        1.64941         2.41633         1.29735 
        1.66519         2.37837         1.26667 
        1.68085         2.32457         1.23719 
        1.69652         2.27739         1.20864 
        1.71228         2.24862         1.18081 
        1.72806          2.2011         1.15383 
        1.74368         2.15647         1.12795 
        1.75933         2.12771         1.10281 
        1.77505         2.09722         1.07831 
        1.79081         2.05016          1.0545 
         1.8065           2.021         1.03151 
        1.82218          1.9941         1.00921 
        1.83797         1.96849        0.987419 
        1.85367         1.92272        0.966382 
        1.86928         1.89891        0.946078 
        1.88497         1.86509        0.926241 
        1.90073         1.82949        0.906894 
        1.91647         1.79807        0.888111 
        1.93218         1.78401        0.869895 
        1.94787         1.75918        0.852211 
        1.96363         1.71789        0.834944 
        1.97935         1.69426        0.818186 
        1.99499         1.65962        0.801978 
        2.01064         1.64582        0.786181 
         2.0264         1.61892        0.770705 
        2.04216         1.59744         0.75565 
        2.05781         1.56848        0.741088 
        2.07353         1.55378        0.726854 
        2.08928         1.53117        0.712958 
        2.10499         1.50226         0.69946 
        2.12065         1.49413        0.686348 
        2.13633          1.4646        0.673557 
        2.15211         1.44316        0.661006 
        2.16785         1.42551        0.648806 
        2.18349         1.40609        0.636988 
        2.19916         1.37893        0.625436 
        2.21489         1.36688         0.61413 
        2.23063         1.33923        0.603092 
         2.2463         1.32707        0.592373 
        2.26194         1.30661        0.581937 
        2.27765         1.29537        0.571698 
        2.29341         1.27616        0.561675 
        2.30914         1.25493        0.551911 
        2.32486         1.24803        0.542381 
        2.34061         1.22724        0.533059 
        2.35635         1.21012        0.523962 
        2.37203          1.1998        0.515106 
        2.38768         1.18582        0.506471 
        2.40339         1.16776           0.498 
        2.41914         1.15366        0.489702 
        2.43483         1.14198         0.48162 
         2.4505         1.12429        0.473731 
        2.46622         1.11596        0.465991 
        2.48195          1.0986        0.458421 
        2.49759         1.08667        0.451058 
        2.51328          1.0715        0.443835 
        2.52906         1.06287        0.436724 
        2.54479         1.04761        0.429793 
        2.56049         1.03629        0.423024 
        2.57618         1.02597        0.416405 
        2.59189         1.01632        0.409917 
        2.60758         1.00076        0.403575 
        2.62325        0.989366        0.397374 
        2.63898        0.979656         0.39128 
        2.65468        0.969454        0.385325 
        2.67044        0.961504        0.379467 
        2.68618         0.94516        0.373743 
        2.70184        0.937545        0.368159 
        2.71755        0.926249        0.362674 
        2.73329        0.915361        0.357291 
        2.74897        0.907268        0.352033 
        2.76462         0.89823        0.346892 
        2.78034        0.888187        0.341831 
        2.79607        0.877656        0.336865 
        2.81179        0.871188        0.332002 
        2.82749        0.858482        0.327239 
        2.84321         0.85358        0.322563 
        2.85893        0.844358        0.317979 
        2.87462        0.835071        0.313491 
        2.89033        0.821992        0.309085 
        2.90605        0.816232        0.304758 
        2.92176        0.809672        0.300516 
        2.93747        0.801823        0.296355 
        2.95318        0.793476        0.292272 
        2.96891        0.787205        0.288263 
        2.98456        0.779371        0.284346 
        3.00023        0.770911        0.280495 
        3.01596        0.765509        0.276703 
        3.03164        0.761095        0.272991 
        3.04738        0.748118        0.269335 
         3.0631        0.742514        0.265747 
        3.07883        0.735419        0.262223 
        3.09456        0.731342        0.258763 
        3.11026        0.723325         0.25537 
        3.12596        0.715258        0.252038 
        3.14163        0.710785        0.248772 
        3.15734        0.702465        0.245555 
        3.17308        0.696149        0.242387 
        3.18879        0.691846        0.239283 
        3.20447        0.685642        0.236238 
         3.2202        0.678722        0.233235 
         3.2359        0.672355        0.230289 
        3.25157        0.668045        0.227401 
        3.26729        0.660342        0.224552 
        3.28304        0.657775        0.221747 
        3.29877        0.648665        0.218992 
        3.31446         0.64472         0.21629 
        3.33014        0.641518        0.213635 
        3.34585        0.635494         0.21102 
        3.36158        0.627269        0.208445 
        3.37727        0.625253         0.20592 
        3.39294        0.618275        0.203439 
        3.40867        0.612725        0.200989 
        3.42439         0.61019         0.19858 
        3.44008        0.605288        0.196216 
        3.45578        0.600913        0.193887 
        3.47153        0.595927        0.191591 
        3.48724        0.589878        0.189335 
        3.50292        0.586868        0.187121 
        3.51859        0.583467        0.184943 
        3.53431        0.577294        0.182792 
        3.55007        0.573924         0.18067 
        3.56577        0.569519        0.178589 
        3.58146        0.567272        0.176542 
        3.59719        0.559796        0.174522 
        3.61292        0.558263        0.172533 
        3.62859          0.5527        0.170583 
        3.64429        0.547615        0.168659 
        3.66003        0.544452        0.166758 
        3.67578        0.540882        0.164887 
        3.69146         0.53817        0.163052 
        3.70712        0.532626        0.161247 
        3.72284         0.52978        0.159463 
        3.73853        0.526421        0.157708 
        3.75422        0.522558        0.155979 
        3.76993        0.519798        0.154274 
        3.78564        0.515619        0.152595 
        3.80137        0.511732        0.150938 
        3.81707        0.509638        0.149308 
        3.83279        0.504439        0.147701 
        3.84853         0.50152        0.146115 
        3.86424         0.49743        0.144555 
        3.87992        0.496626         0.14302 
        3.89561         0.49118        0.141507 
        3.91134        0.488251        0.140012 
        3.92704        0.485452        0.138541 
        3.94273         0.48173        0.137091 
        3.95845        0.479206         0.13566 
        3.97418        0.474103        0.134249 
        3.98988        0.471974        0.132859 
        4.00554        0.468864        0.131492 
        4.02125        0.464223        0.130141 
        4.03698        0.460343        0.128806 
        4.05268        0.456887        0.127493 
        4.06839        0.452039        0.126197 
         4.0841        0.449623        0.124919 
        4.09983        0.445641        0.123657 
        4.11555        0.443722        0.122412 
        4.13124        0.438027        0.121188 
        4.14693        0.434987         0.11998 
        4.16266        0.431251        0.118785 
        4.17839        0.429449        0.117606 
        4.19408        0.426497        0.116447 
        4.20977        0.421712        0.115302 
        4.22551        0.419866        0.114169 
        4.24123        0.416843        0.113053 
        4.25691        0.414093        0.111955 
        4.27259        0.411428         0.11087 
        4.28831        0.408713        0.109798 
        4.30404        0.405092        0.108739 
        4.31974        0.402598        0.107696 
        4.33543        0.400064        0.106667 
        4.35116        0.398409        0.105648 
        4.36688        0.396008        0.104644 
        4.38255        0.393138        0.103656 
        4.39825         0.39208        0.102678 
        4.41398        0.389122        0.101711 
         4.4297        0.386285        0.100757 
        4.44541        0.384156       0.0998156 
        4.46111         0.38374       0.0988867 
        4.47683        0.380944       0.0979688 
        4.49251        0.379414       0.0970643 
        4.50819        0.377467       0.0961713 
         4.5239        0.375647       0.0952882 
        4.53962        0.375026       0.0944149 
        4.55535         0.37185        0.093552 
        4.57106        0.371802        0.092701 
        4.58678         0.36854       0.0918602 
         4.6025        0.368327       0.0910296 
        4.61821        0.365774       0.0902093 
        4.63391        0.365692          0.0894 
         4.6496        0.362821       0.0886009 
        4.66532        0.363004       0.0878102 
        4.68103        0.360584       0.0870294 
        4.69673            0.36       0.0862586 
        4.71241        0.358751       0.0854979 
        4.72811        0.358164        0.084745 
        4.74384        0.356482       0.0840001 
        4.75955        0.355906       0.0832652 
        4.77525        0.354987       0.0825394 
        4.79096        0.354652       0.0818212 
        4.80669        0.354299       0.0811112 
         4.8224        0.353801       0.0804102 
        4.83809        0.351912       0.0797182 
        4.85379        0.352523       0.0790339 
         4.8695         0.35187       0.0783569 
        4.88521         0.34969        0.077688 
        4.90093         0.35011       0.0770268 
        4.91663        0.350453       0.0763737 
        4.93234        0.349425       0.0757274 
        4.94807        0.349134       0.0750882 
        4.96377        0.348024       0.0744573 
        4.97943        0.348705        0.073835 
        4.99514         0.34871       0.0732181 
        5.01086        0.348207       0.0726077 
        5.02654         0.34899       0.0720058 
        5.04227        0.348317       0.0714088 
          5.058        0.348015       0.0708182 
        5.07371        0.347444       0.0702354 
        5.08942        0.349255       0.0696589 
        5.10513        0.348173       0.0690888 
        5.12084        0.348739       0.0685248 
        5.13656        0.349122        0.067967 
        5.15225         0.34928       0.0674164 
        5.16796        0.349557       0.0668709 
        5.18369        0.350576       0.0663308 
         5.1994        0.350864       0.0657977 
        5.21509        0.351334       0.0652708 
        5.23079        0.351187       0.0647489 
        5.24649        0.351927       0.0642332 
        5.26217        0.352378       0.0637233 
        5.27788        0.353224       0.0632182 
        5.29359        0.353434       0.0627184 
        5.30933        0.353645       0.0622232 
        5.32504        0.355711       0.0617342 
        5.34073        0.356264       0.0612509 
        5.35646        0.356045       0.0607717 
        5.37218        0.358276       0.0602975 
        5.38789        0.358485        0.059829 
        5.40357        0.360076        0.059366 
        5.41929        0.359739       0.0589068 
        5.43502        0.361538       0.0584524 
         5.4507        0.362327       0.0580038 
        5.46639        0.363585       0.0575598 
        5.48212        0.364545       0.0571193 
        5.49786        0.364763       0.0566829 
        5.51353        0.366894       0.0562531 
        5.52921        0.368201       0.0558273 
        5.54495        0.369335       0.0554047 
        5.56066        0.368645       0.0549868 
        5.57637        0.371601       0.0545732 
        5.59207        0.373602       0.0541642 
        5.60778        0.374091       0.0537591 
        5.62346        0.375181       0.0533588 
        5.63916        0.377522        0.052962 
        5.65487        0.378023       0.0525691 
         5.6706        0.379852       0.0521797 
        5.68633        0.381609       0.0517939 
        5.70203        0.383346       0.0514129 
        5.71773        0.384274       0.0510357 
        5.73344        0.385234        0.050662 
        5.74916        0.386201       0.0502917 
        5.76486        0.389399       0.0499256 
        5.78054        0.389934       0.0495636 
        5.79626        0.390492       0.0492041 
          5.812         0.39358       0.0488479 
         5.8277        0.394519       0.0484961 
        5.84339        0.396468       0.0481478 
        5.85911        0.398306       0.0478021 
        5.87484        0.399041       0.0474599 
        5.89053         0.40075       0.0471217 
        5.90623        0.403317       0.0467866 
        5.92195        0.404151       0.0464541 
        5.93767         0.40505        0.046125 
        5.95336          0.4068       0.0457996 
        5.96905        0.410576       0.0454774 
        5.98476        0.410399       0.0451578 
        6.00048        0.412126       0.0448412 
        6.01617        0.414851        0.044528 
        6.03185        0.416303       0.0442181 
        6.04756        0.417859       0.0439104 
        6.06331        0.419931       0.0436049 
        6.07903        0.421934       0.0433029 
        6.09473        0.421625       0.0430041 
        6.11044        0.424197       0.0427077 
        6.12616        0.426364       0.0424142 
        6.14186        0.426453       0.0421237 
        6.15755        0.428887       0.0418359 
        6.17326         0.43195       0.0415505 
        6.18898        0.432535       0.0412676 
        6.20467        0.434815       0.0409879 
        6.22036        0.435443       0.0407107 
         6.2361        0.437422       0.0404353 
         6.2518        0.439894       0.0401629 
        6.26748        0.440155       0.0398935 
        6.28319         0.44233       0.0396259 
        6.29893        0.445243       0.0393604 
        6.31463        0.445557       0.0390978 
        6.33033        0.446548       0.0388376 
        6.34604        0.446695       0.0385796 
        6.36177         0.45105       0.0383237 
        6.37747          0.4518       0.0380706 
