# k  (h/Mpc)    Pcb(k)  (Mpc/h)^3    Pcb_linear(k) (Mpc/h)^3   ShotnoiseSubtracted = true
      0.0200456         22708.6         23048.3 
      0.0350414         16025.7         15431.6 
      0.0492313         10636.1         10800.5 
      0.0637834         8366.95         8737.09 
      0.0800726         6320.35         6633.25 
       0.096163         4974.41         4673.29 
       0.111083         4027.02         3727.39 
       0.126058         3303.01         3266.37 
       0.142273          2824.2         2666.88 
       0.158546         2286.44         2070.29 
        0.17375         2034.87         1760.52 
       0.188953         1916.77         1582.41 
       0.204907         1623.84         1360.49 
       0.220756         1458.31         1135.12 
        0.23588         1298.32         994.849 
         0.2514         1165.18         901.366 
       0.267535         1120.28          799.08 
       0.283568         988.946         696.038 
       0.299022         937.954         621.939 
       0.314451         974.388         567.787 
       0.330372         846.553         514.192 
       0.346141         775.436         461.935 
       0.361624         741.836         419.414 
       0.377134         708.474         385.462 
       0.392932         671.739         353.942 
       0.408854         643.647         323.644 
       0.424564         626.693         297.392 
       0.440253         575.362         275.158 
       0.455999         548.324         255.093 
       0.471626         558.011         236.503 
        0.48727         523.297         219.659 
       0.502856         498.992         204.836 
       0.518488         484.437         191.389 
       0.534347         463.237           178.8 
       0.550082         440.533         167.334 
       0.565732          434.01         157.019 
       0.581496         422.308         147.534 
       0.597222          411.86          138.81 
       0.612804         400.655         130.817 
       0.628434         384.013         123.445 
       0.644267         371.206         116.574 
       0.660051         366.753         110.238 
       0.675724         357.065         104.404 
       0.691403         348.777         98.9816 
       0.707174         336.159           93.91 
       0.722871         332.058           89.21 
        0.73838         324.283         84.8782 
       0.754018         313.851         80.7983 
       0.769845         312.135         76.9396 
        0.78569         303.497          73.327 
       0.801365         292.961         69.9798 
       0.817031         291.676         66.8422 
       0.832809         285.349         63.8756 
       0.848511         280.232         61.1009 
       0.864097         271.288         58.5088 
       0.879701         270.831         56.0634 
       0.895507         261.256         53.7279 
       0.911279         256.126         51.5292 
        0.92691         253.635         49.4707 
       0.942635         249.925         47.5124 
       0.958396         242.378         45.6551 
       0.974128         239.829         43.8997 
       0.989692         231.494          42.253 
        1.00528         230.135         40.6878 
        1.02113         227.456         39.1766 
        1.03692         222.668         37.7472 
        1.05264         218.504         36.3951 
        1.06832         215.417         35.1108 
        1.08405          212.01         33.8846 
        1.09979         208.244         32.7157 
        1.11537         204.635         31.6131 
        1.13105         200.848         30.5543 
        1.14679         198.762         29.5395 
        1.16256         196.186         28.5685 
        1.17828         193.201         27.6439 
        1.19395         188.057         26.7631 
         1.2097          187.67         25.9158 
        1.22537         185.074          25.109 
          1.241         179.074         24.3386 
        1.25666         178.701         23.5984 
        1.27241          175.54         22.8853 
        1.28819         172.811         22.2001 
        1.30392         171.523         21.5448 
        1.31957         166.868         20.9186 
        1.33529         163.927         20.3147 
        1.35108           163.4         19.7321 
        1.36674         158.554         19.1763 
         1.3824         157.531         18.6423 
        1.39811         156.443         18.1266 
        1.41389         152.475         17.6283 
        1.42964         149.872         17.1493 
        1.44531         149.205         16.6904 
        1.46101         146.335         16.2471 
        1.47667         144.972         15.8211 
        1.49229         143.082         15.4113 
        1.50793         140.295         15.0155 
        1.52367         138.309         14.6309 
        1.53953         135.922         14.2571 
        1.55526         134.583         13.8992 
        1.57092         133.823         13.5549 
        1.58662         130.722         13.2214 
        1.60235         129.451         12.8983 
        1.61809         127.154         12.5858 
        1.63369         124.959         12.2863 
        1.64941         123.966         11.9943 
        1.66519         121.902         11.7107 
        1.68085          119.98         11.4382 
        1.69652         119.003         11.1741 
        1.71228         116.706         10.9169 
        1.72806         115.895         10.6674 
        1.74368         114.402         10.4282 
        1.75933         113.154         10.1957 
        1.77505         111.583         9.96923 
        1.79081          109.64         9.74913 
         1.8065         107.882         9.53655 
        1.82218         106.266         9.33043 
        1.83797         105.382         9.12894 
        1.85367         104.314         8.93445 
        1.86928         103.142         8.74673 
        1.88497         101.745         8.56333 
        1.90073         100.771         8.38446 
        1.91647         98.9054         8.21081 
        1.93218         97.7931          8.0424 
        1.94787         96.0633         7.87891 
        1.96363          95.593         7.71927 
        1.97935         94.3231         7.56433 
        1.99499         93.2077         7.41448 
        2.01064         91.5942         7.26844 
         2.0264         90.4447         7.12537 
        2.04216         89.3161         6.98618 
        2.05781         88.1049         6.85155 
        2.07353         87.4038         6.71995 
        2.08928         86.0893         6.59148 
        2.10499         85.5256         6.46668 
        2.12065         83.9522         6.34546 
        2.13633         83.2346          6.2272 
        2.15211         81.8934         6.11116 
        2.16785         80.9413         5.99838 
        2.18349         79.5624         5.88912 
        2.19916         79.3004         5.78232 
        2.21489         78.1798         5.67778 
        2.23063         76.7375         5.57574 
         2.2463         76.0534         5.47663 
        2.26194         75.4103         5.38016 
        2.27765         74.1605         5.28549 
        2.29341         73.3401         5.19283 
        2.30914         72.2337         5.10255 
        2.32486         71.3176         5.01445 
        2.34061         70.3459         4.92826 
        2.35635         69.8873         4.84416 
        2.37203         68.7507         4.76228 
        2.38768         67.9648         4.68245 
        2.40339         67.1089         4.60414 
        2.41914         66.4234         4.52742 
        2.43483         65.7246         4.45269 
         2.4505          64.678         4.37977 
        2.46622         63.9408          4.3082 
        2.48195         63.5604         4.23822 
        2.49759         62.4764         4.17014 
        2.51328         61.6963         4.10337 
        2.52906          60.891         4.03762 
        2.54479         60.2904         3.97354 
        2.56049         59.3736         3.91096 
        2.57618         58.7386         3.84977 
        2.59189         58.0528         3.78978 
        2.60758         57.1746         3.73115 
        2.62325          56.691         3.67382 
        2.63898         56.3742         3.61748 
        2.65468         55.5184         3.56243 
        2.67044         54.9309         3.50827 
        2.68618         54.4706         3.45535 
        2.70184         53.6661         3.40372 
        2.71755           53.08         3.35301 
        2.73329         52.3484         3.30324 
        2.74897         51.9622         3.25464 
        2.76462         51.2549          3.2071 
        2.78034         50.5941         3.16031 
        2.79607         50.2461          3.1144 
        2.81179         49.7122         3.06944 
        2.82749         49.3032         3.02541 
        2.84321         48.5981         2.98218 
        2.85893          48.001          2.9398 
        2.87462         47.6552          2.8983 
        2.89033         46.9429         2.85757 
        2.90605         46.4123         2.81757 
        2.92176         45.9454         2.77834 
        2.93747         45.6158         2.73988 
        2.95318         45.0344         2.70213 
        2.96891         44.4646         2.66506 
        2.98456         43.8958         2.62885 
        3.00023         43.6257         2.59325 
        3.01596         42.9564         2.55819 
        3.03164         42.4717         2.52387 
        3.04738         42.1532         2.49007 
         3.0631         41.5961          2.4569 
        3.07883         41.0217         2.42432 
        3.09456         40.6243         2.39233 
        3.11026         40.3255         2.36096 
        3.12596         39.7807         2.33015 
        3.14163         39.3976         2.29996 
        3.15734         38.8722         2.27022 
        3.17308         38.6119         2.24093 
        3.18879         38.2807         2.21224 
        3.20447         37.9055         2.18408 
         3.2202         37.3613         2.15632 
         3.2359         37.0364         2.12908 
        3.25157         36.7213         2.10238 
        3.26729         36.2231         2.07604 
        3.28304         35.9023         2.05011 
        3.29877         35.4726         2.02464 
        3.31446         35.1297         1.99966 
        3.33014         34.8278         1.97511 
        3.34585         34.3116         1.95094 
        3.36158         34.0706         1.92713 
        3.37727          33.624         1.90378 
        3.39294         33.4499         1.88084 
        3.40867         33.0811         1.85819 
        3.42439          32.793         1.83593 
        3.44008         32.3659         1.81406 
        3.45578         32.0587         1.79254 
        3.47153         31.7096         1.77131 
        3.48724         31.3714         1.75045 
        3.50292         31.0774         1.72998 
        3.51859         30.7466         1.70984 
        3.53431         30.5194         1.68996 
        3.55007          30.237         1.67034 
        3.56577         29.9601          1.6511 
        3.58146         29.6343         1.63217 
        3.59719         29.3261          1.6135 
        3.61292         29.0394         1.59511 
        3.62859         28.7523         1.57708 
        3.64429         28.4769         1.55929 
        3.66003         28.2888         1.54172 
        3.67578         27.9506         1.52442 
        3.69146         27.6833         1.50745 
        3.70712         27.3555         1.49077 
        3.72284         27.1019         1.47427 
        3.73853         26.9196         1.45805 
        3.75422         26.5473         1.44206 
        3.76993         26.4347          1.4263 
        3.78564         26.1371         1.41078 
        3.80137         25.9408         1.39546 
        3.81707         25.6112         1.38039 
        3.83279         25.4858         1.36554 
        3.84853         25.1176         1.35087 
        3.86424         24.9184         1.33645 
        3.87992         24.7193         1.32226 
        3.89561         24.4239         1.30827 
        3.91134         24.2083         1.29445 
        3.92704         23.9863         1.28084 
        3.94273         23.7364         1.26745 
        3.95845         23.5615         1.25421 
        3.97418         23.3166         1.24116 
        3.98988          23.055         1.22831 
        4.00554         22.9131         1.21568 
        4.02125         22.6766         1.20319 
        4.03698         22.4474         1.19085 
        4.05268         22.3084         1.17871 
        4.06839         22.0479         1.16672 
         4.0841         21.8864         1.15491 
        4.09983         21.6063         1.14324 
        4.11555         21.4192         1.13173 
        4.13124         21.2704         1.12042 
        4.14693         21.0267         1.10924 
        4.16266         20.8424         1.09819 
        4.17839         20.7128          1.0873 
        4.19408         20.5488         1.07658 
        4.20977         20.3134         1.06599 
        4.22551         20.1564         1.05552 
        4.24123         19.9586         1.04521 
        4.25691         19.7495         1.03505 
        4.27259         19.6666         1.02503 
        4.28831         19.4251         1.01511 
        4.30404         19.2749         1.00532 
        4.31974         19.1189        0.995673 
        4.33543         18.9303        0.986159 
        4.35116         18.7633        0.976745 
        4.36688          18.653        0.967456 
        4.38255         18.4445        0.958321 
        4.39825         18.2641        0.949283 
        4.41398         18.1176        0.940342 
         4.4297         17.9967        0.931524 
        4.44541         17.8259         0.92282 
        4.46111         17.6603        0.914232 
        4.47683         17.5433        0.905746 
        4.49251          17.334        0.897384 
        4.50819         17.2447        0.889128 
         4.5239         17.0564        0.880963 
        4.53962         16.9291        0.872889 
        4.55535         16.7837        0.864911 
        4.57106          16.662        0.857044 
        4.58678         16.4623        0.849271 
         4.6025          16.399        0.841592 
        4.61821         16.2111        0.834008 
        4.63391         16.0998        0.826526 
         4.6496         15.9351        0.819137 
        4.66532         15.8257        0.811827 
        4.68103         15.7007        0.804608 
        4.69673          15.518        0.797483 
        4.71241         15.4615         0.79045 
        4.72811         15.2457        0.783489 
        4.74384         15.1633        0.776602 
        4.75955         15.0671        0.769808 
        4.77525         14.9343        0.763097 
        4.79096         14.8259        0.756458 
        4.80669         14.6895        0.749893 
         4.8224         14.5724        0.743413 
        4.83809         14.4272        0.737015 
        4.85379         14.3149        0.730688 
         4.8695         14.2507        0.724429 
        4.88521         14.0861        0.718245 
        4.90093         13.9814        0.712132 
        4.91663         13.8759        0.706094 
        4.93234         13.7461        0.700119 
        4.94807         13.6537        0.694209 
        4.96377         13.5474        0.688377 
        4.97943         13.4609        0.682623 
        4.99514         13.3573         0.67692 
        5.01086         13.2105        0.671277 
        5.02654         13.1219        0.665711 
        5.04227         12.9938        0.660192 
          5.058          12.905        0.654732 
        5.07371         12.8226        0.649344 
        5.08942         12.7614        0.644014 
        5.10513         12.6485        0.638744 
        5.12084         12.5431        0.633529 
        5.13656         12.4255        0.628372 
        5.15225         12.3574        0.623281 
        5.16796         12.2281        0.618238 
        5.18369         12.1716        0.613245 
         5.1994         12.0355        0.608316 
        5.21509         11.9672        0.603445 
        5.23079          11.875         0.59862 
        5.24649         11.7843        0.593852 
        5.26217         11.6952        0.589138 
        5.27788         11.6072        0.584468 
        5.29359         11.5162        0.579848 
        5.30933         11.4315         0.57527 
        5.32504         11.3426        0.570748 
        5.34073         11.2585         0.56628 
        5.35646         11.1852        0.561849 
        5.37218         11.1009        0.557465 
        5.38789          11.021        0.553134 
        5.40357         10.9403        0.548854 
        5.41929         10.8509        0.544609 
        5.43502         10.7414        0.540407 
         5.4507         10.6785         0.53626 
        5.46639          10.611        0.532155 
        5.48212         10.5096        0.528083 
        5.49786         10.4184        0.524048 
        5.51353         10.4026        0.520074 
        5.52921         10.2961        0.516138 
        5.54495         10.2036         0.51223 
        5.56066          10.153        0.508366 
        5.57637         10.0577        0.504543 
        5.59207         9.98539        0.500761 
        5.60778         9.91011        0.497017 
        5.62346         9.85385        0.493315 
        5.63916         9.78654        0.489647 
        5.65487         9.69212        0.486015 
         5.6706         9.63202        0.482414 
        5.68633          9.5845        0.478848 
        5.70203         9.50551        0.475325 
        5.71773         9.42043        0.471838 
        5.73344         9.36313        0.468383 
        5.74916         9.29636         0.46496 
        5.76486         9.23832        0.461574 
        5.78054         9.16605        0.458228 
        5.79626         9.08468        0.454905 
          5.812         9.03484        0.451611 
         5.8277         8.98269        0.448359 
        5.84339         8.89897        0.445138 
        5.85911         8.84576        0.441943 
        5.87484         8.76562        0.438779 
        5.89053         8.70521        0.435652 
        5.90623         8.66709        0.432554 
        5.92195         8.60248         0.42948 
        5.93767         8.51262        0.426437 
        5.95336           8.478        0.423429 
        5.96905         8.40638         0.42045 
        5.98476         8.35583        0.417496 
        6.00048         8.29434        0.414568 
        6.01617          8.2393        0.411672 
        6.03185         8.19023        0.408807 
        6.04756         8.14126        0.405962 
        6.06331          8.0762        0.403138 
        6.07903         8.03047        0.400347 
        6.09473         7.96868        0.397583 
        6.11044         7.90327        0.394844 
        6.12616         7.84707         0.39213 
        6.14186         7.80095        0.389444 
        6.15755         7.75097        0.386783 
        6.17326         7.69979        0.384145 
        6.18898         7.65476         0.38153 
        6.20467         7.60108        0.378943 
        6.22036         7.53476        0.376381 
         6.2361         7.50332        0.373834 
         6.2518         7.44537        0.371316 
        6.26748         7.40159        0.368826 
        6.28319         7.34794        0.366351 
        6.29893          7.2937        0.363897 
        6.31463         7.24269        0.361469 
        6.33033         7.20604        0.359064 
        6.34604         7.14848        0.356679 
        6.36177         7.12203        0.354312 
        6.37747         7.06799        0.351972 
