# k  (h/Mpc)    Pcb(k)  (Mpc/h)^3    Pcb_linear(k) (Mpc/h)^3   ShotnoiseSubtracted = true
      0.0200456         15374.4         15698.2 
      0.0350414         10991.8         11412.1 
      0.0492313         8176.56         8291.79 
      0.0637834         7030.41         6892.89 
      0.0800726         5556.53         5470.72 
       0.096163         3867.07         3969.48 
       0.111083         3087.85         3166.16 
       0.126058         2847.85         2805.86 
       0.142273         2463.43         2377.18 
       0.158546         2102.21         1877.48 
        0.17375         1681.42         1581.77 
       0.188953         1634.52         1432.26 
       0.204907         1536.63         1267.26 
       0.220756         1318.72         1072.18 
        0.23588         1168.12         932.701 
         0.2514         1016.57         847.349 
       0.267535         1004.63         766.705 
       0.283568         911.067         676.131 
       0.299022         855.797         602.398 
       0.314451         812.434         550.551 
       0.330372         748.151         505.069 
       0.346141         692.379         458.427 
       0.361624          665.92         416.647 
       0.377134         618.276         383.381 
       0.392932         593.934         354.735 
       0.408854         573.956         326.997 
       0.424564         538.889         301.398 
       0.440253         528.001         279.431 
       0.455999         499.078          260.33 
       0.471626         473.214         242.776 
        0.48727         456.868         226.355 
       0.502856         443.788         211.603 
       0.518488         439.436         198.441 
       0.534347         410.668         186.205 
       0.550082         392.661         174.923 
       0.565732         391.564         164.601 
       0.581496         368.528         155.147 
       0.597222         362.963         146.478 
       0.612804         352.436         138.505 
       0.628434         339.318         131.074 
       0.644267         329.957         124.127 
       0.660051         322.326         117.725 
       0.675724         317.891         111.812 
       0.691403         308.258         106.301 
       0.707174         297.331          101.13 
       0.722871         293.696         96.3239 
        0.73838         289.343         91.8814 
       0.754018          281.43         87.6855 
       0.769845         272.357         83.7061 
        0.78569         272.108         79.9702 
       0.801365         262.686         76.4996 
       0.817031         254.669         73.2381 
       0.832809         252.745          70.147 
       0.848511          245.82          67.249 
       0.864097          242.43         64.5355 
       0.879701         238.644         61.9698 
       0.895507          233.06         59.5139 
       0.911279         225.634         57.1969 
        0.92691         225.661          55.023 
       0.942635         219.965         52.9506 
       0.958396         217.717          50.981 
       0.974128         213.302         49.1156 
       0.989692         208.681         47.3624 
        1.00528         206.142         45.6925 
        1.02113         204.332         44.0773 
        1.03692         199.132         42.5465 
        1.05264         195.293         41.0957 
        1.06832         191.928         39.7151 
        1.08405         188.711         38.3945 
        1.09979         186.857         37.1334 
        1.11537         182.619         35.9417 
        1.13105         179.394         34.7953 
        1.14679         179.559         33.6947 
        1.16256         176.182         32.6398 
        1.17828         172.646         31.6337 
        1.19395         170.092         30.6735 
         1.2097         169.464         29.7485 
        1.22537         165.679         28.8662 
          1.241         164.044         28.0224 
        1.25666         160.989         27.2105 
        1.27241         158.311         26.4269 
        1.28819         156.641         25.6731 
        1.30392          153.95         24.9509 
        1.31957          153.36         24.2598 
        1.33529         149.146         23.5924 
        1.35108         148.122         22.9476 
        1.36674         146.806         22.3315 
         1.3824         144.123         21.7387 
        1.39811         143.748         21.1656 
        1.41389         140.763         20.6109 
        1.42964         138.001         20.0771 
        1.44531         135.945         19.5649 
        1.46101         134.511         19.0695 
        1.47667         132.482         18.5928 
        1.49229         130.855         18.1337 
        1.50793         129.839         17.6896 
        1.52367         128.377         17.2576 
        1.53953         125.636         16.8372 
        1.55526         124.419         16.4341 
        1.57092         122.924         16.0459 
        1.58662          121.02         15.6694 
        1.60235         120.137         15.3043 
        1.61809          118.02         14.9506 
        1.63369         116.808         14.6113 
        1.64941         115.683         14.2801 
        1.66519         113.623          13.958 
        1.68085         112.912         13.6482 
        1.69652         110.191         13.3476 
        1.71228         110.164         13.0545 
        1.72806         108.732         12.7699 
        1.74368         107.482         12.4967 
        1.75933         105.921          12.231 
        1.77505         104.688         11.9717 
        1.79081         103.443         11.7195 
         1.8065         102.112         11.4757 
        1.82218         100.331         11.2391 
        1.83797         98.9335         11.0075 
        1.85367         98.1326         10.7837 
        1.86928         97.1812         10.5675 
        1.88497         95.3181         10.3561 
        1.90073          94.944         10.1496 
        1.91647         93.5231         9.94903 
        1.93218         92.4235         9.75428 
        1.94787         91.5524         9.56504 
        1.96363         90.1604         9.38007 
        1.97935         88.9542         9.20039 
        1.99499         88.2493         9.02643 
        2.01064         87.2583         8.85673 
         2.0264         85.7299         8.69033 
        2.04216         84.9893         8.52829 
        2.05781         83.9007         8.37141 
        2.07353         82.4759         8.21792 
        2.08928         81.5341         8.06796 
        2.10499         80.5232         7.92214 
        2.12065         80.2293         7.78036 
        2.13633          79.198         7.64194 
        2.15211         78.2199           7.506 
        2.16785         77.0394         7.37374 
        2.18349         76.1067         7.24551 
        2.19916         75.4047         7.12006 
        2.21489         74.4428         6.99717 
        2.23063         73.6007          6.8771 
         2.2463         72.7728         6.76038 
        2.26194         72.4988         6.64667 
        2.27765         71.3051           6.535 
        2.29341           70.37          6.4256 
        2.30914          69.425         6.31894 
        2.32486         68.6638         6.21476 
        2.34061         67.9513         6.11275 
        2.35635         67.1942         6.01313 
        2.37203         66.1812         5.91607 
        2.38768         65.5145         5.82136 
        2.40339          64.826         5.72839 
        2.41914         64.1856         5.63722 
        2.43483         63.8676         5.54837 
         2.4505         62.9199         5.46158 
        2.46622          62.211         5.37635 
        2.48195         61.4438         5.29293 
        2.49759         60.6086         5.21173 
        2.51328         60.0522         5.13203 
        2.52906         59.5833         5.05349 
        2.54479         58.8299         4.97688 
        2.56049         57.9978         4.90201 
        2.57618         57.5659         4.82875 
        2.59189         56.7799         4.75688 
        2.60758         56.4268         4.68658 
        2.62325         55.7228         4.61779 
        2.63898         55.1518         4.55014 
        2.65468         54.7037         4.48399 
        2.67044         53.8433         4.41887 
        2.68618         53.5208          4.3552 
        2.70184         52.8064         4.29303 
        2.71755         52.5572         4.23193 
        2.73329          51.597         4.17192 
        2.74897         51.1805         4.11327 
        2.76462         50.6109         4.05587 
        2.78034         50.1994         3.99934 
        2.79607         49.4672         3.94382 
        2.81179         48.9769         3.88943 
        2.82749         48.4057         3.83612 
        2.84321         47.9958         3.78374 
        2.85893         47.4281         3.73237 
        2.87462         46.8553         3.68203 
        2.89033         46.3723         3.63258 
        2.90605         45.9318         3.58399 
        2.92176         45.4789         3.53632 
        2.93747         45.0395         3.48954 
        2.95318         44.4497         3.44359 
        2.96891         43.8766         3.39845 
        2.98456         43.7213         3.35433 
        3.00023         43.1338         3.31091 
        3.01596         42.8429         3.26814 
        3.03164         42.2286         3.22624 
        3.04738         41.9927         3.18495 
         3.0631         41.4637          3.1444 
        3.07883         41.0739         3.10456 
        3.09456         40.5952         3.06541 
        3.11026         40.0962         3.02699 
        3.12596         39.9067         2.98924 
        3.14163         39.3643         2.95222 
        3.15734         38.7422         2.91574 
        3.17308          38.724         2.87979 
        3.18879         38.4167         2.84454 
        3.20447         37.8327         2.80994 
         3.2202         37.3911          2.7758 
         3.2359         37.0517         2.74229 
        3.25157         36.7132         2.70942 
        3.26729          36.334         2.67698 
        3.28304         35.8782         2.64501 
        3.29877         35.6514          2.6136 
        3.31446         35.3678         2.58278 
        3.33014         34.9343         2.55247 
        3.34585         34.6709         2.52261 
        3.36158         34.3036         2.49318 
        3.37727         33.9344         2.46431 
        3.39294          33.625         2.43593 
        3.40867         33.3035         2.40789 
        3.42439         32.9856          2.3803 
        3.44008         32.8647          2.3532 
        3.45578         32.3006         2.32651 
        3.47153         32.0043         2.30017 
        3.48724         31.7614         2.27428 
        3.50292         31.4677         2.24885 
        3.51859          31.169         2.22382 
        3.53431         30.9011          2.1991 
        3.55007         30.6321         2.17469 
        3.56577         30.3513         2.15075 
        3.58146         30.0733         2.12718 
        3.59719         29.7403          2.1039 
        3.61292          29.529         2.08099 
        3.62859         29.1763          2.0585 
        3.64429         28.8376          2.0363 
        3.66003         28.5975         2.01436 
        3.67578         28.3729         1.99275 
        3.69146         28.1678         1.97154 
        3.70712         27.8679         1.95067 
        3.72284         27.7375         1.93003 
        3.73853         27.4014         1.90973 
        3.75422         27.1308         1.88971 
        3.76993         26.9753         1.86996 
        3.78564         26.6686          1.8505 
        3.80137         26.4542         1.83128 
        3.81707         26.2383         1.81238 
        3.83279         26.0195         1.79373 
        3.84853         25.6708         1.77531 
        3.86424         25.4348         1.75719 
        3.87992          25.246         1.73934 
        3.89561         24.9993         1.72174 
        3.91134         24.8222         1.70435 
        3.92704         24.5967         1.68722 
        3.94273         24.3645         1.67035 
        3.95845         24.0615         1.65367 
        3.97418         23.9632         1.63721 
        3.98988         23.6909         1.62101 
        4.00554         23.4727         1.60506 
        4.02125         23.3757         1.58929 
        4.03698         23.0703          1.5737 
        4.05268         22.9083         1.55836 
        4.06839         22.6682         1.54321 
         4.0841         22.5348         1.52826 
        4.09983         22.3436         1.51349 
        4.11555         22.1494         1.49893 
        4.13124         21.8358         1.48459 
        4.14693         21.6716         1.47043 
        4.16266         21.4935         1.45642 
        4.17839         21.3189         1.44261 
        4.19408         21.1186           1.429 
        4.20977         21.0033         1.41556 
        4.22551         20.7745         1.40227 
        4.24123         20.6119         1.38915 
        4.25691          20.443         1.37625 
        4.27259         20.2568          1.3635 
        4.28831         20.0839         1.35088 
        4.30404         19.8807         1.33842 
        4.31974         19.7759         1.32614 
        4.33543         19.6042         1.31402 
        4.35116         19.4682         1.30202 
        4.36688           19.26         1.29017 
        4.38255         19.1362         1.27852 
        4.39825         19.0084         1.26699 
        4.41398         18.7845         1.25557 
         4.4297         18.6391         1.24431 
        4.44541          18.522         1.23319 
        4.46111         18.3435         1.22221 
        4.47683         18.1837         1.21136 
        4.49251         18.0675         1.20066 
        4.50819         17.8987          1.1901 
         4.5239         17.7741         1.17964 
        4.53962         17.5861          1.1693 
        4.55535         17.4564         1.15908 
        4.57106         17.3215         1.14899 
        4.58678         17.1898         1.13902 
         4.6025         17.0399         1.12917 
        4.61821         16.9236         1.11944 
        4.63391         16.7615         1.10983 
         4.6496         16.6315         1.10034 
        4.66532         16.4849         1.09095 
        4.68103         16.3316         1.08167 
        4.69673         16.2561          1.0725 
        4.71241         16.1429         1.06345 
        4.72811         15.9572         1.05449 
        4.74384         15.8623         1.04563 
        4.75955         15.7395         1.03688 
        4.77525         15.6372         1.02823 
        4.79096         15.4845         1.01967 
        4.80669         15.3807          1.0112 
         4.8224         15.2335         1.00284 
        4.83809         15.1091        0.994587 
        4.85379         14.9814        0.986418 
         4.8695         14.9274        0.978334 
        4.88521          14.798        0.970344 
        4.90093         14.6713        0.962442 
        4.91663         14.5719        0.954635 
        4.93234         14.4558        0.946907 
        4.94807         14.3347        0.939259 
        4.96377         14.2011        0.931709 
        4.97943         14.1108        0.924258 
        4.99514         13.9795         0.91687 
        5.01086         13.9025        0.909557 
        5.02654         13.7683        0.902342 
        5.04227         13.6958        0.895184 
          5.058         13.5689          0.8881 
        5.07371         13.4855        0.881107 
        5.08942         13.3619        0.874188 
        5.10513         13.2817        0.867342 
        5.12084         13.1636        0.860567 
        5.13656          13.078        0.853865 
        5.15225         12.9486        0.847245 
        5.16796         12.8878        0.840686 
        5.18369         12.7646        0.834189 
         5.1994         12.6967        0.827773 
        5.21509         12.5835        0.821431 
        5.23079         12.4912        0.815147 
        5.24649         12.4006        0.808934 
        5.26217         12.2978         0.80279 
        5.27788         12.1983        0.796701 
        5.29359         12.1425        0.790674 
        5.30933         12.0308          0.7847 
        5.32504         11.9751        0.778798 
        5.34073         11.8586        0.772964 
        5.35646         11.7972        0.767177 
        5.37218         11.6871        0.761449 
        5.38789         11.6066        0.755788 
        5.40357         11.5234        0.750191 
        5.41929         11.4381        0.744638 
        5.43502         11.3767        0.739141 
         5.4507         11.2676        0.733713 
        5.46639         11.1992        0.728338 
        5.48212           11.15        0.723005 
        5.49786         11.0408        0.717718 
        5.51353          10.972        0.712511 
        5.52921          10.884        0.707349 
        5.54495         10.7968        0.702224 
        5.56066         10.7085        0.697155 
        5.57637         10.6343        0.692137 
        5.59207         10.5699        0.687173 
        5.60778         10.4989        0.682255 
        5.62346         10.4387        0.677393 
        5.63916         10.3476        0.672573 
        5.65487           10.28        0.667797 
         5.6706         10.2183        0.663063 
        5.68633         10.1356        0.658372 
        5.70203         10.0771        0.653736 
        5.71773         10.0073        0.649146 
        5.73344         9.92595        0.644597 
        5.74916          9.8614        0.640088 
        5.76486         9.77618        0.635628 
        5.78054         9.72319        0.631217 
        5.79626         9.65959        0.626836 
          5.812         9.59311        0.622492 
         5.8277         9.51533        0.618202 
        5.84339         9.47095        0.613952 
        5.85911         9.39653        0.609734 
        5.87484          9.3153        0.605556 
        5.89053         9.25849        0.601426 
        5.90623         9.18773        0.597332 
        5.92195          9.1421        0.593269 
        5.93767         9.07569        0.589247 
        5.95336         9.02016        0.585268 
        5.96905         8.96772        0.581327 
        5.98476         8.90399        0.577417 
        6.00048         8.84251        0.573542 
        6.01617         8.79321        0.569707 
        6.03185         8.72057        0.565913 
        6.04756         8.66617        0.562143 
        6.06331         8.60463          0.5584 
        6.07903         8.55375        0.554699 
        6.09473         8.50113        0.551034 
        6.11044         8.44489          0.5474 
        6.12616         8.38214        0.543799 
        6.14186         8.31357        0.540234 
        6.15755         8.25977        0.536701 
        6.17326         8.22378        0.533196 
        6.18898         8.15101        0.529722 
        6.20467         8.09818        0.526284 
        6.22036         8.05361        0.522878 
         6.2361         7.99391        0.519492 
         6.2518         7.93935        0.516142 
        6.26748         7.89183        0.512828 
        6.28319         7.85073        0.509535 
        6.29893         7.79183        0.506267 
        6.31463         7.73856        0.503034 
        6.33033          7.6916         0.49983 
        6.34604         7.64891        0.496652 
        6.36177         7.59158        0.493498 
        6.37747         7.54739        0.490377 
