# k  (h/Mpc)    Pcb(k)  (Mpc/h)^3    Pcb_linear(k) (Mpc/h)^3   ShotnoiseSubtracted = true
      0.0200456         6847.26         6983.79 
      0.0350414         5221.28         5348.36 
      0.0492313         4091.22         4123.46 
      0.0637834         3595.66         3560.48 
      0.0800726         2833.42         2801.92 
       0.096163         2030.36          2072.9 
       0.111083         1690.09         1752.95 
       0.126058         1572.33         1574.74 
       0.142273         1321.08         1291.46 
       0.158546         1100.11          1039.5 
        0.17375         925.778         925.186 
       0.188953           885.8         841.026 
       0.204907         816.922         721.966 
       0.220756          693.91         618.479 
        0.23588         621.317         560.968 
         0.2514         550.809           513.2 
       0.267535         523.269         454.898 
       0.283568         476.791         403.882 
       0.299022           444.7         369.842 
       0.314451         412.903         340.872 
       0.330372         382.494         309.572 
       0.346141         346.762         281.778 
       0.361624         332.257         260.366 
       0.377134         313.199         241.606 
       0.392932         290.589         222.993 
       0.408854         279.678          205.89 
       0.424564         268.786         191.608 
       0.440253         255.067         178.917 
       0.455999         241.082         166.908 
       0.471626         222.952         155.975 
        0.48727         218.346         146.248 
       0.502856         209.893         137.482 
       0.518488         205.594         129.306 
       0.534347         195.672         121.642 
       0.550082         182.565         114.729 
       0.565732         177.884         108.426 
       0.581496         170.128         102.534 
       0.597222         165.292         97.0776 
       0.612804          158.01         92.0821 
       0.628434         154.793         87.4484 
       0.644267         149.665         83.0844 
       0.660051         146.865         79.0319 
       0.675724         142.906         75.2772 
       0.691403         138.727         71.7675 
       0.707174         133.352         68.4656 
       0.722871         131.364         65.3884 
        0.73838         129.002         62.5369 
       0.754018         123.351         59.8369 
       0.769845         121.113         57.2699 
        0.78569         118.251         54.8543 
       0.801365         115.099         52.6046 
       0.817031         111.257         50.4852 
       0.832809         109.906         48.4715 
       0.848511         106.233         46.5788 
       0.864097          103.27         44.8022 
       0.879701         102.508         43.1183 
       0.895507         99.9702         41.5028 
       0.911279         98.8481         39.9749 
        0.92691         96.0777         38.5382 
       0.942635         93.7506         37.1654 
       0.958396         93.2415         35.8578 
       0.974128         90.8803         34.6167 
       0.989692          88.643         33.4477 
        1.00528         87.1959          32.332 
        1.02113         85.3925         31.2507 
        1.03692         83.2405         30.2237 
        1.05264         82.6344         29.2485 
        1.06832         80.8563         28.3188 
        1.08405         79.8194         27.4277 
        1.09979         78.8184         26.5752 
        1.11537          76.081          25.768 
        1.13105         76.3969         24.9902 
        1.14679          74.991         24.2421 
        1.16256         73.6375         23.5238 
        1.17828         71.7396         22.8375 
        1.19395         71.3066         22.1814 
         1.2097         69.4959         21.5482 
        1.22537         69.4127         20.9433 
          1.241         67.7482         20.3638 
        1.25666          66.484         19.8052 
        1.27241         66.0309         19.2654 
        1.28819         64.5447         18.7451 
        1.30392         63.4544         18.2458 
        1.31957         63.0414         17.7674 
        1.33529         62.2414         17.3046 
        1.35108         61.6143         16.8568 
        1.36674         60.6336         16.4283 
         1.3824         59.2303         16.0153 
        1.39811          58.952         15.6154 
        1.41389          57.908         15.2279 
        1.42964         57.0814         14.8545 
        1.44531         56.5063         14.4956 
        1.46101         55.1568          14.148 
        1.47667         55.1382          13.813 
        1.49229         54.5315           13.49 
        1.50793         53.4761         13.1771 
        1.52367         52.8033         12.8722 
        1.53953         52.3934         12.5752 
        1.55526         51.5672           12.29 
        1.57092          51.153         12.0151 
        1.58662          50.421          11.748 
        1.60235         49.8263         11.4887 
        1.61809         48.9767         11.2372 
        1.63369         48.2613         10.9955 
        1.64941         47.6072         10.7594 
        1.66519         47.0435         10.5295 
        1.68085         46.6585         10.3081 
        1.69652         46.0871          10.093 
        1.71228         45.8281           9.883 
        1.72806         45.0781         9.67888 
        1.74368         44.5304         9.48268 
        1.75933         44.0107         9.29161 
        1.77505         43.5889           9.105 
        1.79081          42.933         8.92327 
         1.8065         42.4585         8.74735 
        1.82218         42.0313         8.57641 
        1.83797         41.5174         8.40895 
        1.85367         40.8882         8.24695 
        1.86928         40.6061         8.09026 
        1.88497         40.0041         7.93686 
        1.90073         39.8136         7.78693 
        1.91647         39.2692         7.64107 
        1.93218         38.7692         7.49931 
        1.94787         38.4137         7.36142 
        1.96363         38.0536          7.2265 
        1.97935         37.6238          7.0953 
        1.99499         37.0798         6.96814 
        2.01064         36.7286         6.84397 
         2.0264         36.2113         6.72209 
        2.04216         35.7479         6.60329 
        2.05781          35.493         6.48815 
        2.07353         35.0668         6.37539 
        2.08928         34.9559         6.26511 
        2.10499         34.5263         6.15777 
        2.12065         33.9785         6.05331 
        2.13633         33.7391         5.95122 
        2.15211          33.124         5.85086 
        2.16785         32.8212         5.75313 
        2.18349         32.7287         5.65828 
        2.19916          32.344          5.5654 
        2.21489         31.8109         5.47433 
        2.23063         31.6269         5.38527 
         2.2463         31.4111         5.29863 
        2.26194         30.9429         5.21413 
        2.27765         30.6566         5.13107 
        2.29341         30.2704         5.04963 
        2.30914         30.1535         4.97016 
        2.32486          29.711         4.89246 
        2.34061         29.4507         4.81633 
        2.35635         29.0683          4.7419 
        2.37203         28.8016         4.66933 
        2.38768         28.5647         4.59845 
        2.40339         28.4326         4.52881 
        2.41914          28.051         4.46047 
        2.43483         27.6502          4.3938 
         2.4505         27.4057         4.32863 
        2.46622          27.132         4.26458 
        2.48195         26.8796         4.20184 
        2.49759         26.5813         4.14071 
        2.51328         26.3455         4.08066 
        2.52906          26.125         4.02143 
        2.54479         25.7741         3.96362 
        2.56049         25.4452         3.90708 
        2.57618         25.2371          3.8517 
        2.59189         25.0452         3.79733 
        2.60758         24.8841         3.74411 
        2.62325         24.5262         3.69199 
        2.63898         24.4072          3.6407 
        2.65468         24.1275          3.5905 
        2.67044         23.8247         3.54105 
        2.68618         23.6409         3.49265 
        2.70184         23.4321         3.44537 
        2.71755          23.178         3.39886 
        2.73329         22.9656         3.35315 
        2.74897         22.6345         3.30844 
        2.76462         22.6614         3.26465 
        2.78034         22.3559         3.22149 
        2.79607         22.1266         3.17907 
        2.81179         21.9406         3.13748 
        2.82749         21.7252         3.09669 
        2.84321         21.5426         3.05659 
        2.85893         21.3107         3.01722 
        2.87462         21.0853         2.97863 
        2.89033         20.9312         2.94068 
        2.90605         20.7843         2.90337 
        2.92176         20.4443         2.86674 
        2.93747         20.3599         2.83076 
        2.95318         20.1389         2.79541 
        2.96891          19.929         2.76065 
        2.98456         19.7349         2.72664 
        3.00023         19.6315         2.69317 
        3.01596         19.3944         2.66016 
        3.03164         19.2448          2.6278 
        3.04738         19.0212          2.5959 
         3.0631         18.8595         2.56455 
        3.07883         18.7195         2.53372 
        3.09456         18.5479         2.50341 
        3.11026         18.3956         2.47364 
        3.12596         18.1323         2.44438 
        3.14163         18.1026         2.41566 
        3.15734         17.8134         2.38734 
        3.17308         17.6802         2.35941 
        3.18879         17.5325         2.33201 
        3.20447          17.349         2.30509 
         3.2202          17.207         2.27853 
         3.2359         17.0658         2.25243 
        3.25157         16.9713         2.22681 
        3.26729         16.7522         2.20151 
        3.28304         16.6464         2.17657 
        3.29877         16.4509         2.15205 
        3.31446         16.2715         2.12796 
        3.33014         16.1066         2.10428 
        3.34585         15.9723         2.08092 
        3.36158         15.8508         2.05788 
        3.37727         15.7067         2.03527 
        3.39294         15.5739         2.01303 
        3.40867         15.4097         1.99104 
        3.42439          15.279          1.9694 
        3.44008         15.2041         1.94812 
        3.45578         15.0608         1.92715 
        3.47153         14.9323         1.90645 
        3.48724         14.7926         1.88609 
        3.50292         14.6097         1.86608 
        3.51859         14.5207         1.84637 
        3.53431         14.4173         1.82689 
        3.55007         14.2966         1.80765 
        3.56577         14.1717         1.78877 
        3.58146         14.0571         1.77016 
        3.59719          13.877         1.75178 
        3.61292         13.8009         1.73368 
        3.62859          13.653          1.7159 
        3.64429         13.5016         1.69834 
        3.66003          13.414         1.68097 
        3.67578         13.3219         1.66386 
        3.69146         13.2016         1.64705 
        3.70712         13.0468         1.63051 
        3.72284          12.969         1.61414 
        3.73853         12.8452         1.59802 
        3.75422          12.766         1.58212 
        3.76993          12.634         1.56643 
        3.78564         12.4981         1.55096 
        3.80137         12.3947         1.53568 
        3.81707         12.2832         1.52063 
        3.83279         12.2052         1.50578 
        3.84853         12.0921         1.49111 
        3.86424          11.986         1.47666 
        3.87992          11.886         1.46243 
        3.89561         11.7945         1.44838 
        3.91134         11.7298          1.4345 
        3.92704         11.5934         1.42082 
        3.94273         11.4906         1.40733 
        3.95845          11.412         1.39399 
        3.97418         11.3209         1.38083 
        3.98988         11.2172         1.36785 
        4.00554         11.1422         1.35508 
        4.02125         11.0118         1.34244 
        4.03698           10.93         1.32994 
        4.05268         10.8565         1.31764 
        4.06839         10.7343         1.30548 
         4.0841         10.6888         1.29348 
        4.09983         10.5622         1.28161 
        4.11555         10.4719         1.26991 
        4.13124          10.409         1.25838 
        4.14693         10.3086         1.24699 
        4.16266         10.2346         1.23571 
        4.17839         10.1517         1.22458 
        4.19408         10.0747         1.21362 
        4.20977         9.98596         1.20279 
        4.22551          9.9281         1.19206 
        4.24123         9.84695         1.18148 
        4.25691         9.75558         1.17106 
        4.27259         9.67349         1.16076 
        4.28831         9.60031         1.15057 
        4.30404          9.5009         1.14049 
        4.31974         9.43695         1.13056 
        4.33543         9.33517         1.12075 
        4.35116         9.27194         1.11104 
        4.36688          9.2287         1.10144 
        4.38255         9.14605           1.092 
        4.39825         9.06202         1.08265 
        4.41398         9.00076         1.07339 
         4.4297         8.92666         1.06425 
        4.44541          8.8502         1.05522 
        4.46111         8.77214          1.0463 
        4.47683         8.69502         1.03748 
        4.49251         8.63877         1.02878 
        4.50819         8.59056         1.02019 
         4.5239         8.53452         1.01168 
        4.53962         8.44964         1.00326 
        4.55535         8.36287        0.994936 
        4.57106         8.30228        0.986717 
        4.58678         8.22906         0.97859 
         4.6025          8.1862        0.970554 
        4.61821           8.113        0.962611 
        4.63391         8.06162        0.954768 
         4.6496         7.97841        0.947017 
        4.66532         7.94057        0.939341 
        4.68103         7.85527        0.931755 
        4.69673         7.81325        0.924261 
        4.71241         7.77252        0.916858 
        4.72811         7.67082        0.909524 
        4.74384         7.63416        0.902263 
        4.75955         7.57277        0.895093 
        4.77525          7.5204        0.888006 
        4.79096         7.45792        0.880988 
        4.80669         7.41036        0.874044 
         4.8224         7.36422        0.867183 
        4.83809         7.27282        0.860405 
        4.85379         7.22548        0.853695 
         4.8695         7.18098        0.847053 
        4.88521         7.11835        0.840485 
        4.90093         7.07592        0.833986 
        4.91663         7.02628        0.827563 
        4.93234         6.95446        0.821202 
        4.94807         6.91894        0.814904 
        4.96377            6.86        0.808685 
        4.97943         6.81849        0.802545 
        4.99514         6.76846        0.796453 
        5.01086         6.70063        0.790421 
        5.02654         6.65549        0.784468 
        5.04227         6.60707        0.778559 
          5.058         6.58455         0.77271 
        5.07371         6.52036        0.766932 
        5.08942         6.46051        0.761214 
        5.10513         6.40926        0.755554 
        5.12084         6.38519        0.749949 
        5.13656          6.3303        0.744404 
        5.15225          6.2794        0.738924 
        5.16796         6.23008        0.733492 
        5.18369         6.19829         0.72811 
         5.1994         6.14871        0.722792 
        5.21509         6.10364        0.717533 
        5.23079         6.06101        0.712321 
        5.24649         6.01342        0.707166 
        5.26217         5.97914        0.702065 
        5.27788          5.9292        0.697009 
        5.29359         5.89487        0.692002 
        5.30933         5.84625        0.687037 
        5.32504         5.80319        0.682131 
        5.34073         5.76515        0.677278 
        5.35646         5.72929        0.672463 
        5.37218          5.6946        0.667695 
        5.38789         5.65391        0.662981 
        5.40357         5.60486        0.658319 
        5.41929          5.5704        0.653692 
        5.43502         5.53295         0.64911 
         5.4507         5.49388        0.644582 
        5.46639         5.44672        0.640099 
        5.48212         5.40781        0.635647 
        5.49786         5.37749        0.631234 
        5.51353         5.33187        0.626884 
        5.52921         5.30748        0.622572 
        5.54495         5.26663        0.618288 
        5.56066         5.23197         0.61405 
        5.57637         5.18952        0.609853 
        5.59207         5.15302        0.605699 
        5.60778          5.1197        0.601582 
        5.62346            5.09        0.597511 
        5.63916         5.06139        0.593473 
        5.65487         5.01502        0.589471 
         5.6706         4.98343        0.585502 
        5.68633         4.95801        0.581569 
        5.70203         4.91665         0.57768 
        5.71773          4.8881        0.573828 
        5.73344         4.85742        0.570009 
        5.74916         4.82541        0.566222 
        5.76486         4.78381        0.562475 
        5.78054         4.74691        0.558768 
        5.79626         4.72651        0.555085 
          5.812         4.69125        0.551432 
         5.8277         4.67054        0.547822 
        5.84339         4.63362        0.544246 
        5.85911         4.60219        0.540695 
        5.87484         4.56809        0.537176 
        5.89053         4.54614        0.533696 
        5.90623         4.52344        0.530246 
        5.92195         4.47849        0.526821 
        5.93767         4.45955        0.523429 
        5.95336          4.4174        0.520072 
        5.96905         4.39331        0.516746 
        5.98476         4.36173        0.513445 
        6.00048         4.34318        0.510172 
        6.01617         4.31477        0.506933 
        6.03185         4.28131        0.503726 
        6.04756         4.26001        0.500539 
        6.06331         4.22919        0.497374 
        6.07903         4.20872        0.494242 
        6.09473         4.18305        0.491142 
        6.11044         4.14796        0.488065 
        6.12616         4.13352        0.485015 
        6.14186         4.09682        0.481995 
        6.15755         4.07586        0.479001 
        6.17326         4.05697        0.476031 
        6.18898         4.02475        0.473084 
        6.20467         4.00557        0.470169 
        6.22036         3.97745        0.467278 
         6.2361         3.94577        0.464404 
         6.2518         3.92581        0.461559 
        6.26748         3.90992        0.458745 
        6.28319         3.87653        0.455947 
        6.29893         3.85346         0.45317 
        6.31463         3.83223        0.450421 
        6.33033         3.80818        0.447696 
        6.34604         3.78188        0.444992 
        6.36177         3.76065        0.442308 
        6.37747         3.73168        0.439652 
