# k  (h/Mpc)    Pcb(k)  (Mpc/h)^3    Pcb_linear(k) (Mpc/h)^3   ShotnoiseSubtracted = true
      0.0200456         16974.9         17406.6 
      0.0350414         12753.3         13330.4 
      0.0492313         10031.2         10277.4 
      0.0637834         8923.76         8874.23 
      0.0800726         7008.93         6983.57 
       0.096163         4949.45         5166.54 
       0.111083         4129.24          4369.1 
       0.126058         3855.81          3924.9 
       0.142273         3266.43         3218.87 
       0.158546          2860.7         2590.88 
        0.17375         2353.19         2305.96 
       0.188953         2300.76         2096.19 
       0.204907         2148.73         1799.44 
       0.220756         1869.62         1541.51 
        0.23588         1675.38         1398.17 
         0.2514         1467.81         1279.11 
       0.267535         1463.83          1133.8 
       0.283568         1332.32         1006.64 
       0.299022         1258.63         921.803 
       0.314451         1202.11         849.597 
       0.330372         1108.55         771.584 
       0.346141         1050.83          702.31 
       0.361624         1010.21         648.941 
       0.377134          940.45         602.183 
       0.392932         909.193         555.793 
       0.408854         885.625         513.164 
       0.424564         827.128         477.568 
       0.440253         811.838         445.938 
       0.455999         777.825         416.004 
       0.471626         743.297         388.755 
        0.48727         718.131         364.512 
       0.502856         698.349         342.663 
       0.518488         690.085         322.286 
       0.534347         646.464         303.182 
       0.550082         626.037         285.953 
       0.565732         626.669         270.242 
       0.581496         591.217         255.558 
       0.597222         581.074         241.958 
       0.612804         566.243         229.507 
       0.628434         548.717         217.958 
       0.644267         534.045         207.081 
       0.660051         516.619         196.981 
       0.675724         513.478         187.623 
       0.691403         496.452         178.875 
       0.707174         480.178         170.645 
       0.722871          474.83         162.976 
        0.73838         466.732         155.868 
       0.754018         453.143         149.139 
       0.769845         442.104         142.741 
        0.78569         437.257          136.72 
       0.801365         424.452         131.113 
       0.817031          412.75         125.831 
       0.832809         408.699         120.811 
       0.848511         398.528         116.094 
       0.864097         388.758         111.666 
       0.879701         383.039         107.469 
       0.895507         377.933         103.442 
       0.911279         365.625         99.6344 
        0.92691         360.826         96.0534 
       0.942635         353.435         92.6319 
       0.958396         344.771         89.3728 
       0.974128         338.819         86.2794 
       0.989692         333.963         83.3658 
        1.00528         328.049         80.5851 
        1.02113          324.99         77.8898 
        1.03692          315.57         75.3303 
        1.05264         311.834         72.8997 
        1.06832         304.396         70.5823 
        1.08405         299.156         68.3614 
        1.09979         294.185         66.2365 
        1.11537          287.98         64.2248 
        1.13105         282.027         62.2862 
        1.14679         279.713         60.4217 
        1.16256         272.661         58.6312 
        1.17828         269.197         56.9207 
        1.19395          264.28         55.2854 
         1.2097         261.981         53.7072 
        1.22537         254.709         52.1995 
          1.241         253.759         50.7552 
        1.25666         247.079          49.363 
        1.27241         244.186         48.0174 
        1.28819         239.954         46.7206 
        1.30392         234.827         45.4764 
        1.31957         234.709         44.2838 
        1.33529         229.599         43.1303 
        1.35108          224.33         42.0142 
        1.36674         222.381         40.9462 
         1.3824         219.284         39.9169 
        1.39811         217.195         38.9203 
        1.41389         213.051         37.9544 
        1.42964          209.91         37.0236 
        1.44531          206.37          36.129 
        1.46101         204.505         35.2627 
        1.47667         199.499         34.4278 
        1.49229         197.283         33.6226 
        1.50793         193.966         32.8428 
        1.52367         191.299         32.0831 
        1.53953         188.026         31.3427 
        1.55526         184.229          30.632 
        1.57092         183.096         29.9466 
        1.58662         180.056          29.281 
        1.60235         177.218         28.6346 
        1.61809          175.36         28.0077 
        1.63369         172.174         27.4055 
        1.64941         168.553         26.8171 
        1.66519         167.679          26.244 
        1.68085         166.171         25.6921 
        1.69652         161.877         25.1561 
        1.71228         159.567         24.6326 
        1.72806         157.308         24.1239 
        1.74368         155.508         23.6348 
        1.75933         153.077         23.1586 
        1.77505         150.992         22.6935 
        1.79081         149.822         22.2405 
         1.8065          147.43         21.8021 
        1.82218          144.89          21.376 
        1.83797         143.768         20.9586 
        1.85367         141.296         20.5549 
        1.86928         139.528         20.1644 
        1.88497         136.945          19.782 
        1.90073         135.853         19.4083 
        1.91647         133.965         19.0448 
        1.93218         131.978         18.6915 
        1.94787         130.356         18.3478 
        1.96363         127.747         18.0115 
        1.97935         126.208         17.6845 
        1.99499          124.36         17.3676 
        2.01064         123.052         17.0581 
         2.0264         121.212         16.7543 
        2.04216         119.711         16.4582 
        2.05781         118.371         16.1712 
        2.07353         116.905         15.8902 
        2.08928         114.514         15.6153 
        2.10499         112.687         15.3478 
        2.12065         111.847         15.0874 
        2.13633          110.95         14.8329 
        2.15211         108.481         14.5828 
        2.16785         106.784         14.3392 
        2.18349         105.808         14.1028 
        2.19916         104.501         13.8713 
        2.21489         103.389         13.6443 
        2.23063         101.634         13.4224 
         2.2463         100.272         13.2064 
        2.26194         99.5113         12.9958 
        2.27765         98.2137         12.7888 
        2.29341         96.8684         12.5858 
        2.30914         95.4281         12.3877 
        2.32486         94.7313         12.1941 
        2.34061         93.1041         12.0043 
        2.35635         91.8966         11.8188 
        2.37203         90.6483         11.6379 
        2.38768         89.5723         11.4613 
        2.40339         88.8514         11.2877 
        2.41914         87.4866         11.1174 
        2.43483         86.2151         10.9512 
         2.4505         85.4485         10.7888 
        2.46622          83.932         10.6291 
        2.48195         83.0696         10.4727 
        2.49759         82.1823         10.3204 
        2.51328         81.1764         10.1707 
        2.52906         79.7079         10.0231 
        2.54479         79.1216         9.87902 
        2.56049         78.1381         9.73809 
        2.57618         77.2251         9.60007 
        2.59189          76.253         9.46456 
        2.60758         75.5413         9.33191 
        2.62325         74.4793         9.20201 
        2.63898         73.5398         9.07416 
        2.65468         72.7217         8.94904 
        2.67044         71.6242         8.82579 
        2.68618         70.8037         8.70517 
        2.70184         70.3665         8.58732 
        2.71755         69.6676         8.47139 
        2.73329         68.4685         8.35746 
        2.74897         67.9378         8.24602 
        2.76462          66.864         8.13689 
        2.78034         66.1155         8.02931 
        2.79607         65.1286          7.9236 
        2.81179         64.5969         7.81993 
        2.82749         63.7839         7.71827 
        2.84321         63.1747         7.61832 
        2.85893         62.3638          7.5202 
        2.87462         61.5298           7.424 
        2.89033         60.8147         7.32941 
        2.90605         59.9475         7.23642 
        2.92176         59.6701         7.14511 
        2.93747         59.0497         7.05545 
        2.95318         58.2009         6.96733 
        2.96891         57.6777          6.8807 
        2.98456         56.9191         6.79594 
        3.00023         56.3241         6.71251 
        3.01596         55.8453         6.63023 
        3.03164         54.9161          6.5496 
        3.04738         54.3677         6.47008 
         3.0631         53.9241         6.39193 
        3.07883         53.2833         6.31509 
        3.09456         52.8087         6.23954 
        3.11026          51.865         6.16536 
        3.12596         51.4937         6.09242 
        3.14163         50.7351         6.02083 
        3.15734         50.4011         5.95025 
        3.17308         49.7737         5.88064 
        3.18879         49.3004         5.81236 
        3.20447         48.5064         5.74527 
         3.2202         48.2973         5.67905 
         3.2359         47.6309           5.614 
        3.25157          47.184         5.55015 
        3.26729         46.8002          5.4871 
        3.28304         46.1453         5.42493 
        3.29877         45.7054         5.36381 
        3.31446         45.2302         5.30378 
        3.33014         44.8361         5.24474 
        3.34585         44.3232         5.18652 
        3.36158          43.914         5.12911 
        3.37727         43.4527         5.07275 
        3.39294         42.9447         5.01731 
        3.40867         42.5148         4.96251 
        3.42439         42.1643         4.90857 
        3.44008         41.5642         4.85555 
        3.45578         41.0675         4.80328 
        3.47153         40.6819         4.75168 
        3.48724         40.3951         4.70093 
        3.50292         40.0446         4.65106 
        3.51859         39.5986         4.60194 
        3.53431         39.0681         4.55339 
        3.55007         38.7373         4.50543 
        3.56577         38.4698         4.45836 
        3.58146         37.9202         4.41199 
        3.59719         37.4694         4.36619 
        3.61292         37.1717         4.32105 
        3.62859         36.9418         4.27674 
        3.64429          36.581         4.23297 
        3.66003         36.1176         4.18969 
        3.67578         35.7039         4.14704 
        3.69146         35.3804         4.10515 
        3.70712         35.1712         4.06392 
        3.72284         34.6808         4.02311 
        3.73853         34.3975         3.98295 
        3.75422         33.9644         3.94332 
        3.76993         33.7306         3.90421 
        3.78564         33.5377         3.86564 
        3.80137         33.0715         3.82755 
        3.81707         32.6981         3.79006 
        3.83279         32.5273         3.75304 
        3.84853         32.0647         3.71646 
        3.86424         31.7332         3.68046 
        3.87992         31.5065         3.64498 
        3.89561         31.2122         3.60998 
        3.91134         30.9745         3.57538 
        3.92704         30.7153         3.54127 
        3.94273         30.3314         3.50765 
        3.95845         30.0546         3.47441 
        3.97418         29.8532          3.4416 
        3.98988         29.4941         3.40926 
        4.00554         29.1906         3.37744 
        4.02125         28.9918         3.34593 
        4.03698         28.7101         3.31478 
        4.05268         28.5608          3.2841 
        4.06839         28.1909          3.2538 
         4.0841         27.9381         3.22389 
        4.09983         27.7031         3.19432 
        4.11555         27.4176         3.16514 
        4.13124         27.0706         3.13641 
        4.14693         26.8916         3.10802 
        4.16266         26.6978         3.07991 
        4.17839         26.4496         3.05218 
        4.19408         26.2217         3.02485 
        4.20977          25.979         2.99785 
        4.22551         25.8078         2.97113 
        4.24123         25.5117         2.94475 
        4.25691         25.2846         2.91878 
        4.27259         25.0051         2.89311 
        4.28831         24.8155         2.86771 
        4.30404         24.5899         2.84259 
        4.31974         24.4252         2.81783 
        4.33543          24.155         2.79338 
        4.35116         23.9933         2.76917 
        4.36688          23.749         2.74526 
        4.38255          23.557         2.72172 
        4.39825         23.3464         2.69841 
        4.41398         23.1361         2.67534 
         4.4297         22.9382         2.65256 
        4.44541         22.6769         2.63005 
        4.46111         22.5699         2.60783 
        4.47683          22.364         2.58584 
        4.49251         22.1635         2.56417 
        4.50819         21.9662         2.54274 
         4.5239         21.7943         2.52154 
        4.53962         21.5679         2.50055 
        4.55535           21.43          2.4798 
        4.57106         21.2105         2.45931 
        4.58678         21.0894         2.43906 
         4.6025         20.9306         2.41903 
        4.61821         20.7464         2.39923 
        4.63391          20.543         2.37968 
         4.6496         20.3744         2.36037 
        4.66532         20.1969         2.34123 
        4.68103         19.9983         2.32233 
        4.69673         19.8576         2.30365 
        4.71241         19.7212          2.2852 
        4.72811         19.5159         2.26692 
        4.74384         19.3786         2.24882 
        4.75955         19.2217         2.23095 
        4.77525         19.0864         2.21329 
        4.79096         18.9052         2.19579 
        4.80669         18.7643         2.17849 
         4.8224         18.5971         2.16139 
        4.83809         18.4009         2.14449 
        4.85379         18.3071         2.12777 
         4.8695         18.1179         2.11121 
        4.88521         17.9852         2.09484 
        4.90093         17.8833         2.07865 
        4.91663         17.6767         2.06264 
        4.93234         17.5296         2.04678 
        4.94807         17.4012         2.03108 
        4.96377         17.2648         2.01558 
        4.97943         17.1649         2.00028 
        4.99514         16.9691          1.9851 
        5.01086          16.866         1.97006 
        5.02654         16.7262         1.95523 
        5.04227         16.6367          1.9405 
          5.058         16.4427         1.92592 
        5.07371         16.3639         1.91152 
        5.08942         16.2531         1.89727 
        5.10513         16.0898         1.88316 
        5.12084         15.8913         1.86919 
        5.13656         15.8286         1.85537 
        5.15225         15.7085         1.84171 
        5.16796          15.613         1.82817 
        5.18369         15.4726         1.81476 
         5.1994         15.3447          1.8015 
        5.21509         15.1954          1.7884 
        5.23079         15.1198         1.77541 
        5.24649         15.0082         1.76256 
        5.26217         14.8938         1.74984 
        5.27788         14.7337         1.73724 
        5.29359         14.6535         1.72476 
        5.30933         14.5495         1.71239 
        5.32504         14.4327         1.70016 
        5.34073         14.3427         1.68806 
        5.35646         14.2359         1.67606 
        5.37218         14.1013         1.66418 
        5.38789         14.0038         1.65243 
        5.40357         13.9061         1.64081 
        5.41929         13.7567         1.62928 
        5.43502          13.687         1.61786 
         5.4507         13.6085         1.60657 
        5.46639         13.4937          1.5954 
        5.48212         13.3673          1.5843 
        5.49786         13.3021          1.5733 
        5.51353         13.1929         1.56246 
        5.52921         13.0886         1.55171 
        5.54495         13.0184         1.54104 
        5.56066         12.9249         1.53047 
        5.57637         12.8204         1.52001 
        5.59207         12.7159         1.50966 
        5.60778         12.6444          1.4994 
        5.62346         12.5503         1.48925 
        5.63916          12.443         1.47919 
        5.65487         12.3769         1.46921 
         5.6706         12.2637         1.45932 
        5.68633         12.1693         1.44951 
        5.70203         12.0966         1.43982 
        5.71773         12.0109         1.43022 
        5.73344         11.9335          1.4207 
        5.74916         11.8185         1.41126 
        5.76486         11.7536         1.40193 
        5.78054         11.6723         1.39269 
        5.79626         11.5705         1.38351 
          5.812         11.4978          1.3744 
         5.8277         11.4067          1.3654 
        5.84339         11.3497         1.35649 
        5.85911         11.2696         1.34764 
        5.87484         11.1503         1.33887 
        5.89053         11.0906          1.3302 
        5.90623         11.0099          1.3216 
        5.92195         10.9325         1.31306 
        5.93767         10.8604          1.3046 
        5.95336         10.7877         1.29624 
        5.96905          10.717         1.28795 
        5.98476         10.6435         1.27972 
        6.00048         10.5589         1.27156 
        6.01617          10.491         1.26349 
        6.03185         10.4034          1.2555 
        6.04756         10.3329         1.24755 
        6.06331         10.2715         1.23966 
        6.07903         10.1962         1.23186 
        6.09473         10.1281         1.22413 
        6.11044         10.0677         1.21646 
        6.12616         9.99453         1.20886 
        6.14186         9.92957         1.20134 
        6.15755         9.85772         1.19387 
        6.17326         9.79732         1.18647 
        6.18898         9.72595         1.17913 
        6.20467         9.65742         1.17186 
        6.22036         9.58782         1.16465 
         6.2361         9.53216         1.15749 
         6.2518         9.47056          1.1504 
        6.26748         9.39912         1.14339 
        6.28319         9.34931         1.13641 
        6.29893         9.28818         1.12949 
        6.31463          9.2056         1.12264 
        6.33033         9.17114         1.11585 
        6.34604         9.09322         1.10911 
        6.36177         9.04546         1.10242 
        6.37747         8.98404          1.0958 
