# k  (h/Mpc)    Pcb(k)  (Mpc/h)^3    Pcb_linear(k) (Mpc/h)^3   ShotnoiseSubtracted = true
      0.0200456         5530.54         5615.52 
      0.0350414         4381.79          4300.5 
      0.0492313         3297.86         3315.58 
      0.0637834         2778.45         2862.91 
      0.0800726          2184.5         2252.96 
       0.096163         1703.45         1666.77 
       0.111083         1452.75         1409.51 
       0.126058         1240.81         1266.21 
       0.142273         1033.48         1038.44 
       0.158546         856.343         835.842 
        0.17375         771.566         743.922 
       0.188953         705.142         676.251 
       0.204907          590.66         580.517 
       0.220756         530.518         497.305 
        0.23588         479.486         451.062 
         0.2514         434.115         412.653 
       0.267535         410.373         365.774 
       0.283568         359.947         324.752 
       0.299022         341.448         297.382 
       0.314451         334.154         274.088 
       0.330372         291.047          248.92 
       0.346141         270.183         226.571 
       0.361624          255.93         209.354 
       0.377134         235.326          194.27 
       0.392932         230.173         179.304 
       0.408854          216.67         165.552 
       0.424564         207.835         154.068 
       0.440253         188.821         143.864 
       0.455999         177.791         134.207 
       0.471626         172.609         125.416 
        0.48727         167.273         117.595 
       0.502856          153.77         110.546 
       0.518488         150.787         103.972 
       0.534347         142.083         97.8094 
       0.550082         138.507          92.251 
       0.565732         135.437         87.1826 
       0.581496         125.642         82.4453 
       0.597222         122.346          78.058 
       0.612804          119.02         74.0412 
       0.628434         115.849         70.3153 
       0.644267         110.161         66.8063 
       0.660051         106.454         63.5478 
       0.675724         104.484         60.5288 
       0.691403         102.345         57.7067 
       0.707174         99.2406         55.0517 
       0.722871         96.8319         52.5774 
        0.73838         93.7639         50.2845 
       0.754018         88.7981         48.1135 
       0.769845         88.1021         46.0495 
        0.78569          85.291         44.1071 
       0.801365         83.2265         42.2982 
       0.817031         80.3243         40.5941 
       0.832809         79.1199         38.9748 
       0.848511         77.0634          37.453 
       0.864097         75.8648         36.0244 
       0.879701         74.3839         34.6705 
       0.895507         71.7444         33.3715 
       0.911279         70.7386          32.143 
        0.92691         68.5454         30.9877 
       0.942635         67.3964         29.8839 
       0.958396         66.9714         28.8325 
       0.974128         65.3365         27.8345 
       0.989692         63.7237         26.8946 
        1.00528         62.6377         25.9975 
        1.02113         61.4272          25.128 
        1.03692          60.848         24.3022 
        1.05264         59.5285         23.5181 
        1.06832         58.1756         22.7705 
        1.08405         57.0298          22.054 
        1.09979         56.8965         21.3685 
        1.11537         55.2513         20.7195 
        1.13105         53.9746         20.0941 
        1.14679         53.2986         19.4926 
        1.16256         52.6272          18.915 
        1.17828         51.8336         18.3631 
        1.19395         50.7975         17.8356 
         1.2097         50.3633         17.3264 
        1.22537         49.4298           16.84 
          1.241          48.538         16.3741 
        1.25666         47.9071          15.925 
        1.27241         47.4693         15.4909 
        1.28819         45.9884         15.0725 
        1.30392         46.1079         14.6711 
        1.31957         45.2834         14.2863 
        1.33529         44.4552         13.9142 
        1.35108         43.7855         13.5541 
        1.36674         43.4353         13.2096 
         1.3824         42.6395         12.8776 
        1.39811         41.7492          12.556 
        1.41389         41.3885         12.2444 
        1.42964         40.9282         11.9441 
        1.44531         40.1014         11.6556 
        1.46101         39.9028         11.3761 
        1.47667         39.3907         11.1067 
        1.49229         38.7357          10.847 
        1.50793         38.2103         10.5954 
        1.52367         37.7196         10.3503 
        1.53953         37.3894         10.1114 
        1.55526         36.8213         9.88215 
        1.57092         36.4628         9.66105 
        1.58662         35.9069          9.4463 
        1.60235         35.4451         9.23778 
        1.61809         35.1068         9.03555 
        1.63369          34.734         8.84128 
        1.64941         34.2917         8.65143 
        1.66519         33.6442         8.46655 
        1.68085         33.2375         8.28849 
        1.69652         33.0223         8.11558 
        1.71228         32.6615          7.9467 
        1.72806         32.1364         7.78258 
        1.74368         31.8465         7.62481 
        1.75933         31.4739         7.47118 
        1.77505         31.2193         7.32113 
        1.79081         30.8363           7.175 
         1.8065         30.3712         7.03355 
        1.82218         30.0487         6.89611 
        1.83797         29.8817         6.76145 
        1.85367         29.5496         6.63119 
        1.86928         29.3203          6.5052 
        1.88497          28.844         6.38185 
        1.90073         28.5274          6.2613 
        1.91647         28.2198         6.14401 
        1.93218         28.2892         6.03003 
        1.94787         27.7774         5.91916 
        1.96363         27.5534         5.81067 
        1.97935          27.034         5.70517 
        1.99499         26.8416         5.60293 
        2.01064         26.5777         5.50309 
         2.0264          26.261         5.40509 
        2.04216         26.1062         5.30956 
        2.05781          25.816         5.21698 
        2.07353         25.5299         5.12631 
        2.08928         25.1307         5.03764 
        2.10499         24.9507         4.95133 
        2.12065         24.6864         4.86733 
        2.13633         24.5412         4.78524 
        2.15211         24.1434         4.70454 
        2.16785         24.0659         4.62596 
        2.18349         23.7279          4.5497 
        2.19916         23.5292         4.47502 
        2.21489          23.266         4.40179 
        2.23063         23.1348         4.33018 
         2.2463         22.8255         4.26051 
        2.26194         22.6151         4.19257 
        2.27765         22.2726         4.12578 
        2.29341          22.152          4.0603 
        2.30914         21.9169          3.9964 
        2.32486         21.7886         3.93392 
        2.34061         21.5848          3.8727 
        2.35635         21.2901         3.81286 
        2.37203         21.1245         3.75451 
        2.38768         20.8902         3.69752 
        2.40339         20.7884         3.64152 
        2.41914         20.4991         3.58657 
        2.43483         20.3059         3.53296 
         2.4505         20.0757         3.48056 
        2.46622         19.9709         3.42905 
        2.48195          19.766          3.3786 
        2.49759         19.4364         3.32945 
        2.51328         19.4526         3.28117 
        2.52906         19.2441         3.23355 
        2.54479         19.0182         3.18706 
        2.56049         18.8254          3.1416 
        2.57618         18.7684         3.09707 
        2.59189         18.5289         3.05335 
        2.60758         18.2868         3.01056 
        2.62325         18.1476         2.96865 
        2.63898         18.0283         2.92741 
        2.65468         17.7806         2.88704 
        2.67044         17.6716         2.84728 
        2.68618         17.5623         2.80837 
        2.70184          17.321         2.77035 
        2.71755          17.218         2.73295 
        2.73329         16.9836         2.69619 
        2.74897         16.9255         2.66024 
        2.76462         16.7394         2.62503 
        2.78034         16.5609         2.59033 
        2.79607         16.4196         2.55622 
        2.81179         16.2522         2.52278 
        2.82749         16.1538         2.48998 
        2.84321         15.9829         2.45774 
        2.85893          15.786         2.42608 
        2.87462         15.7553         2.39505 
        2.89033         15.5906         2.36454 
        2.90605          15.452         2.33454 
        2.92176         15.2768         2.30508 
        2.93747         15.1657         2.27615 
        2.95318         15.0267         2.24772 
        2.96891         14.9105         2.21977 
        2.98456         14.7731         2.19243 
        3.00023         14.6692         2.16552 
        3.01596         14.5229         2.13897 
        3.03164         14.4363         2.11296 
        3.04738         14.2917         2.08731 
         3.0631         14.1153          2.0621 
        3.07883         14.0378         2.03731 
        3.09456         13.9452         2.01293 
        3.11026         13.8544           1.989 
        3.12596         13.6716         1.96547 
        3.14163         13.5933         1.94238 
        3.15734         13.4182          1.9196 
        3.17308         13.3477         1.89715 
        3.18879         13.2365         1.87512 
        3.20447         13.0987         1.85348 
         3.2202         13.0017         1.83211 
         3.2359         12.8912         1.81113 
        3.25157         12.8153         1.79053 
        3.26729          12.675         1.77019 
        3.28304         12.5766         1.75013 
        3.29877         12.4696         1.73041 
        3.31446         12.3747         1.71105 
        3.33014         12.2666           1.692 
        3.34585         12.1691         1.67322 
        3.36158         12.0529          1.6547 
        3.37727         11.9824         1.63652 
        3.39294         11.8759         1.61863 
        3.40867         11.7611         1.60095 
        3.42439          11.682         1.58355 
        3.44008         11.5768         1.56644 
        3.45578         11.4691         1.54958 
        3.47153         11.3746         1.53293 
        3.48724         11.3204         1.51656 
        3.50292         11.1868         1.50047 
        3.51859         11.1066         1.48463 
        3.53431         10.9907         1.46896 
        3.55007          10.922         1.45349 
        3.56577         10.8052         1.43831 
        3.58146         10.7347         1.42335 
        3.59719         10.6525         1.40857 
        3.61292         10.5896         1.39401 
        3.62859         10.5037         1.37972 
        3.64429         10.3796         1.36559 
        3.66003         10.3344         1.35163 
        3.67578         10.2242         1.33787 
        3.69146         10.1823         1.32436 
        3.70712         10.1038         1.31106 
        3.72284         9.98576         1.29789 
        3.73853         9.90148         1.28493 
        3.75422         9.83567         1.27215 
        3.76993          9.7329         1.25953 
        3.78564         9.66614         1.24709 
        3.80137         9.61624          1.2348 
        3.81707         9.51959         1.22271 
        3.83279         9.41795         1.21076 
        3.84853         9.38233         1.19897 
        3.86424         9.33146         1.18735 
        3.87992         9.24259          1.1759 
        3.89561         9.13667         1.16461 
        3.91134         9.06725         1.15345 
        3.92704          9.0165         1.14245 
        3.94273         8.92722          1.1316 
        3.95845         8.88252         1.12088 
        3.97418         8.80136         1.11029 
        3.98988         8.73727         1.09986 
        4.00554          8.6686         1.08959 
        4.02125         8.61384         1.07943 
        4.03698         8.53612         1.06938 
        4.05268         8.45256         1.05948 
        4.06839         8.37489         1.04971 
         4.0841         8.32985         1.04006 
        4.09983         8.26386         1.03052 
        4.11555         8.14865          1.0211 
        4.13124         8.10803         1.01183 
        4.14693         8.06042         1.00267 
        4.16266         7.98818        0.993608 
        4.17839         7.93819        0.984661 
        4.19408         7.88201        0.975845 
        4.20977         7.81743        0.967135 
        4.22551         7.76618        0.958512 
        4.24123         7.70107        0.950004 
        4.25691         7.63878        0.941625 
        4.27259         7.58437        0.933345 
        4.28831         7.52432        0.925149 
        4.30404         7.46113        0.917045 
        4.31974         7.40886        0.909057 
        4.33543         7.36806        0.901171 
        4.35116         7.28641         0.89336 
        4.36688         7.23962        0.885645 
        4.38255         7.16105        0.878052 
        4.39825         7.11998        0.870533 
        4.41398         7.07026        0.863088 
         4.4297         7.02547        0.855739 
        4.44541         6.96466        0.848478 
        4.46111         6.93894        0.841308 
        4.47683          6.8576        0.834217 
        4.49251         6.81452        0.827223 
        4.50819         6.77198        0.820312 
         4.5239         6.71456        0.813472 
        4.53962         6.65682        0.806701 
        4.55535         6.60856        0.800006 
        4.57106         6.55086        0.793397 
        4.58678         6.52172        0.786863 
         4.6025         6.46606        0.780401 
        4.61821         6.42348        0.774014 
        4.63391         6.36188        0.767708 
         4.6496         6.33092        0.761475 
        4.66532         6.27436        0.755304 
        4.68103         6.23807        0.749204 
        4.69673         6.19566        0.743178 
        4.71241         6.14653        0.737225 
        4.72811         6.10733        0.731329 
        4.74384         6.06423         0.72549 
        4.75955         6.01818        0.719725 
        4.77525          5.9569        0.714026 
        4.79096         5.92656        0.708383 
        4.80669         5.88503          0.7028 
         4.8224         5.83536        0.697283 
        4.83809         5.79405        0.691832 
        4.85379         5.74476        0.686437 
         4.8695         5.72241        0.681096 
        4.88521         5.69295        0.675815 
        4.90093         5.63084         0.67059 
        4.91663         5.59155        0.665425 
        4.93234         5.56248         0.66031 
        4.94807         5.52397        0.655246 
        4.96377         5.47793        0.650246 
        4.97943         5.44641        0.645309 
        4.99514         5.39964        0.640411 
        5.01086         5.37144        0.635561 
        5.02654         5.32369        0.630774 
        5.04227         5.28652        0.626023 
          5.058         5.25221        0.621319 
        5.07371         5.22014        0.616673 
        5.08942          5.1756        0.612075 
        5.10513         5.14324        0.607524 
        5.12084         5.10821        0.603018 
        5.13656          5.0772        0.598559 
        5.15225         5.03648        0.594153 
        5.16796         5.01279        0.589785 
        5.18369         4.95885        0.585457 
         5.1994          4.9401        0.581181 
        5.21509           4.892        0.576953 
        5.23079         4.86951        0.572762 
        5.24649          4.8407        0.568616 
        5.26217         4.79699        0.564515 
        5.27788         4.76614        0.560449 
        5.29359         4.73347        0.556423 
        5.30933         4.69813        0.552432 
        5.32504         4.67996        0.548486 
        5.34073         4.64438        0.544584 
        5.35646         4.60233        0.540713 
        5.37218         4.56933        0.536879 
        5.38789         4.54727        0.533089 
        5.40357         4.51845         0.52934 
        5.41929         4.47925        0.525619 
        5.43502         4.45036        0.521935 
         5.4507         4.43237        0.518295 
        5.46639         4.39489        0.514689 
        5.48212         4.37199         0.51111 
        5.49786         4.35409        0.507561 
        5.51353          4.3155        0.504064 
        5.52921         4.29023        0.500597 
        5.54495          4.2538        0.497152 
        5.56066         4.23342        0.493744 
        5.57637         4.19943        0.490369 
        5.59207         4.17655        0.487029 
        5.60778         4.14892        0.483719 
        5.62346         4.11607        0.480445 
        5.63916         4.09667        0.477199 
        5.65487         4.07312        0.473981 
         5.6706         4.04217        0.470789 
        5.68633          4.0274        0.467626 
        5.70203          3.9922          0.4645 
        5.71773         3.96468        0.461402 
        5.73344         3.93875        0.458332 
        5.74916         3.91625        0.455287 
        5.76486         3.89233        0.452274 
        5.78054         3.86851        0.449293 
        5.79626         3.83659        0.446332 
          5.812         3.81543        0.443394 
         5.8277         3.79579        0.440492 
        5.84339         3.77733        0.437616 
        5.85911         3.74795        0.434761 
        5.87484         3.72031        0.431932 
        5.89053         3.70029        0.429134 
        5.90623         3.67846        0.426359 
        5.92195         3.65298        0.423605 
        5.93767         3.63975        0.420877 
        5.95336         3.60756        0.418178 
        5.96905         3.58125        0.415504 
        5.98476         3.56374         0.41285 
        6.00048         3.54429        0.410218 
        6.01617         3.51948        0.407614 
        6.03185         3.50186        0.405035 
        6.04756         3.47322        0.402472 
        6.06331         3.45689        0.399927 
        6.07903         3.43841         0.39741 
        6.09473         3.41491        0.394916 
        6.11044         3.39253        0.392442 
        6.12616         3.37565         0.38999 
        6.14186         3.35733        0.387562 
        6.15755          3.3295        0.385154 
        6.17326         3.30938        0.382766 
        6.18898         3.29004        0.380397 
        6.20467          3.2711        0.378052 
        6.22036         3.25754        0.375728 
         6.2361         3.23409        0.373417 
         6.2518          3.2137         0.37113 
        6.26748         3.20042        0.368867 
        6.28319         3.17688        0.366617 
        6.29893         3.16852        0.364384 
        6.31463         3.14254        0.362174 
        6.33033         3.12239        0.359983 
        6.34604          3.1046        0.357808 
        6.36177         3.09043         0.35565 
        6.37747         3.07128        0.353514 
