# k  (h/Mpc)    Pcb(k)  (Mpc/h)^3    Pcb_linear(k) (Mpc/h)^3   ShotnoiseSubtracted = true
      0.0200456         9935.31         10100.3 
      0.0350414         7908.45         7735.03 
      0.0492313         5889.25         5963.53 
      0.0637834          4936.6         5149.33 
      0.0800726            3873         4052.27 
       0.096163         3066.12         2997.92 
       0.111083         2618.44          2535.2 
       0.126058         2210.42         2277.45 
       0.142273          1862.4         1867.77 
       0.158546         1550.15         1503.38 
        0.17375         1402.01         1338.05 
       0.188953         1298.02         1216.33 
       0.204907         1096.57         1044.14 
       0.220756          989.08         894.472 
        0.23588         894.288         811.297 
         0.2514         806.719         742.214 
       0.267535         777.853         657.895 
       0.283568         682.823         584.112 
       0.299022         654.575         534.883 
       0.314451         660.614         492.984 
       0.330372         570.294         447.717 
       0.346141         530.843          407.52 
       0.361624         508.648         376.553 
       0.377134         475.574         349.421 
       0.392932         463.623         322.503 
       0.408854         440.996         297.767 
       0.424564         426.215         277.112 
       0.440253         386.452         258.758 
       0.455999         370.886         241.389 
       0.471626          371.24         225.578 
        0.48727         353.808         211.511 
       0.502856         325.074         198.833 
       0.518488         326.191         187.009 
       0.534347         303.454         175.924 
       0.550082          296.47         165.926 
       0.565732         294.232          156.81 
       0.581496          278.47         148.289 
       0.597222         271.601         140.398 
       0.612804          264.79         133.173 
       0.628434         254.722         126.472 
       0.644267         244.073          120.16 
       0.660051         239.396           114.3 
       0.675724         237.884         108.869 
       0.691403         230.475         103.793 
       0.707174         223.299         99.0181 
       0.722871         219.895         94.5677 
        0.73838         217.981         90.4436 
       0.754018         205.626         86.5388 
       0.769845         205.134         82.8264 
        0.78569         200.268         79.3327 
       0.801365         195.302         76.0792 
       0.817031         189.579         73.0141 
       0.832809          187.04         70.1016 
       0.848511         182.752         67.3643 
       0.864097         178.969         64.7949 
       0.879701         177.236         62.3597 
       0.895507         172.288         60.0232 
       0.911279         168.067         57.8136 
        0.92691         165.351         55.7356 
       0.942635         162.824         53.7503 
       0.958396         159.748         51.8592 
       0.974128         156.169         50.0643 
       0.989692         152.897         48.3736 
        1.00528          150.91         46.7601 
        1.02113         147.183         45.1961 
        1.03692         146.122         43.7109 
        1.05264         144.032         42.3006 
        1.06832         140.224         40.9559 
        1.08405         138.648         39.6672 
        1.09979         137.731         38.4342 
        1.11537         134.241         37.2669 
        1.13105         132.904          36.142 
        1.14679         130.117         35.0601 
        1.16256         128.072         34.0212 
        1.17828         126.255         33.0286 
        1.19395         122.818         32.0797 
         1.2097         122.718          31.164 
        1.22537         119.668         30.2891 
          1.241         119.176         29.4511 
        1.25666         115.391         28.6432 
        1.27241          114.04         27.8624 
        1.28819         113.027           27.11 
        1.30392         110.599          26.388 
        1.31957         109.456          25.696 
        1.33529         108.059         25.0267 
        1.35108         107.152          24.379 
        1.36674         105.173         23.7593 
         1.3824         104.223         23.1621 
        1.39811         101.572         22.5838 
        1.41389         100.665         22.0233 
        1.42964         99.0205         21.4832 
        1.44531         97.8915         20.9641 
        1.46101         96.6345         20.4614 
        1.47667         95.4825          19.977 
        1.49229         94.5139         19.5098 
        1.50793         92.8731         19.0573 
        1.52367         92.1874         18.6164 
        1.53953         90.2145         18.1868 
        1.55526         88.9958         17.7744 
        1.57092         88.7413         17.3767 
        1.58662          87.266         16.9905 
        1.60235         85.8678         16.6154 
        1.61809         84.9063         16.2517 
        1.63369         83.4658         15.9023 
        1.64941         83.3556         15.5608 
        1.66519         81.4275         15.2283 
        1.68085         80.8452          14.908 
        1.69652         78.8894          14.597 
        1.71228         78.6741         14.2932 
        1.72806         77.6941          13.998 
        1.74368         76.4598         13.7143 
        1.75933         75.9278         13.4379 
        1.77505         75.0298         13.1681 
        1.79081         73.7824         12.9052 
         1.8065         73.4229         12.6508 
        1.82218         71.3459         12.4036 
        1.83797         71.1415         12.1614 
        1.85367         70.2581         11.9271 
        1.86928         69.5846         11.7005 
        1.88497         68.4047         11.4786 
        1.90073         67.5331         11.2618 
        1.91647         66.8018         11.0509 
        1.93218         66.4045         10.8458 
        1.94787         65.3624         10.6464 
        1.96363         64.2961         10.4513 
        1.97935         63.7216         10.2615 
        1.99499         63.1275         10.0776 
        2.01064         62.3567         9.89806 
         2.0264         61.5628          9.7218 
        2.04216         60.6742         9.54998 
        2.05781         59.8928         9.38346 
        2.07353         59.1508         9.22038 
        2.08928          58.694         9.06088 
        2.10499         58.0471         8.90565 
        2.12065         57.5028         8.75457 
        2.13633         56.8185         8.60692 
        2.15211          55.977         8.46177 
        2.16785         55.1806         8.32043 
        2.18349         54.4461         8.18326 
        2.19916         53.8763         8.04894 
        2.21489         53.4169         7.91723 
        2.23063          52.522         7.78843 
         2.2463          52.213         7.66311 
        2.26194         51.5475         7.54091 
        2.27765         50.8993         7.42079 
        2.29341         50.1118         7.30301 
        2.30914         49.6812         7.18807 
        2.32486         49.0423          7.0757 
        2.34061         48.6247         6.96559 
        2.35635         47.9591         6.85795 
        2.37203         47.5346           6.753 
        2.38768         46.9447         6.65049 
        2.40339         46.5176         6.54977 
        2.41914         45.9839         6.45094 
        2.43483         45.2002         6.35452 
         2.4505         44.8304         6.26026 
        2.46622         44.4785         6.16763 
        2.48195         43.9246         6.07688 
        2.49759         43.3606         5.98848 
        2.51328         42.8685         5.90163 
        2.52906         42.4453         5.81598 
        2.54479         42.0548         5.73237 
        2.56049          41.563         5.65059 
        2.57618         41.0967         5.57051 
        2.59189          40.485         5.49188 
        2.60758         40.1707         5.41491 
        2.62325         39.8031         5.33953 
        2.63898          39.397         5.26534 
        2.65468         38.9295         5.19274 
        2.67044         38.4726         5.12122 
        2.68618         38.1903         5.05123 
        2.70184         37.6074         4.98285 
        2.71755         37.3344         4.91558 
        2.73329         36.7161         4.84947 
        2.74897          36.356         4.78481 
        2.76462         35.9987         4.72149 
        2.78034         35.7641         4.65906 
        2.79607         35.2408         4.59772 
        2.81179         34.9288         4.53757 
        2.82749         34.5573         4.47858 
        2.84321         34.2366         4.42058 
        2.85893         33.9049         4.36365 
        2.87462         33.4616         4.30783 
        2.89033          33.125         4.25294 
        2.90605         32.9235         4.19899 
        2.92176         32.5983           4.146 
        2.93747         32.1153         4.09398 
        2.95318         31.8717         4.04284 
        2.96891         31.6067         3.99257 
        2.98456          31.121         3.94339 
        3.00023         30.8392         3.89498 
        3.01596         30.5293         3.84724 
        3.03164         30.2581         3.80045 
        3.04738         29.9314         3.75431 
         3.0631         29.6866         3.70896 
        3.07883         29.2653         3.66438 
        3.09456         29.0048         3.62054 
        3.11026         28.5884          3.5775 
        3.12596         28.3332         3.53517 
        3.14163         28.0938         3.49363 
        3.15734         27.8322         3.45267 
        3.17308          27.565         3.41228 
        3.18879         27.2451         3.37266 
        3.20447         26.9389         3.33373 
         3.2202         26.6416         3.29531 
         3.2359          26.466         3.25756 
        3.25157         26.1988         3.22051 
        3.26729         25.9389         3.18393 
        3.28304         25.6031         3.14785 
        3.29877         25.4202         3.11239 
        3.31446         25.0862         3.07756 
        3.33014         24.8312          3.0433 
        3.34585         24.6594         3.00951 
        3.36158         24.4008          2.9762 
        3.37727         24.1881          2.9435 
        3.39294         23.9084         2.91133 
        3.40867         23.6979         2.87953 
        3.42439         23.4688         2.84823 
        3.44008         23.2257         2.81747 
        3.45578         23.0797         2.78714 
        3.47153         22.7247         2.75719 
        3.48724         22.6306         2.72775 
        3.50292         22.2768         2.69881 
        3.51859         22.1176         2.67031 
        3.53431         21.9468         2.64214 
        3.55007         21.7255         2.61431 
        3.56577         21.5039         2.58699 
        3.58146         21.2979         2.56009 
        3.59719         21.1341         2.53351 
        3.61292         20.9255         2.50732 
        3.62859         20.6373         2.48161 
        3.64429         20.5096         2.45621 
        3.66003         20.3539          2.4311 
        3.67578         20.1754         2.40635 
        3.69146         19.8512         2.38204 
        3.70712         19.7347         2.35812 
        3.72284         19.5427         2.33444 
        3.73853          19.382         2.31113 
        3.75422         19.1275         2.28814 
        3.76993         19.0856         2.26544 
        3.78564         18.9115         2.24307 
        3.80137         18.6775         2.22096 
        3.81707         18.4505         2.19921 
        3.83279         18.2976         2.17773 
        3.84853         18.1816          2.1565 
        3.86424         17.9557         2.13561 
        3.87992         17.8232         2.11503 
        3.89561         17.6249         2.09472 
        3.91134         17.5264         2.07464 
        3.92704         17.3531         2.05485 
        3.94273         17.1684         2.03534 
        3.95845         16.9608         2.01605 
        3.97418         16.8519         1.99701 
        3.98988         16.7134         1.97825 
        4.00554         16.6273         1.95978 
        4.02125         16.3541          1.9415 
        4.03698         16.2882         1.92342 
        4.05268         16.1165         1.90562 
        4.06839         15.9764         1.88804 
         4.0841         15.8518         1.87069 
        4.09983         15.6642         1.85353 
        4.11555         15.5372          1.8366 
        4.13124         15.4173         1.81992 
        4.14693         15.2938         1.80345 
        4.16266         15.1595         1.78714 
        4.17839         15.0109         1.77105 
        4.19408         14.8406         1.75519 
        4.20977         14.7663         1.73953 
        4.22551         14.5939         1.72402 
        4.24123          14.479         1.70871 
        4.25691         14.3593         1.69364 
        4.27259         14.2243         1.67875 
        4.28831         14.1522         1.66401 
        4.30404         14.0084         1.64943 
        4.31974         13.8544         1.63507 
        4.33543         13.7521         1.62088 
        4.35116         13.6496         1.60683 
        4.36688         13.5331         1.59296 
        4.38255         13.3947          1.5793 
        4.39825         13.3072         1.56577 
        4.41398         13.1623         1.55238 
         4.4297         13.0509         1.53917 
        4.44541         12.9275         1.52611 
        4.46111          12.867         1.51321 
        4.47683         12.7454         1.50045 
        4.49251         12.6094         1.48788 
        4.50819         12.5262         1.47544 
         4.5239         12.4402         1.46314 
        4.53962         12.3101         1.45096 
        4.55535          12.221         1.43892 
        4.57106         12.1163         1.42703 
        4.58678         12.0074         1.41528 
         4.6025         11.9089         1.40366 
        4.61821         11.8013         1.39217 
        4.63391            11.7         1.38083 
         4.6496         11.6384         1.36962 
        4.66532         11.5171         1.35852 
        4.68103         11.4592         1.34755 
        4.69673          11.337         1.33671 
        4.71241         11.2379           1.326 
        4.72811         11.1693          1.3154 
        4.74384         11.0682         1.30489 
        4.75955         10.9834         1.29452 
        4.77525         10.8871         1.28427 
        4.79096         10.7945         1.27413 
        4.80669         10.7306         1.26408 
         4.8224         10.6414         1.25416 
        4.83809         10.5581         1.24436 
        4.85379         10.4603         1.23465 
         4.8695         10.3728         1.22505 
        4.88521         10.2881         1.21555 
        4.90093          10.221         1.20615 
        4.91663         10.1259         1.19686 
        4.93234          10.049         1.18766 
        4.94807         9.98748         1.17855 
        4.96377         9.90063         1.16956 
        4.97943         9.82047         1.16068 
        4.99514         9.73211         1.15187 
        5.01086         9.68972         1.14314 
        5.02654         9.59756         1.13453 
        5.04227         9.51366         1.12599 
          5.058         9.42803         1.11753 
        5.07371         9.37941         1.10917 
        5.08942         9.30041          1.1009 
        5.10513         9.22982         1.09272 
        5.12084         9.18191         1.08461 
        5.13656         9.09021         1.07659 
        5.15225         9.03378         1.06867 
        5.16796         8.95604         1.06081 
        5.18369         8.86252         1.05303 
         5.1994         8.81581         1.04534 
        5.21509         8.76211         1.03773 
        5.23079         8.66899         1.03019 
        5.24649          8.6201         1.02274 
        5.26217         8.54849         1.01536 
        5.27788         8.49099         1.00805 
        5.29359         8.42814          1.0008 
        5.30933          8.3726        0.993625 
        5.32504         8.29726        0.986528 
        5.34073         8.23508         0.97951 
        5.35646         8.16557        0.972547 
        5.37218         8.11677        0.965651 
        5.38789         8.05365        0.958834 
        5.40357         8.01295        0.952091 
        5.41929         7.94482        0.945399 
        5.43502         7.88421        0.938772 
         5.4507         7.83409        0.932224 
        5.46639         7.77813        0.925739 
        5.48212         7.70836        0.919302 
        5.49786         7.65604        0.912919 
        5.51353         7.60817        0.906628 
        5.52921         7.54909        0.900392 
        5.54495         7.49511        0.894197 
        5.56066         7.44014        0.888067 
        5.57637         7.38924        0.881997 
        5.59207         7.34186        0.875989 
        5.60778         7.28128        0.870036 
        5.62346          7.2257        0.864147 
        5.63916         7.16879        0.858308 
        5.65487         7.12096         0.85252 
         5.6706         7.07812         0.84678 
        5.68633         7.01065        0.841091 
        5.70203         6.97846        0.835467 
        5.71773         6.93812        0.829896 
        5.73344         6.87823        0.824373 
        5.74916         6.84076        0.818896 
        5.76486         6.79367        0.813477 
        5.78054         6.73066        0.808116 
        5.79626         6.70064        0.802789 
          5.812         6.64392        0.797506 
         5.8277         6.59985        0.792286 
        5.84339         6.55244        0.787113 
        5.85911          6.5039        0.781977 
        5.87484          6.4618        0.776889 
        5.89053         6.40749        0.771856 
        5.90623         6.36365        0.766866 
        5.92195         6.32916        0.761913 
        5.93767         6.28033        0.757006 
        5.95336         6.23823        0.752151 
        5.96905         6.22078        0.747342 
        5.98476         6.15835        0.742568 
        6.00048         6.11536        0.737834 
        6.01617         6.07833        0.733149 
        6.03185         6.04339        0.728511 
        6.04756         5.99255        0.723902 
        6.06331         5.95555        0.719324 
        6.07903         5.92171        0.714796 
        6.09473         5.87738        0.710311 
        6.11044         5.83638        0.705861 
        6.12616         5.79459        0.701451 
        6.14186         5.75632        0.697083 
        6.15755         5.71923        0.692753 
        6.17326         5.69678        0.688457 
        6.18898         5.63739        0.684196 
        6.20467         5.61213        0.679979 
        6.22036         5.57613        0.675799 
         6.2361         5.52824        0.671642 
         6.2518         5.48611        0.667528 
        6.26748         5.46787        0.663458 
        6.28319         5.42501        0.659411 
        6.29893         5.40085        0.655395 
        6.31463         5.36622        0.651419 
        6.33033         5.33111        0.647478 
        6.34604         5.29131        0.643568 
        6.36177         5.26346        0.639686 
        6.37747         5.21778        0.635844 
