# k  (h/Mpc)    Pcb(k)  (Mpc/h)^3    Pcb_linear(k) (Mpc/h)^3   ShotnoiseSubtracted = true
      0.0200456          2777.4         2818.38 
      0.0350414         2191.04         2158.38 
      0.0492313         1662.52         1664.06 
      0.0637834          1407.5         1436.87 
      0.0800726         1108.27         1130.74 
       0.096163         852.711          836.54 
       0.111083         725.295         707.422 
       0.126058         626.832           635.5 
       0.142273         518.247         521.183 
       0.158546         426.435         419.502 
        0.17375         383.143         373.368 
       0.188953         347.227         339.404 
       0.204907         290.439         291.357 
       0.220756          258.76         249.593 
        0.23588         233.771         226.384 
         0.2514         212.852         207.107 
       0.267535         196.198         183.579 
       0.283568         172.932          162.99 
       0.299022         161.639         149.254 
       0.314451         154.502         137.562 
       0.330372         136.797         124.931 
       0.346141         126.015         113.714 
       0.361624          117.61         105.073 
       0.377134          107.98         97.5024 
       0.392932         105.048          89.991 
       0.408854         96.8998         83.0889 
       0.424564         93.0099         77.3253 
       0.440253         85.1973         72.2039 
       0.455999         78.5192         67.3572 
       0.471626         74.7836         62.9451 
        0.48727         73.0579         59.0199 
       0.502856         68.0882         55.4822 
       0.518488          64.613         52.1828 
       0.534347         61.1576         49.0897 
       0.550082         59.0303            46.3 
       0.565732         57.1321         43.7562 
       0.581496         53.6627         41.3786 
       0.597222         51.0952         39.1766 
       0.612804         49.2831         37.1606 
       0.628434         48.3592         35.2907 
       0.644267         45.8629         33.5295 
       0.660051         43.8612         31.8941 
       0.675724         42.1225         30.3789 
       0.691403         41.4812         28.9625 
       0.707174         40.0909           27.63 
       0.722871         38.7608         26.3882 
        0.73838         36.9258         25.2374 
       0.754018          35.238         24.1478 
       0.769845         34.5299         23.1118 
        0.78569         33.4105          22.137 
       0.801365         32.4156         21.2291 
       0.817031         31.3109         20.3738 
       0.832809         30.6396         19.5611 
       0.848511         29.6957         18.7973 
       0.864097         28.8911         18.0804 
       0.879701         28.4609         17.4008 
       0.895507         27.4519         16.7489 
       0.911279         26.4618         16.1323 
        0.92691         26.0443         15.5525 
       0.942635         25.5223         14.9985 
       0.958396           24.75         14.4708 
       0.974128         24.1524         13.9699 
       0.989692          23.259         13.4982 
        1.00528         23.1201         13.0479 
        1.02113         22.4268         12.6115 
        1.03692         21.9592         12.1971 
        1.05264         21.5465         11.8035 
        1.06832         21.1428         11.4283 
        1.08405         20.5626         11.0687 
        1.09979         20.1745         10.7247 
        1.11537         19.6963         10.3989 
        1.13105         19.4033         10.0851 
        1.14679         18.9502         9.78316 
        1.16256         18.6052         9.49326 
        1.17828         18.2905         9.21629 
        1.19395         18.0237         8.95152 
         1.2097         17.4823         8.69599 
        1.22537         17.2519         8.45186 
          1.241         16.8939         8.21802 
        1.25666         16.7839          7.9926 
        1.27241         16.4355         7.77473 
        1.28819          15.833         7.56475 
        1.30392         15.8948         7.36329 
        1.31957         15.5116         7.17019 
        1.33529         15.3089         6.98344 
        1.35108         15.0659         6.80271 
        1.36674         14.7342         6.62979 
         1.3824         14.5667         6.46314 
        1.39811         14.3217         6.30177 
        1.41389         14.0631         6.14538 
        1.42964          13.907         5.99466 
        1.44531         13.6649         5.84983 
        1.46101         13.4868         5.70955 
        1.47667         13.2819         5.57437 
        1.49229         13.0157           5.444 
        1.50793         12.8757         5.31773 
        1.52367         12.7128         5.19472 
        1.53953         12.4622         5.07484 
        1.55526         12.3514         4.95977 
        1.57092         12.2118          4.8488 
        1.58662         12.0212         4.74102 
        1.60235         11.8629         4.63636 
        1.61809         11.7407         4.53487 
        1.63369         11.5085         4.43736 
        1.64941         11.3874         4.34208 
        1.66519         11.2133         4.24929 
        1.68085         11.0556         4.15992 
        1.69652         10.9953         4.07314 
        1.71228         10.8528         3.98838 
        1.72806         10.6402         3.90601 
        1.74368         10.5836         3.82683 
        1.75933         10.4635         3.74972 
        1.77505          10.265         3.67441 
        1.79081         10.2057         3.60107 
         1.8065         10.1403         3.53008 
        1.82218         9.96188          3.4611 
        1.83797         9.82598         3.39351 
        1.85367         9.71928         3.32814 
        1.86928         9.64493         3.26491 
        1.88497         9.50525           3.203 
        1.90073          9.3908         3.14249 
        1.91647         9.22649         3.08363 
        1.93218         9.17517         3.02642 
        1.94787         9.03745         2.97077 
        1.96363         8.97316         2.91633 
        1.97935         8.94005         2.86338 
        1.99499         8.80588         2.81206 
        2.01064         8.70487         2.76195 
         2.0264         8.60796         2.71277 
        2.04216         8.57835         2.66482 
        2.05781         8.45454         2.61836 
        2.07353          8.3593         2.57285 
        2.08928         8.19201         2.52835 
        2.10499         8.16669         2.48503 
        2.12065         8.17457         2.44287 
        2.13633         8.03995         2.40167 
        2.15211         7.93843         2.36117 
        2.16785         7.83684         2.32173 
        2.18349         7.82231         2.28345 
        2.19916         7.71125         2.24597 
        2.21489         7.63195         2.20922 
        2.23063          7.5804         2.17328 
         2.2463         7.49373         2.13831 
        2.26194         7.41081         2.10421 
        2.27765         7.33156         2.07069 
        2.29341         7.23195         2.03783 
        2.30914         7.22026         2.00576 
        2.32486         7.13276          1.9744 
        2.34061         7.07492         1.94368 
        2.35635         7.00931         1.91364 
        2.37203         6.96528         1.88436 
        2.38768         6.90939         1.85575 
        2.40339         6.83425         1.82765 
        2.41914         6.76578         1.80007 
        2.43483         6.69592         1.77316 
         2.4505         6.65296         1.74686 
        2.46622         6.58543         1.72101 
        2.48195         6.56109         1.69569 
        2.49759         6.46018         1.67102 
        2.51328         6.41966         1.64679 
        2.52906          6.3551         1.62289 
        2.54479          6.3062         1.59956 
        2.56049         6.26706         1.57674 
        2.57618         6.20784         1.55439 
        2.59189         6.21207         1.53245 
        2.60758         6.12425         1.51097 
        2.62325         6.04625         1.48994 
        2.63898         6.01922         1.46924 
        2.65468         5.95512         1.44898 
        2.67044         5.91887         1.42902 
        2.68618         5.87691          1.4095 
        2.70184         5.83729         1.39041 
        2.71755         5.76306         1.37164 
        2.73329         5.73631          1.3532 
        2.74897         5.69118         1.33515 
        2.76462         5.63476         1.31748 
        2.78034         5.60252         1.30006 
        2.79607         5.54287         1.28295 
        2.81179          5.4971         1.26616 
        2.82749         5.44749          1.2497 
        2.84321         5.43312         1.23352 
        2.85893         5.38412         1.21763 
        2.87462         5.33815         1.20205 
        2.89033         5.31317         1.18674 
        2.90605         5.26254         1.17168 
        2.92176         5.21008          1.1569 
        2.93747         5.17333         1.14238 
        2.95318         5.13231         1.12811 
        2.96891         5.11199         1.11409 
        2.98456         5.06899         1.10036 
        3.00023         5.04215         1.08685 
        3.01596         4.99363         1.07353 
        3.03164         4.94219         1.06048 
        3.04738         4.92984          1.0476 
         3.0631         4.89316         1.03495 
        3.07883         4.85322         1.02251 
        3.09456         4.79793         1.01027 
        3.11026         4.77438        0.998263 
        3.12596         4.75442        0.986452 
        3.14163         4.71213        0.974862 
        3.15734         4.67938        0.963433 
        3.17308         4.64667        0.952163 
        3.18879         4.62138        0.941106 
        3.20447         4.57984        0.930244 
         3.2202         4.54953        0.919522 
         3.2359         4.52576         0.90899 
        3.25157         4.49181         0.89865 
        3.26729         4.46485        0.888443 
        3.28304         4.42791        0.878376 
        3.29877          4.3966         0.86848 
        3.31446         4.37437        0.858761 
        3.33014         4.33328        0.849201 
        3.34585         4.32133        0.839774 
        3.36158         4.27783        0.830478 
        3.37727         4.26342        0.821354 
        3.39294         4.22816        0.812377 
        3.40867         4.20156        0.803504 
        3.42439         4.15382         0.79477 
        3.44008         4.13624        0.786185 
        3.45578         4.11482        0.777722 
        3.47153         4.09037        0.769366 
        3.48724         4.06553         0.76115 
        3.50292         4.03554        0.753075 
        3.51859         4.01406        0.745122 
        3.53431         3.97615        0.737261 
        3.55007         3.97551        0.729496 
        3.56577         3.93078        0.721874 
        3.58146         3.90948        0.714367 
        3.59719         3.88743         0.70695 
        3.61292         3.86079        0.699642 
        3.62859         3.84249        0.692467 
        3.64429         3.80687         0.68538 
        3.66003         3.78765        0.678372 
        3.67578         3.77139        0.671466 
        3.69146         3.72948        0.664684 
        3.70712         3.70618        0.658008 
        3.72284         3.68808        0.651401 
        3.73853         3.67692        0.644898 
        3.75422         3.64856        0.638481 
        3.76993         3.62506        0.632148 
        3.78564         3.60267        0.625905 
        3.80137         3.57906        0.619737 
        3.81707         3.55901        0.613666 
        3.83279         3.53647        0.607672 
        3.84853          3.5175         0.60175 
        3.86424         3.48909         0.59592 
        3.87992          3.4616        0.590177 
        3.89561         3.43956         0.58451 
        3.91134         3.43023        0.578906 
        3.92704         3.39691        0.573384 
        3.94273         3.37448         0.56794 
        3.95845         3.36101        0.562558 
        3.97418         3.34825        0.557246 
        3.98988          3.3282         0.55201 
        4.00554         3.30346        0.546857 
        4.02125         3.27291        0.541755 
        4.03698         3.26047        0.536712 
        4.05268         3.23367        0.531745 
        4.06839         3.21675        0.526838 
         4.0841         3.19763        0.521996 
        4.09983         3.17197        0.517208 
        4.11555         3.15498        0.512483 
        4.13124         3.13492        0.507831 
        4.14693         3.11865        0.503234 
        4.16266         3.09977        0.498683 
        4.17839         3.08226        0.494193 
        4.19408         3.05326        0.489768 
        4.20977         3.03675        0.485397 
        4.22551         3.02305        0.481069 
        4.24123         2.99774        0.476799 
        4.25691         2.98803        0.472593 
        4.27259         2.96656        0.468438 
        4.28831         2.95078        0.464324 
        4.30404         2.92517        0.460257 
        4.31974         2.90774        0.456248 
        4.33543         2.88574         0.45229 
        4.35116         2.88221         0.44837 
        4.36688         2.85904        0.444498 
        4.38255         2.84196        0.440687 
        4.39825         2.82144        0.436913 
        4.41398         2.80637        0.433176 
         4.4297         2.78851        0.429488 
        4.44541         2.76773        0.425844 
        4.46111         2.76284        0.422245 
        4.47683         2.74481        0.418686 
        4.49251         2.72596        0.415176 
        4.50819         2.70727        0.411708 
         4.5239         2.69036        0.408274 
        4.53962         2.67868        0.404876 
        4.55535         2.66366        0.401516 
        4.57106         2.64947        0.398199 
        4.58678          2.6239         0.39492 
         4.6025         2.61338        0.391677 
        4.61821         2.60897        0.388471 
        4.63391         2.58535        0.385306 
         4.6496         2.57716        0.382178 
        4.66532         2.56107         0.37908 
        4.68103         2.54266        0.376019 
        4.69673         2.52626        0.372995 
        4.71241         2.51827        0.370007 
        4.72811         2.50188        0.367048 
        4.74384         2.49263        0.364117 
        4.75955         2.47731        0.361224 
        4.77525         2.46015        0.358364 
        4.79096         2.44252        0.355532 
        4.80669          2.4361        0.352729 
         4.8224         2.42576         0.34996 
        4.83809         2.40987        0.347225 
        4.85379         2.39972        0.344517 
         4.8695         2.38202        0.341836 
        4.88521         2.37301        0.339186 
        4.90093         2.36421        0.336563 
        4.91663         2.34312        0.333971 
        4.93234         2.33882        0.331404 
        4.94807         2.32009        0.328863 
        4.96377         2.30725        0.326353 
        4.97943         2.29533        0.323875 
        4.99514         2.28119        0.321417 
        5.01086         2.27105        0.318982 
        5.02654         2.25979         0.31658 
        5.04227         2.24996        0.314195 
          5.058         2.24235        0.311835 
        5.07371         2.23255        0.309503 
        5.08942         2.21892        0.307195 
        5.10513          2.1982        0.304911 
        5.12084         2.19068        0.302649 
        5.13656         2.18244        0.300412 
        5.15225         2.16979          0.2982 
        5.16796         2.15933        0.296008 
        5.18369         2.14886        0.293836 
         5.1994         2.13889         0.29169 
        5.21509         2.12836        0.289568 
        5.23079         2.11915        0.287464 
        5.24649         2.10677        0.285384 
        5.26217          2.0982        0.283325 
        5.27788         2.08177        0.281285 
        5.29359         2.07638        0.279264 
        5.30933         2.06832        0.277261 
        5.32504         2.05553        0.275281 
        5.34073         2.04463        0.273322 
        5.35646         2.03327        0.271379 
        5.37218         2.02726        0.269455 
        5.38789          2.0148        0.267553 
        5.40357          2.0077        0.265671 
        5.41929         1.99713        0.263804 
        5.43502         1.98807        0.261955 
         5.4507         1.97759        0.260128 
        5.46639          1.9693        0.258318 
        5.48212         1.95949        0.256522 
        5.49786         1.94795        0.254741 
        5.51353         1.94173        0.252985 
        5.52921         1.92735        0.251245 
        5.54495         1.91952        0.249516 
        5.56066         1.91162        0.247806 
        5.57637         1.90192        0.246112 
        5.59207         1.89295        0.244436 
        5.60778         1.88598        0.242775 
        5.62346         1.87531        0.241131 
        5.63916         1.87241        0.239502 
        5.65487         1.85814        0.237887 
         5.6706         1.85141        0.236285 
        5.68633         1.83906        0.234698 
        5.70203         1.83827        0.233128 
        5.71773          1.8255        0.231574 
        5.73344           1.819        0.230033 
        5.74916         1.81297        0.228505 
        5.76486         1.79839        0.226992 
        5.78054         1.79419        0.225497 
        5.79626         1.78674         0.22401 
          5.812          1.7783        0.222536 
         5.8277         1.76881        0.221079 
        5.84339         1.76167        0.219636 
        5.85911         1.75195        0.218203 
        5.87484         1.74602        0.216783 
        5.89053         1.74024        0.215378 
        5.90623         1.73568        0.213986 
        5.92195         1.72406        0.212604 
        5.93767         1.71616        0.211235 
        5.95336          1.7083         0.20988 
        5.96905             1.7        0.208538 
        5.98476          1.6947        0.207206 
        6.00048         1.68694        0.205885 
        6.01617          1.6781        0.204578 
        6.03185         1.67239        0.203284 
        6.04756         1.66592        0.201997 
        6.06331          1.6606         0.20072 
        6.07903         1.65232        0.199456 
        6.09473         1.64396        0.198205 
        6.11044         1.63663        0.196963 
        6.12616         1.63024        0.195733 
        6.14186         1.62358        0.194514 
        6.15755         1.61464        0.193306 
        6.17326         1.61179        0.192107 
        6.18898          1.6019        0.190918 
        6.20467         1.60045        0.189741 
        6.22036         1.59085        0.188575 
         6.2361         1.58509        0.187415 
         6.2518         1.57939        0.186267 
        6.26748         1.56804        0.185131 
        6.28319         1.56607        0.184002 
        6.29893         1.55734        0.182881 
        6.31463         1.55208        0.181772 
        6.33033          1.5462        0.180672 
        6.34604         1.54116        0.179581 
        6.36177         1.53368        0.178498 
        6.37747         1.52963        0.177426 
