# k  (h/Mpc)    Pcb(k)  (Mpc/h)^3    Pcb_linear(k) (Mpc/h)^3   ShotnoiseSubtracted = true
      0.0200456         79.2945         80.4655 
      0.0350414         61.9512         61.6224 
      0.0492313         47.6597         47.5094 
      0.0637834         40.8024          41.023 
      0.0800726         32.1838          32.283 
       0.096163         24.1058         23.8834 
       0.111083         20.3413         20.1971 
       0.126058         18.0536         18.1437 
       0.142273          14.855         14.8799 
       0.158546         12.0269         11.9769 
        0.17375         10.6959         10.6598 
       0.188953         9.66675         9.69009 
       0.204907          8.2578         8.31831 
       0.220756         7.13666         7.12595 
        0.23588         6.45482         6.46333 
         0.2514         5.90165         5.91296 
       0.267535         5.24655         5.24122 
       0.283568         4.65828         4.65342 
       0.299022         4.25952         4.26123 
       0.314451         3.94782         3.92744 
       0.330372         3.57419         3.56681 
       0.346141         3.25497         3.24657 
       0.361624         3.00007         2.99986 
       0.377134         2.77749         2.78372 
       0.392932         2.59586         2.56927 
       0.408854         2.37226         2.37221 
       0.424564         2.22448         2.20766 
       0.440253         2.06776         2.06144 
       0.455999         1.91954         1.92307 
       0.471626         1.79364          1.7971 
        0.48727         1.69528         1.68503 
       0.502856         1.59458         1.58403 
       0.518488         1.48666         1.48983 
       0.534347         1.39448         1.40152 
       0.550082         1.32698         1.32188 
       0.565732         1.26214         1.24925 
       0.581496         1.18579         1.18137 
       0.597222         1.12212          1.1185 
       0.612804         1.06407         1.06095 
       0.628434         1.00923         1.00756 
       0.644267         0.96282        0.957277 
       0.660051        0.916613        0.910585 
       0.675724        0.868977        0.867324 
       0.691403        0.828334        0.826886 
       0.707174        0.790778        0.788843 
       0.722871         0.76332        0.753389 
        0.73838        0.721421        0.720533 
       0.754018        0.689807        0.689425 
       0.769845        0.657408        0.659849 
        0.78569        0.633845        0.632016 
       0.801365         0.60919        0.606097 
       0.817031        0.585152        0.581678 
       0.832809         0.55953        0.558476 
       0.848511        0.538605        0.536668 
       0.864097        0.520064        0.516199 
       0.879701        0.501986        0.496798 
       0.895507        0.478559        0.478184 
       0.911279        0.463761        0.460581 
        0.92691         0.44927        0.444027 
       0.942635        0.429612         0.42821 
       0.958396        0.415622        0.413144 
       0.974128        0.401433        0.398845 
       0.989692        0.388096        0.385376 
        1.00528        0.373147        0.372521 
        1.02113        0.363885        0.360062 
        1.03692        0.351848         0.34823 
        1.05264        0.338984        0.336994 
        1.06832         0.32871        0.326281 
        1.08405        0.317664        0.316015 
        1.09979        0.308581        0.306192 
        1.11537        0.297505        0.296892 
        1.13105        0.288098        0.287931 
        1.14679        0.280536        0.279312 
        1.16256        0.273411        0.271035 
        1.17828         0.26544        0.263128 
        1.19395        0.258028        0.255568 
         1.2097        0.249842        0.248273 
        1.22537        0.242114        0.241303 
          1.241        0.235735        0.234627 
        1.25666        0.230248        0.228191 
        1.27241        0.223186         0.22197 
        1.28819        0.216962        0.215976 
        1.30392        0.212014        0.210224 
        1.31957        0.205909        0.204711 
        1.33529        0.201328        0.199379 
        1.35108        0.195073        0.194219 
        1.36674        0.190855        0.189282 
         1.3824        0.185598        0.184524 
        1.39811        0.180494        0.179917 
        1.41389        0.177132        0.175452 
        1.42964        0.172232        0.171149 
        1.44531        0.167913        0.167014 
        1.46101        0.163491        0.163009 
        1.47667         0.16005         0.15915 
        1.49229        0.156376        0.155428 
        1.50793        0.152698        0.151823 
        1.52367        0.149112        0.148311 
        1.53953        0.145253        0.144888 
        1.55526        0.142051        0.141603 
        1.57092        0.139663        0.138434 
        1.58662         0.13624        0.135357 
        1.60235        0.133005        0.132369 
        1.61809         0.13008        0.129472 
        1.63369        0.127207        0.126688 
        1.64941        0.124523        0.123967 
        1.66519        0.121973        0.121318 
        1.68085        0.119179        0.118767 
        1.69652        0.116979        0.116289 
        1.71228        0.114153        0.113869 
        1.72806        0.112179        0.111518 
        1.74368        0.109645        0.109257 
        1.75933        0.107647        0.107056 
        1.77505        0.105622        0.104905 
        1.79081        0.103267        0.102812 
         1.8065        0.101322        0.100785 
        1.82218       0.0989529       0.0988152 
        1.83797       0.0972235       0.0968857 
        1.85367       0.0951406       0.0950192 
        1.86928       0.0930226       0.0932139 
        1.88497       0.0915058       0.0914464 
        1.90073       0.0895159        0.089719 
        1.91647       0.0884978       0.0880384 
        1.93218       0.0871627       0.0864051 
        1.94787       0.0848216       0.0848164 
        1.96363       0.0833184       0.0832619 
        1.97935       0.0817533       0.0817502 
        1.99499       0.0804166       0.0802851 
        2.01064       0.0788555       0.0788545 
         2.0264       0.0776451       0.0774502 
        2.04216       0.0762935       0.0760814 
        2.05781       0.0746055       0.0747548 
        2.07353       0.0734911       0.0734556 
        2.08928       0.0723347       0.0721849 
        2.10499       0.0710365       0.0709482 
        2.12065       0.0698248       0.0697446 
        2.13633       0.0686219       0.0685684 
        2.15211       0.0675393        0.067412 
        2.16785       0.0659979        0.066286 
        2.18349       0.0651072       0.0651932 
        2.19916       0.0639239       0.0641231 
        2.21489       0.0628592       0.0630739 
        2.23063       0.0620715       0.0620477 
         2.2463       0.0610049       0.0610494 
        2.26194       0.0600523       0.0600759 
        2.27765       0.0591675       0.0591189 
        2.29341       0.0579109       0.0581806 
        2.30914       0.0570717       0.0572649 
        2.32486       0.0560684       0.0563697 
        2.34061       0.0552267       0.0554925 
        2.35635       0.0544525        0.054635 
        2.37203       0.0539943       0.0537988 
        2.38768       0.0531133       0.0529822 
        2.40339       0.0521122       0.0521798 
        2.41914       0.0512195       0.0513924 
        2.43483       0.0506198       0.0506243 
         2.4505       0.0497341       0.0498734 
        2.46622       0.0489576       0.0491354 
        2.48195        0.048246       0.0484125 
        2.49759       0.0475568       0.0477082 
        2.51328       0.0466856       0.0470163 
        2.52906       0.0461393       0.0463339 
        2.54479       0.0455647       0.0456678 
        2.56049       0.0447409       0.0450163 
        2.57618       0.0442064       0.0443783 
        2.59189        0.043393       0.0437519 
        2.60758       0.0430528       0.0431387 
        2.62325       0.0421744       0.0425382 
        2.63898       0.0417723       0.0419472 
        2.65468       0.0410281       0.0413688 
        2.67044       0.0404774        0.040799 
        2.68618       0.0399143       0.0402415 
        2.70184       0.0396051       0.0396967 
        2.71755       0.0389662       0.0391608 
        2.73329       0.0385263       0.0386341 
        2.74897       0.0378926       0.0381189 
        2.76462       0.0373251       0.0376145 
        2.78034       0.0369062       0.0371172 
        2.79607       0.0363983       0.0366285 
        2.81179       0.0359384       0.0361493 
        2.82749       0.0355438       0.0356793 
        2.84321       0.0349832       0.0352173 
        2.85893        0.034534       0.0347637 
        2.87462       0.0340698        0.034319 
        2.89033       0.0336598       0.0338817 
        2.90605       0.0331745       0.0334519 
        2.92176       0.0329121       0.0330298 
        2.93747       0.0323446       0.0326153 
        2.95318       0.0320207       0.0322079 
        2.96891       0.0315653       0.0318074 
        2.98456       0.0311255       0.0314156 
        3.00023       0.0309275         0.03103 
        3.01596       0.0303622       0.0306496 
        3.03164       0.0300414       0.0302769 
        3.04738       0.0296982       0.0299093 
         3.0631       0.0291944        0.029548 
        3.07883       0.0290127       0.0291928 
        3.09456       0.0286593       0.0288436 
        3.11026       0.0282044       0.0285007 
        3.12596       0.0280204       0.0281635 
        3.14163       0.0276532       0.0278326 
        3.15734       0.0273845       0.0275063 
        3.17308       0.0270679       0.0271845 
        3.18879       0.0266653       0.0268688 
        3.20447       0.0263983       0.0265587 
         3.2202       0.0260726       0.0262526 
         3.2359       0.0257959       0.0259519 
        3.25157       0.0254958       0.0256567 
        3.26729       0.0252344       0.0253653 
        3.28304       0.0249957       0.0250779 
        3.29877       0.0246837       0.0247953 
        3.31446       0.0243454       0.0245179 
        3.33014       0.0241385       0.0242449 
        3.34585       0.0239252       0.0239758 
        3.36158       0.0236263       0.0237104 
        3.37727       0.0233096       0.0234499 
        3.39294       0.0230928       0.0231936 
        3.40867       0.0229252       0.0229402 
        3.42439       0.0226372       0.0226909 
        3.44008       0.0224162       0.0224458 
        3.45578       0.0221383       0.0222042 
        3.47153       0.0219632       0.0219656 
        3.48724        0.021708        0.021731 
        3.50292       0.0215535       0.0215005 
        3.51859       0.0213463       0.0212734 
        3.53431       0.0210843        0.021049 
        3.55007         0.02088       0.0208273 
        3.56577       0.0206855       0.0206097 
        3.58146       0.0204473       0.0203954 
        3.59719       0.0203469       0.0201836 
        3.61292       0.0200861        0.019975 
        3.62859       0.0198355       0.0197701 
        3.64429       0.0197036       0.0195678 
        3.66003       0.0195625       0.0193677 
        3.67578       0.0193458       0.0191705 
        3.69146       0.0191865       0.0189769 
        3.70712       0.0189859       0.0187863 
        3.72284        0.018805       0.0185977 
        3.73853       0.0186183        0.018412 
        3.75422       0.0184834       0.0182288 
        3.76993       0.0183227        0.018048 
        3.78564       0.0181568       0.0178697 
        3.80137        0.017997       0.0176936 
        3.81707       0.0177897       0.0175203 
        3.83279       0.0176337       0.0173492 
        3.84853       0.0175099       0.0171801 
        3.86424       0.0173361       0.0170137 
        3.87992       0.0172438       0.0168497 
        3.89561       0.0170733       0.0166879 
        3.91134       0.0169218       0.0165279 
        3.92704       0.0167779       0.0163703 
        3.94273       0.0166545       0.0162148 
        3.95845       0.0164995       0.0160612 
        3.97418       0.0163613       0.0159095 
        3.98988       0.0161576         0.01576 
        4.00554       0.0160544       0.0156129 
        4.02125       0.0158834       0.0154673 
        4.03698        0.015672       0.0153233 
        4.05268       0.0155235       0.0151815 
        4.06839        0.015366       0.0150414 
         4.0841       0.0151484       0.0149031 
        4.09983       0.0150074       0.0147664 
        4.11555       0.0148407       0.0146315 
        4.13124       0.0146594       0.0144987 
        4.14693       0.0145341       0.0143675 
        4.16266       0.0143729       0.0142375 
        4.17839       0.0142243       0.0141093 
        4.19408       0.0140561        0.013983 
        4.20977       0.0139055       0.0138582 
        4.22551       0.0137893       0.0137346 
        4.24123       0.0136669       0.0136127 
        4.25691        0.013565       0.0134927 
        4.27259       0.0133985        0.013374 
        4.28831       0.0132938       0.0132566 
        4.30404       0.0131839       0.0131405 
        4.31974       0.0131061        0.013026 
        4.33543       0.0129784        0.012913 
        4.35116       0.0128525       0.0128011 
        4.36688       0.0127812       0.0126905 
        4.38255       0.0127238       0.0125817 
        4.39825       0.0126693        0.012474 
        4.41398       0.0125472       0.0123673 
         4.4297       0.0124913        0.012262 
        4.44541        0.012421        0.012158 
        4.46111       0.0123297       0.0120552 
        4.47683       0.0123258       0.0119536 
        4.49251       0.0122337       0.0118534 
        4.50819        0.012174       0.0117544 
         4.5239       0.0121233       0.0116563 
        4.53962       0.0120995       0.0115593 
        4.55535       0.0120501       0.0114634 
        4.57106       0.0120616       0.0113687 
        4.58678       0.0120002       0.0112751 
         4.6025       0.0119823       0.0111825 
        4.61821       0.0119557        0.011091 
        4.63391       0.0119535       0.0110006 
         4.6496       0.0119189       0.0109113 
        4.66532       0.0119259       0.0108228 
        4.68103       0.0118903       0.0107354 
        4.69673       0.0118906       0.0106491 
        4.71241       0.0119834       0.0105638 
        4.72811       0.0119709       0.0104793 
        4.74384       0.0119933       0.0103956 
        4.75955       0.0119947        0.010313 
        4.77525       0.0120027       0.0102314 
        4.79096         0.01206       0.0101505 
        4.80669       0.0120885       0.0100705 
         4.8224        0.012154      0.00999146 
        4.83809       0.0121988      0.00991336 
        4.85379       0.0122736      0.00983605 
         4.8695       0.0122735      0.00975952 
        4.88521       0.0123639      0.00968384 
        4.90093       0.0123989      0.00960897 
        4.91663       0.0125011      0.00953497 
        4.93234        0.012563      0.00946167 
        4.94807       0.0126388      0.00938911 
        4.96377       0.0127282      0.00931746 
        4.97943       0.0129097      0.00924671 
        4.99514       0.0129281      0.00917653 
        5.01086       0.0130429      0.00910703 
        5.02654       0.0131409      0.00903844 
        5.04227       0.0132479      0.00897036 
          5.058       0.0134063      0.00890296 
        5.07371       0.0134933      0.00883639 
        5.08942       0.0136926      0.00877051 
        5.10513       0.0137522       0.0087053 
        5.12084       0.0138991      0.00864072 
        5.13656       0.0140427      0.00857683 
        5.15225       0.0142306      0.00851369 
        5.16796       0.0144507       0.0084511 
        5.18369        0.014573      0.00838909 
         5.1994       0.0147671      0.00832783 
        5.21509       0.0149105      0.00826723 
        5.23079       0.0150803      0.00820718 
        5.24649       0.0152808      0.00814778 
        5.26217       0.0154988      0.00808901 
        5.27788       0.0156955      0.00803075 
        5.29359       0.0159004      0.00797307 
        5.30933       0.0161669      0.00791587 
        5.32504       0.0163739      0.00785933 
        5.34073       0.0166173      0.00780342 
        5.35646       0.0169316      0.00774795 
        5.37218       0.0171936      0.00769301 
        5.38789       0.0173514       0.0076387 
        5.40357       0.0176545      0.00758498 
        5.41929       0.0179216      0.00753167 
        5.43502       0.0182957      0.00747887 
         5.4507       0.0185298      0.00742671 
        5.46639       0.0187962      0.00737505 
        5.48212        0.019087      0.00732376 
        5.49786       0.0195917      0.00727291 
        5.51353       0.0198849       0.0072228 
        5.52921       0.0201447      0.00717311 
        5.54495        0.020532      0.00712376 
        5.56066       0.0209365      0.00707492 
        5.57637       0.0213055      0.00702656 
        5.59207        0.021747       0.0069787 
        5.60778       0.0221902      0.00693128 
        5.62346       0.0225098      0.00688436 
        5.63916       0.0228382      0.00683784 
        5.65487       0.0233863      0.00679173 
         5.6706       0.0237922        0.006746 
        5.68633       0.0243002      0.00670068 
        5.70203       0.0248044      0.00665588 
        5.71773        0.025327      0.00661149 
        5.73344       0.0255926       0.0065675 
        5.74916        0.026221      0.00652386 
        5.76486       0.0268898      0.00648069 
        5.78054       0.0273199      0.00643798 
        5.79626       0.0278619      0.00639555 
          5.812       0.0285165      0.00635345 
         5.8277       0.0289954      0.00631187 
        5.84339       0.0296621      0.00627066 
        5.85911       0.0304859      0.00622974 
        5.87484       0.0310928       0.0061892 
        5.89053       0.0316502      0.00614911 
        5.90623       0.0325479      0.00610936 
        5.92195        0.032976       0.0060699 
        5.93767        0.033822      0.00603081 
        5.95336       0.0346844      0.00599213 
        5.96905       0.0353523      0.00595381 
        5.98476       0.0359481      0.00591578 
        6.00048       0.0370901      0.00587807 
        6.01617       0.0376596      0.00584075 
        6.03185        0.038475       0.0058038 
        6.04756       0.0396446      0.00576708 
        6.06331       0.0404655      0.00573061 
        6.07903       0.0414328      0.00569453 
        6.09473       0.0423058       0.0056588 
        6.11044       0.0436588      0.00562336 
        6.12616       0.0443211      0.00558822 
        6.14186       0.0455935      0.00555342 
        6.15755       0.0466384      0.00551893 
        6.17326         0.04759       0.0054847 
        6.18898       0.0487356      0.00545076 
        6.20467       0.0499777      0.00541716 
        6.22036       0.0515334      0.00538386 
         6.2361       0.0524583      0.00535074 
         6.2518       0.0537821      0.00531797 
        6.26748       0.0547909      0.00528554 
        6.28319       0.0567927       0.0052533 
        6.29893       0.0579518       0.0052213 
        6.31463       0.0597406      0.00518963 
        6.33033       0.0604322      0.00515824 
        6.34604       0.0620888      0.00512708 
        6.36177        0.063554      0.00509616 
        6.37747       0.0658727      0.00506555 
