# k  (h/Mpc)    Pcb(k)  (Mpc/h)^3    Pcb_linear(k) (Mpc/h)^3   ShotnoiseSubtracted = true
      0.0200456         16148.2           16447 
      0.0350414         12913.2         12595.5 
      0.0492313         9495.13         9710.84 
      0.0637834         7922.77         8385.02 
      0.0800726         6199.41         6598.59 
       0.096163         4985.01         4881.73 
       0.111083         4253.82         4128.25 
       0.126058         3557.28         3708.54 
       0.142273         3040.88         3041.43 
       0.158546         2531.06         2448.05 
        0.17375         2304.82         2178.84 
       0.188953         2168.17         1980.64 
       0.204907         1851.81         1700.25 
       0.220756         1675.85         1456.53 
        0.23588         1513.75         1321.09 
         0.2514         1371.03          1208.6 
       0.267535         1326.21          1071.3 
       0.283568         1176.96         951.151 
       0.299022         1130.47         870.988 
       0.314451         1167.78         802.761 
       0.330372         1023.21         729.049 
       0.346141         945.021         663.594 
       0.361624         908.821         613.167 
       0.377134         866.035         568.987 
       0.392932         836.095         525.154 
       0.408854         797.289         484.876 
       0.424564         778.377         451.242 
       0.440253         717.648         421.355 
       0.455999         687.642         393.071 
       0.471626         700.039         367.324 
        0.48727         662.709         344.418 
       0.502856          623.08         323.774 
       0.518488         616.361         304.519 
       0.534347          580.41         286.469 
       0.550082         557.792         270.189 
       0.565732         553.241         255.345 
       0.581496         540.516          241.47 
       0.597222          525.06          228.62 
       0.612804         514.833         216.856 
       0.628434         493.108         205.943 
       0.644267         476.235         195.666 
       0.660051         469.738         186.122 
       0.675724         462.472          177.28 
       0.691403         450.115         169.014 
       0.707174         433.843         161.238 
       0.722871         425.828         153.991 
        0.73838          421.59         147.276 
       0.754018         407.142         140.917 
       0.769845         402.368         134.872 
        0.78569         394.406         129.183 
       0.801365         382.496         123.885 
       0.817031         376.451         118.894 
       0.832809         371.889         114.151 
       0.848511          362.57         109.694 
       0.864097         354.265          105.51 
       0.879701         350.417         101.545 
       0.895507         339.233           97.74 
       0.911279         332.311         94.1419 
        0.92691         329.141         90.7583 
       0.942635         327.187         87.5254 
       0.958396         315.749          84.446 
       0.974128         311.613         81.5232 
       0.989692         299.726         78.7702 
        1.00528         299.267         76.1427 
        1.02113         293.992         73.5961 
        1.03692         287.572         71.1776 
        1.05264         283.028          68.881 
        1.06832         281.012         66.6913 
        1.08405         274.205         64.5928 
        1.09979         271.124         62.5851 
        1.11537         263.882         60.6843 
        1.13105          260.14         58.8526 
        1.14679         256.922         57.0908 
        1.16256         253.872         55.3991 
        1.17828          249.75         53.7828 
        1.19395         242.996         52.2377 
         1.2097          242.72         50.7466 
        1.22537         239.071         49.3219 
          1.241         233.736         47.9573 
        1.25666         230.381         46.6418 
        1.27241         225.981         45.3704 
        1.28819         222.893         44.1451 
        1.30392         219.097         42.9694 
        1.31957         214.327         41.8426 
        1.33529         211.417         40.7527 
        1.35108         209.376         39.6981 
        1.36674          205.33          38.689 
         1.3824         202.826         37.7165 
        1.39811         199.754         36.7748 
        1.41389         195.405         35.8622 
        1.42964         193.232         34.9826 
        1.44531         190.224         34.1374 
        1.46101         187.013         33.3188 
        1.47667         184.461         32.5299 
        1.49229         181.885         31.7692 
        1.50793         179.219         31.0323 
        1.52367         177.001         30.3144 
        1.53953         172.753         29.6149 
        1.55526         172.044         28.9433 
        1.57092         169.811         28.2958 
        1.58662         165.373         27.6668 
        1.60235         163.755         27.0561 
        1.61809         160.474         26.4638 
        1.63369         158.821         25.8948 
        1.64941         157.408         25.3387 
        1.66519         154.301         24.7973 
        1.68085         151.899         24.2757 
        1.69652         149.808         23.7693 
        1.71228         147.992         23.2747 
        1.72806         145.877          22.794 
        1.74368         144.043         22.3319 
        1.75933         142.327          21.882 
        1.77505         139.736         21.4425 
        1.79081         137.454         21.0145 
         1.8065          135.45         20.6002 
        1.82218         133.352         20.1977 
        1.83797         132.757         19.8033 
        1.85367         130.161         19.4218 
        1.86928          128.62         19.0528 
        1.88497          127.13         18.6915 
        1.90073         125.589         18.3384 
        1.91647         123.359         17.9949 
        1.93218         122.037         17.6611 
        1.94787         120.075         17.3363 
        1.96363         119.173         17.0186 
        1.97935         117.372         16.7096 
        1.99499          116.26         16.4101 
        2.01064          113.82         16.1177 
         2.0264         112.475         15.8307 
        2.04216         110.728         15.5509 
        2.05781         109.512         15.2798 
        2.07353         107.838         15.0142 
        2.08928         106.515         14.7545 
        2.10499         105.091         14.5017 
        2.12065         104.457         14.2557 
        2.13633         103.158         14.0153 
        2.15211         101.517         13.7789 
        2.16785         99.8748         13.5488 
        2.18349         98.3673         13.3254 
        2.19916         97.6159         13.1067 
        2.21489          96.381         12.8922 
        2.23063         94.8657         12.6824 
         2.2463         93.8593         12.4784 
        2.26194         92.4293         12.2794 
        2.27765         91.2646         12.0838 
        2.29341         90.4431          11.892 
        2.30914         89.3097         11.7048 
        2.32486         87.8445         11.5219 
        2.34061         86.8791         11.3426 
        2.35635         85.7688         11.1673 
        2.37203         84.5194         10.9964 
        2.38768         83.6883         10.8295 
        2.40339         82.8478         10.6655 
        2.41914         81.4966         10.5045 
        2.43483         80.5295         10.3475 
         2.4505         79.7733          10.194 
        2.46622         78.7858         10.0432 
        2.48195         77.7058         9.89542 
        2.49759         76.6826         9.75147 
        2.51328         76.0424         9.61004 
        2.52906         74.4531         9.47057 
        2.54479          73.651         9.33443 
        2.56049         72.8104         9.20126 
        2.57618         71.9625         9.07085 
        2.59189         71.2919         8.94281 
        2.60758         70.3584         8.81748 
        2.62325          69.678         8.69473 
        2.63898          68.774         8.57393 
        2.65468          67.923         8.45571 
        2.67044         67.0902         8.33925 
        2.68618         66.3881         8.22528 
        2.70184         65.2332         8.11393 
        2.71755         64.6127         8.00439 
        2.73329          63.823         7.89674 
        2.74897          63.293         7.79145 
        2.76462         62.6404         7.68833 
        2.78034         61.8126         7.58669 
        2.79607         61.0356          7.4868 
        2.81179         60.3994         7.38885 
        2.82749         59.7813         7.29279 
        2.84321         59.1362         7.19835 
        2.85893         58.4644         7.10564 
        2.87462          57.745         7.01474 
        2.89033         56.9905         6.92537 
        2.90605         56.5934         6.83751 
        2.92176         55.7201         6.75123 
        2.93747         54.9717         6.66651 
        2.95318         54.6184         6.58325 
        2.96891         53.8772         6.50139 
        2.98456         53.2399          6.4213 
        3.00023         52.6888         6.34247 
        3.01596         52.2274         6.26473 
        3.03164         51.7069         6.18854 
        3.04738         50.9617         6.11341 
         3.0631          50.392         6.03957 
        3.07883         49.8869         5.96696 
        3.09456         49.2844         5.89558 
        3.11026         48.6928         5.82549 
        3.12596         48.3942         5.75656 
        3.14163         47.5968         5.68893 
        3.15734         47.1632         5.62223 
        3.17308         46.6827         5.55646 
        3.18879         46.1706         5.49194 
        3.20447         45.6301         5.42855 
         3.2202         45.1403         5.36598 
         3.2359         44.8508         5.30452 
        3.25157         44.2004         5.24419 
        3.26729         43.8357         5.18462 
        3.28304         43.4094         5.12587 
        3.29877         42.8062         5.06812 
        3.31446         42.5955         5.01141 
        3.33014          42.017         4.95562 
        3.34585         41.6004         4.90061 
        3.36158         41.0498         4.84636 
        3.37727         40.7987         4.79311 
        3.39294         40.2996         4.74073 
        3.40867          39.976         4.68895 
        3.42439         39.4441         4.63798 
        3.44008         39.0888         4.58788 
        3.45578         38.5833         4.53849 
        3.47153         38.2357         4.48973 
        3.48724         37.7346         4.44179 
        3.50292         37.3995         4.39466 
        3.51859         37.2174         4.34825 
        3.53431          36.681         4.30238 
        3.55007         36.3721         4.25706 
        3.56577         36.0297         4.21259 
        3.58146         35.6419         4.16877 
        3.59719         35.1963         4.12549 
        3.61292         34.8597         4.08285 
        3.62859         34.6345         4.04098 
        3.64429         34.4215         3.99962 
        3.66003         33.9936         3.95873 
        3.67578         33.6255         3.91842 
        3.69146         33.3185         3.87884 
        3.70712         32.9552         3.83989 
        3.72284         32.6824         3.80133 
        3.73853          32.348         3.76338 
        3.75422         32.0347         3.72594 
        3.76993         31.8165         3.68898 
        3.78564         31.4363         3.65255 
        3.80137         31.1406         3.61655 
        3.81707         30.7855         3.58112 
        3.83279         30.5216         3.54615 
        3.84853         30.2028         3.51159 
        3.86424         29.9697         3.47757 
        3.87992         29.6233         3.44405 
        3.89561         29.4939         3.41098 
        3.91134         29.1096         3.37828 
        3.92704         28.8487         3.34605 
        3.94273         28.6358         3.31429 
        3.95845         28.2855         3.28288 
        3.97418          27.954         3.25188 
        3.98988         27.6387         3.22132 
        4.00554         27.4114         3.19125 
        4.02125         27.2486         3.16148 
        4.03698         27.0043         3.13205 
        4.05268         26.8074         3.10306 
        4.06839          26.455         3.07443 
         4.0841         26.2757         3.04617 
        4.09983         25.9659         3.01823 
        4.11555         25.7861         2.99066 
        4.13124         25.5816         2.96351 
        4.14693         25.3147         2.93668 
        4.16266         25.0978         2.91013 
        4.17839          24.864         2.88392 
        4.19408         24.6055          2.8581 
        4.20977         24.3936         2.83259 
        4.22551         24.3178         2.80734 
        4.24123          24.022         2.78242 
        4.25691           23.75         2.75788 
        4.27259         23.5571         2.73363 
        4.28831         23.3842         2.70962 
        4.30404         23.1398         2.68589 
        4.31974         22.9546         2.66249 
        4.33543         22.7948         2.63939 
        4.35116         22.5768         2.61652 
        4.36688         22.3982         2.59392 
        4.38255         22.1876         2.57168 
        4.39825         22.0279         2.54966 
        4.41398         21.8249         2.52786 
         4.4297         21.6286         2.50633 
        4.44541         21.3599         2.48507 
        4.46111         21.2649         2.46407 
        4.47683         21.0189          2.4433 
        4.49251         20.8225         2.42281 
        4.50819         20.6992         2.40257 
         4.5239         20.4971         2.38254 
        4.53962         20.3204         2.36271 
        4.55535         20.1336          2.3431 
        4.57106         19.9956         2.32374 
        4.58678          19.796          2.3046 
         4.6025         19.7001         2.28568 
        4.61821         19.4698         2.26697 
        4.63391         19.3407          2.2485 
         4.6496          19.205         2.23025 
        4.66532         18.9977         2.21217 
        4.68103         18.8423         2.19431 
        4.69673         18.7094         2.17666 
        4.71241         18.5683         2.15922 
        4.72811         18.3652         2.14195 
        4.74384         18.2627         2.12485 
        4.75955         18.0589         2.10797 
        4.77525         17.9378         2.09128 
        4.79096         17.7926         2.07475 
        4.80669         17.6699         2.05839 
         4.8224         17.5039         2.04224 
        4.83809           17.39         2.02627 
        4.85379         17.2153         2.01047 
         4.8695         17.0016         1.99483 
        4.88521         16.9266         1.97936 
        4.90093         16.8434         1.96406 
        4.91663         16.6529         1.94893 
        4.93234         16.4868         1.93395 
        4.94807         16.4168         1.91912 
        4.96377         16.2541         1.90447 
        4.97943         16.1347         1.89001 
        4.99514         16.0074         1.87567 
        5.01086         15.9002         1.86146 
        5.02654          15.771         1.84744 
        5.04227         15.6436         1.83353 
          5.058         15.5252         1.81975 
        5.07371         15.3734         1.80614 
        5.08942         15.2619         1.79268 
        5.10513         15.1408         1.77935 
        5.12084         15.0157         1.76615 
        5.13656         14.9061         1.75309 
        5.15225          14.776         1.74018 
        5.16796         14.6824         1.72739 
        5.18369          14.585         1.71472 
         5.1994          14.462         1.70219 
        5.21509         14.3452         1.68981 
        5.23079         14.2377         1.67753 
        5.24649         14.1479         1.66539 
        5.26217         14.0081         1.65338 
        5.27788          13.935         1.64147 
        5.29359         13.8087         1.62968 
        5.30933          13.712         1.61799 
        5.32504         13.5892         1.60643 
        5.34073          13.487         1.59501 
        5.35646         13.4042         1.58367 
        5.37218         13.2892         1.57244 
        5.38789         13.1748         1.56134 
        5.40357         13.1046         1.55036 
        5.41929         13.0276         1.53946 
        5.43502         12.9035         1.52867 
         5.4507          12.805         1.51801 
        5.46639         12.7113         1.50745 
        5.48212         12.6076         1.49696 
        5.49786         12.5262         1.48657 
        5.51353         12.4281         1.47633 
        5.52921         12.3473         1.46617 
        5.54495         12.2529         1.45608 
        5.56066         12.1618          1.4461 
        5.57637         12.0875         1.43622 
        5.59207         11.9808         1.42643 
        5.60778         11.8972         1.41674 
        5.62346         11.8089         1.40715 
        5.63916         11.7219         1.39764 
        5.65487         11.6274         1.38822 
         5.6706         11.5452         1.37887 
        5.68633         11.4755         1.36961 
        5.70203         11.3941         1.36045 
        5.71773         11.3117         1.35138 
        5.73344         11.2378         1.34238 
        5.74916         11.1518         1.33347 
        5.76486         11.0479         1.32464 
        5.78054         10.9875         1.31591 
        5.79626          10.923         1.30724 
          5.812         10.8255         1.29864 
         5.8277         10.7537         1.29013 
        5.84339         10.6815         1.28171 
        5.85911         10.5937         1.27335 
        5.87484         10.5608         1.26506 
        5.89053         10.4449         1.25687 
        5.90623          10.389         1.24874 
        5.92195         10.2897         1.24068 
        5.93767         10.2312         1.23269 
        5.95336         10.1481         1.22478 
        5.96905         10.0748         1.21695 
        5.98476         10.0282         1.20918 
        6.00048         9.96489         1.20147 
        6.01617         9.88695         1.19384 
        6.03185         9.81062         1.18629 
        6.04756         9.75449         1.17878 
        6.06331         9.68121         1.17133 
        6.07903         9.61252         1.16395 
        6.09473         9.54363         1.15665 
        6.11044         9.47285          1.1494 
        6.12616         9.41795         1.14222 
        6.14186         9.34694         1.13511 
        6.15755         9.30159         1.12806 
        6.17326         9.20712         1.12106 
        6.18898         9.15109         1.11413 
        6.20467         9.10165         1.10726 
        6.22036         9.03292         1.10045 
         6.2361          8.9842         1.09368 
         6.2518         8.92288         1.08698 
        6.26748         8.86982         1.08036 
        6.28319         8.78815         1.07377 
        6.29893         8.71814         1.06723 
        6.31463         8.67572         1.06075 
        6.33033         8.62439         1.05433 
        6.34604         8.56072         1.04797 
        6.36177          8.5073         1.04165 
        6.37747          8.4481         1.03539 
