# k  (h/Mpc)    Pcb(k)  (Mpc/h)^3    Pcb_linear(k) (Mpc/h)^3   ShotnoiseSubtracted = true
      0.0200456         30660.2         31359.4 
      0.0350414         24702.4         24015.8 
      0.0492313         17730.8         18515.6 
      0.0637834         14719.1         15987.7 
      0.0800726         11470.2         12581.5 
       0.096163         9473.72         9307.97 
       0.111083         8026.85         7871.31 
       0.126058         6686.04         7071.05 
       0.142273          5842.3         5799.07 
       0.158546         4843.89         4667.69 
        0.17375         4501.96         4154.37 
       0.188953         4375.74         3776.47 
       0.204907         3770.41         3241.85 
       0.220756          3458.4         2777.16 
        0.23588         3120.33         2518.92 
         0.2514         2870.57         2304.43 
       0.267535         2743.55         2042.63 
       0.283568         2504.84         1813.55 
       0.299022         2396.68         1660.71 
       0.314451         2478.69         1530.62 
       0.330372         2297.76         1390.07 
       0.346141         2142.82         1265.27 
       0.361624          2033.1         1169.12 
       0.377134         1991.39         1084.88 
       0.392932         1872.11         1001.31 
       0.408854         1821.91         924.509 
       0.424564         1783.73         860.379 
       0.440253          1711.2         803.394 
       0.455999         1633.21         749.467 
       0.471626         1616.46         700.375 
        0.48727         1560.29           656.7 
       0.502856         1539.76         617.337 
       0.518488         1460.98         580.625 
       0.534347         1415.53         546.209 
       0.550082         1383.91         515.168 
       0.565732         1344.07         486.864 
       0.581496         1307.85         460.409 
       0.597222          1304.8         435.908 
       0.612804         1255.21         413.477 
       0.628434          1216.6          392.67 
       0.644267         1199.18         373.075 
       0.660051         1164.98         354.878 
       0.675724         1155.17         338.018 
       0.691403          1101.8         322.258 
       0.707174         1081.79         307.432 
       0.722871         1077.72         293.614 
        0.73838         1032.79          280.81 
       0.754018          1035.3         268.686 
       0.769845          1000.2          257.16 
        0.78569         974.329         246.313 
       0.801365         958.609         236.211 
       0.817031         941.123         226.694 
       0.832809         919.096         217.652 
       0.848511         886.267         209.153 
       0.864097         878.558         201.176 
       0.879701         869.704         193.615 
       0.895507         852.078          186.36 
       0.911279         839.061           179.5 
        0.92691         823.892         173.048 
       0.942635         797.496         166.884 
       0.958396         798.225         161.013 
       0.974128           774.6          155.44 
       0.989692         761.978         150.191 
        1.00528         742.669         145.181 
        1.02113         727.764         140.325 
        1.03692         710.354         135.714 
        1.05264         705.096         131.335 
        1.06832         695.476          127.16 
        1.08405         679.049         123.159 
        1.09979         668.887         119.331 
        1.11537         649.462         115.706 
        1.13105         641.029         112.214 
        1.14679         632.949         108.855 
        1.16256         619.872         105.629 
        1.17828         613.583         102.547 
        1.19395         600.118         99.6013 
         1.2097         584.576         96.7581 
        1.22537         575.023         94.0418 
          1.241         563.501         91.4398 
        1.25666         551.319         88.9316 
        1.27241         547.092         86.5074 
        1.28819         534.845         84.1711 
        1.30392          527.12         81.9295 
        1.31957         517.062         79.7809 
        1.33529         507.559          77.703 
        1.35108         504.464          75.692 
        1.36674         495.129          73.768 
         1.3824         488.362         71.9137 
        1.39811         477.096         70.1182 
        1.41389         473.165         68.3781 
        1.42964         460.987         66.7011 
        1.44531         455.948         65.0895 
        1.46101         445.084         63.5287 
        1.47667         442.983         62.0246 
        1.49229         436.457          60.574 
        1.50793         423.866         59.1691 
        1.52367         420.314         57.8003 
        1.53953         411.835         56.4665 
        1.55526         401.654         55.1861 
        1.57092         397.453         53.9514 
        1.58662         392.211         52.7521 
        1.60235         386.528         51.5876 
        1.61809         379.234         50.4583 
        1.63369          373.45         49.3734 
        1.64941         368.959         48.3132 
        1.66519         363.258         47.2808 
        1.68085         354.166         46.2864 
        1.69652         350.593         45.3208 
        1.71228         345.872         44.3777 
        1.72806         338.581         43.4612 
        1.74368         335.017         42.5802 
        1.75933         328.727         41.7222 
        1.77505         325.648         40.8843 
        1.79081         321.523         40.0682 
         1.8065         316.456         39.2783 
        1.82218         310.761         38.5108 
        1.83797         306.792         37.7588 
        1.85367         302.074         37.0314 
        1.86928         297.241         36.3278 
        1.88497         291.535         35.6389 
        1.90073         289.291         34.9657 
        1.91647         285.213         34.3108 
        1.93218         280.766         33.6742 
        1.94787         278.517          33.055 
        1.96363         273.887         32.4492 
        1.97935         268.538         31.8601 
        1.99499         265.219         31.2891 
        2.01064         262.141         30.7316 
         2.0264         257.601         30.1843 
        2.04216         253.207         29.6508 
        2.05781         248.274         29.1338 
        2.07353          246.81         28.6275 
        2.08928         242.089         28.1323 
        2.10499         240.428         27.6503 
        2.12065         237.121         27.1812 
        2.13633         233.795         26.7228 
        2.15211         230.565         26.2722 
        2.16785           226.9         25.8333 
        2.18349         223.725         25.4074 
        2.19916         222.352         24.9904 
        2.21489         218.759         24.5815 
        2.23063         215.296         24.1815 
         2.2463         213.127         23.7925 
        2.26194         208.394         23.4131 
        2.27765         206.305         23.0401 
        2.29341         203.894         22.6744 
        2.30914         201.256         22.3175 
        2.32486         199.432         21.9687 
        2.34061         196.176         21.6268 
        2.35635         193.879         21.2926 
        2.37203         190.516         20.9667 
        2.38768         188.604         20.6485 
        2.40339         186.108         20.3358 
        2.41914         184.595         20.0289 
        2.43483         181.263         19.7295 
         2.4505         179.601         19.4369 
        2.46622         177.983         19.1493 
        2.48195         175.206         18.8675 
        2.49759         172.836         18.5931 
        2.51328          170.69         18.3234 
        2.52906         168.903         18.0575 
        2.54479         166.424         17.7979 
        2.56049         164.379          17.544 
        2.57618          162.67         17.2953 
        2.59189           161.2         17.0512 
        2.60758         158.361         16.8122 
        2.62325         156.533         16.5782 
        2.63898         154.628         16.3479 
        2.65468          152.73         16.1225 
        2.67044         151.617         15.9004 
        2.68618         149.518         15.6831 
        2.70184         147.684         15.4708 
        2.71755         145.471         15.2619 
        2.73329          144.33         15.0567 
        2.74897         142.456         14.8559 
        2.76462         140.758         14.6593 
        2.78034         138.939         14.4655 
        2.79607           137.6          14.275 
        2.81179         136.094         14.0883 
        2.82749         134.481         13.9051 
        2.84321         132.728          13.725 
        2.85893          131.01         13.5483 
        2.87462         129.675          13.375 
        2.89033          128.94         13.2046 
        2.90605         126.529          13.037 
        2.92176         125.966         12.8725 
        2.93747          123.96          12.711 
        2.95318         122.293         12.5522 
        2.96891          121.45         12.3962 
        2.98456         119.781         12.2435 
        3.00023         118.956         12.0931 
        3.01596         118.025         11.9449 
        3.03164         116.038         11.7997 
        3.04738         114.706         11.6564 
         3.0631         113.413         11.5156 
        3.07883         112.375         11.3772 
        3.09456         110.827         11.2411 
        3.11026         109.623         11.1074 
        3.12596         108.882          10.976 
        3.14163         107.581          10.847 
        3.15734         106.331         10.7199 
        3.17308         105.042         10.5945 
        3.18879         103.815         10.4715 
        3.20447          103.31         10.3506 
         3.2202         101.837         10.2313 
         3.2359          100.42         10.1141 
        3.25157         99.6534         9.99906 
        3.26729          98.801         9.88548 
        3.28304         97.6786         9.77347 
        3.29877         96.6293         9.66336 
        3.31446         95.7897         9.55522 
        3.33014         94.7712         9.44885 
        3.34585         93.6787         9.34395 
        3.36158         92.6003         9.24052 
        3.37727         91.5314         9.13899 
        3.39294         90.6346         9.03911 
        3.40867         89.9168         8.94038 
        3.42439         88.9702          8.8432 
        3.44008         87.9653         8.74768 
        3.45578         87.5649         8.65351 
        3.47153         86.4193         8.56054 
        3.48724         85.5719         8.46912 
        3.50292          84.527         8.37927 
        3.51859         83.8992         8.29078 
        3.53431         82.8534         8.20331 
        3.55007         82.1879         8.11691 
        3.56577         81.2771         8.03211 
        3.58146         80.4589         7.94858 
        3.59719         79.9529         7.86605 
        3.61292         78.9087         7.78475 
        3.62859         78.2262         7.70491 
        3.64429         77.4062         7.62605 
        3.66003         76.6361         7.54808 
        3.67578          75.812         7.47124 
        3.69146         75.3807         7.39577 
        3.70712         74.5243         7.32149 
        3.72284         73.8572         7.24798 
        3.73853         73.2336         7.17561 
        3.75422         72.2797         7.10422 
        3.76993         71.6387         7.03376 
        3.78564         71.0099         6.96429 
        3.80137         70.2634         6.89566 
        3.81707         69.5367         6.82811 
        3.83279         68.8678         6.76142 
        3.84853         68.5114         6.69552 
        3.86424         67.6529         6.63065 
        3.87992         67.1247         6.56675 
        3.89561         66.3214         6.50369 
        3.91134         65.7951         6.44135 
        3.92704         65.1322          6.3799 
        3.94273         64.4768         6.31933 
        3.95845         64.0315         6.25944 
        3.97418         63.6967         6.20033 
        3.98988         62.8961         6.14208 
        4.00554         62.4229         6.08474 
        4.02125         61.8561         6.02797 
        4.03698         61.2617         5.97186 
        4.05268         60.6316         5.91659 
        4.06839         60.0348           5.862 
         4.0841         59.5887         5.80811 
        4.09983         58.9547         5.75484 
        4.11555         58.4543         5.70227 
        4.13124         57.9438         5.65051 
        4.14693         57.4203         5.59935 
        4.16266         56.9791         5.54872 
        4.17839         56.2895         5.49876 
        4.19408         55.8925         5.44953 
        4.20977         55.3566         5.40089 
        4.22551          54.887         5.35273 
        4.24123         54.3823         5.30522 
        4.25691         53.9329         5.25843 
        4.27259          53.543         5.21219 
        4.28831         52.9909         5.16642 
        4.30404         52.5437         5.12117 
        4.31974         52.0619         5.07656 
        4.33543         51.5439         5.03251 
        4.35116         51.1085          4.9889 
        4.36688         50.7799         4.94582 
        4.38255         50.2305         4.90341 
        4.39825         49.8192         4.86142 
        4.41398         49.2863         4.81985 
         4.4297           48.96         4.77881 
        4.44541         48.6139         4.73826 
        4.46111         48.0417         4.69822 
        4.47683         47.7288         4.65862 
        4.49251         47.3488         4.61956 
        4.50819          47.085         4.58097 
         4.5239         46.5054         4.54277 
        4.53962         46.1933         4.50496 
        4.55535          45.845         4.46757 
        4.57106         45.4595         4.43066 
        4.58678          45.116         4.39417 
         4.6025          44.553         4.35809 
        4.61821         44.2288         4.32242 
        4.63391         43.8778          4.2872 
         4.6496         43.4836          4.2524 
        4.66532         43.2533         4.21793 
        4.68103         42.8999         4.18387 
        4.69673         42.3938         4.15022 
        4.71241         42.0952         4.11697 
        4.72811         41.7615         4.08405 
        4.74384         41.3406         4.05144 
        4.75955         40.9789         4.01925 
        4.77525         40.7071         3.98742 
        4.79096         40.3889         3.95591 
        4.80669         40.1205         3.92473 
         4.8224         39.7634         3.89392 
        4.83809         39.4075         3.86348 
        4.85379         39.2273         3.83335 
         4.8695         38.7408         3.80353 
        4.88521         38.4477         3.77404 
        4.90093         38.2367         3.74486 
        4.91663         37.8157         3.71601 
        4.93234         37.6135         3.68745 
        4.94807         37.2084         3.65917 
        4.96377         36.9042         3.63125 
        4.97943         36.7121         3.60367 
        4.99514         36.3891         3.57632 
        5.01086         35.9903         3.54924 
        5.02654         35.7601          3.5225 
        5.04227         35.5385         3.49597 
          5.058         35.2331          3.4697 
        5.07371         35.0212         3.44376 
        5.08942         34.6976         3.41808 
        5.10513         34.4023         3.39267 
        5.12084         34.1752          3.3675 
        5.13656         33.8737          3.3426 
        5.15225         33.6481           3.318 
        5.16796         33.3322          3.2936 
        5.18369         33.1635         3.26944 
         5.1994         32.8528         3.24556 
        5.21509         32.6667         3.22195 
        5.23079         32.3032         3.19854 
        5.24649         32.0955         3.17539 
        5.26217         31.8023         3.15249 
        5.27788          31.662         3.12979 
        5.29359           31.33          3.1073 
        5.30933         31.1457         3.08501 
        5.32504         30.8115         3.06298 
        5.34073         30.6576         3.04119 
        5.35646         30.4294         3.01957 
        5.37218         30.1848         2.99816 
        5.38789         29.9438         2.97699 
        5.40357         29.7116         2.95606 
        5.41929         29.5026         2.93528 
        5.43502         29.2507          2.9147 
         5.4507          29.057         2.89437 
        5.46639         28.7987         2.87424 
        5.48212         28.5958         2.85425 
        5.49786         28.4323         2.83443 
        5.51353         28.1873          2.8149 
        5.52921         27.9556         2.79554 
        5.54495         27.7267         2.77631 
        5.56066         27.5109         2.75727 
        5.57637         27.3564         2.73843 
        5.59207          27.192         2.71977 
        5.60778         26.9503         2.70129 
        5.62346         26.7641         2.68301 
        5.63916         26.5703         2.66488 
        5.65487         26.3799         2.64691 
         5.6706         26.1318         2.62909 
        5.68633         25.9543         2.61142 
        5.70203         25.7776         2.59396 
        5.71773         25.6158         2.57666 
        5.73344         25.3966         2.55952 
        5.74916         25.2109         2.54251 
        5.76486         25.0654         2.52569 
        5.78054         24.8657         2.50904 
        5.79626         24.6789          2.4925 
          5.812         24.5156          2.4761 
         5.8277         24.3468         2.45989 
        5.84339         24.1528         2.44383 
        5.85911         23.9829         2.42789 
        5.87484         23.7668         2.41209 
        5.89053         23.6376         2.39646 
        5.90623         23.4576         2.38097 
        5.92195         23.3123         2.36559 
        5.93767         23.1396         2.35036 
        5.95336          23.012         2.33528 
        5.96905          22.806         2.32035 
        5.98476         22.6198         2.30553 
        6.00048         22.5154         2.29083 
        6.01617         22.3437         2.27629 
        6.03185         22.2027         2.26188 
        6.04756         22.0324         2.24758 
        6.06331          21.864         2.23336 
        6.07903         21.7141          2.2193 
        6.09473         21.5822         2.20538 
        6.11044         21.3951         2.19156 
        6.12616         21.2872         2.17787 
        6.14186         21.1154         2.16431 
        6.15755         20.9553         2.15086 
        6.17326         20.7921         2.13753 
        6.18898         20.6355          2.1243 
        6.20467         20.5678          2.1112 
        6.22036         20.3485         2.09822 
         6.2361         20.2593         2.08532 
         6.2518         20.0879         2.07254 
        6.26748         19.9666         2.05991 
        6.28319         19.8286         2.04734 
        6.29893         19.6865         2.03487 
        6.31463         19.5207         2.02253 
        6.33033         19.4422         2.01029 
        6.34604         19.3183         1.99815 
        6.36177         19.1407          1.9861 
        6.37747         19.0746         1.97417 
