# k  (h/Mpc)    Pcb(k)  (Mpc/h)^3    Pcb_linear(k) (Mpc/h)^3   ShotnoiseSubtracted = true
      0.0200456         23652.4         24143.5 
      0.0350414         18993.8         18489.7 
      0.0492313         13782.6         14255.1 
      0.0637834           11462         12308.9 
      0.0800726         8946.01         9686.46 
       0.096163         7302.35         7166.18 
       0.111083         6212.14          6060.1 
       0.126058         5171.64         5443.98 
       0.142273         4479.88         4464.69 
       0.158546         3721.87         3593.64 
        0.17375         3424.04         3198.44 
       0.188953         3276.27         2907.49 
       0.204907         2818.48         2495.89 
       0.220756          2565.2         2138.13 
        0.23588          2315.4         1939.31 
         0.2514         2116.99         1774.17 
       0.267535         2033.05         1572.62 
       0.283568         1833.89         1396.25 
       0.299022         1757.36         1278.57 
       0.314451         1827.61         1178.42 
       0.330372          1654.5         1070.21 
       0.346141         1524.75         974.128 
       0.361624         1460.79         900.104 
       0.377134          1408.7          835.25 
       0.392932         1342.65         770.904 
       0.408854         1291.49         711.777 
       0.424564         1267.87         662.404 
       0.440253          1193.2         618.531 
       0.455999         1141.97         577.012 
       0.471626         1149.72         539.217 
        0.48727         1096.58         505.592 
       0.502856         1064.54         475.286 
       0.518488         1024.27         447.022 
       0.534347         987.848         420.525 
       0.550082         948.475         396.627 
       0.565732         929.374         374.836 
       0.581496         907.407         354.468 
       0.597222         896.206         335.605 
       0.612804         872.852         318.335 
       0.628434         839.145         302.316 
       0.644267         816.775         287.229 
       0.660051         806.452          273.22 
       0.675724         794.134         260.239 
       0.691403         762.479         248.106 
       0.707174         744.365         236.691 
       0.722871         735.972         226.053 
        0.73838         718.049         216.195 
       0.754018         707.215         206.861 
       0.769845         691.523         197.987 
        0.78569         674.656         189.635 
       0.801365         655.451         181.858 
       0.817031         646.248         174.531 
       0.832809         632.408          167.57 
       0.848511         619.596         161.026 
       0.864097         613.615         154.885 
       0.879701         612.348         149.063 
       0.895507          587.46         143.478 
       0.911279         583.242         138.196 
        0.92691         570.166         133.229 
       0.942635         562.264         128.484 
       0.958396          550.08         123.963 
       0.974128         539.566         119.673 
       0.989692         525.287         115.631 
        1.00528           520.1         111.774 
        1.02113         508.053         108.036 
        1.03692         499.496         104.486 
        1.05264         493.232         101.114 
        1.06832          482.27         97.9001 
        1.08405         477.475         94.8196 
        1.09979         466.552         91.8724 
        1.11537          456.14         89.0821 
        1.13105         449.029         86.3932 
        1.14679         440.245          83.807 
        1.16256          437.29         81.3236 
        1.17828          428.51          78.951 
        1.19395         420.865         76.6828 
         1.2097         413.645         74.4938 
        1.22537         406.404         72.4025 
          1.241         398.904         70.3993 
        1.25666         393.333         68.4682 
        1.27241         388.855         66.6018 
        1.28819         378.928         64.8031 
        1.30392         376.346         63.0773 
        1.31957         368.229         61.4232 
        1.33529         364.048         59.8233 
        1.35108         361.856         58.2751 
        1.36674         351.539         56.7938 
         1.3824         344.527         55.3662 
        1.39811         341.579         53.9838 
        1.41389         335.539         52.6442 
        1.42964         329.959          51.353 
        1.44531         323.665         50.1123 
        1.46101         315.646         48.9106 
        1.47667         315.575         47.7526 
        1.49229         309.937         46.6358 
        1.50793         303.392         45.5541 
        1.52367         297.147         44.5003 
        1.53953          293.67         43.4734 
        1.55526         288.887         42.4876 
        1.57092         283.917          41.537 
        1.58662         279.444         40.6137 
        1.60235         275.475         39.7172 
        1.61809         271.515         38.8477 
        1.63369         267.731         38.0125 
        1.64941         263.489         37.1962 
        1.66519         259.044         36.4014 
        1.68085         254.024         35.6358 
        1.69652         250.578         34.8924 
        1.71228         246.454         34.1663 
        1.72806         243.302         33.4607 
        1.74368         240.107         32.7824 
        1.75933         236.906         32.1218 
        1.77505         232.335         31.4767 
        1.79081         229.444         30.8484 
         1.8065         227.036         30.2403 
        1.82218         221.742         29.6493 
        1.83797         219.211         29.0704 
        1.85367         214.948         28.5103 
        1.86928         211.235         27.9687 
        1.88497         208.754         27.4383 
        1.90073         207.319           26.92 
        1.91647         203.475         26.4158 
        1.93218         200.029         25.9257 
        1.94787         195.777          25.449 
        1.96363         194.602         24.9826 
        1.97935         191.258          24.529 
        1.99499         188.934         24.0894 
        2.01064         184.255         23.6601 
         2.0264         183.156         23.2388 
        2.04216         180.306         22.8281 
        2.05781         177.994           22.43 
        2.07353         176.952         22.0402 
        2.08928         174.303          21.659 
        2.10499         170.974         21.2879 
        2.12065         168.577         20.9268 
        2.13633         165.957         20.5738 
        2.15211         164.209         20.2269 
        2.16785         161.511          19.889 
        2.18349         159.657         19.5611 
        2.19916         157.813           19.24 
        2.21489         155.458         18.9252 
        2.23063         153.631         18.6173 
         2.2463         151.533         18.3178 
        2.26194         148.936         18.0257 
        2.27765         146.692         17.7385 
        2.29341         144.944          17.457 
        2.30914         143.184         17.1822 
        2.32486         141.679         16.9136 
        2.34061           139.1         16.6504 
        2.35635         137.093         16.3931 
        2.37203         136.039         16.1422 
        2.38768         134.542         15.8972 
        2.40339         131.956         15.6565 
        2.41914         130.465         15.4202 
        2.43483         129.137         15.1897 
         2.4505         127.367         14.9644 
        2.46622         125.474          14.743 
        2.48195         124.321         14.5261 
        2.49759         121.937         14.3147 
        2.51328         120.936         14.1071 
        2.52906          119.56         13.9024 
        2.54479         117.764         13.7026 
        2.56049         116.499         13.5071 
        2.57618         115.098         13.3156 
        2.59189         114.048         13.1277 
        2.60758         112.584         12.9437 
        2.62325         110.835         12.7635 
        2.63898         109.066         12.5862 
        2.65468          108.22         12.4126 
        2.67044         107.022         12.2417 
        2.68618         105.088         12.0744 
        2.70184         104.427         11.9109 
        2.71755         102.392         11.7501 
        2.73329         101.299         11.5921 
        2.74897         100.304         11.4375 
        2.76462         99.0813         11.2862 
        2.78034         97.9876         11.1369 
        2.79607         96.9425         10.9903 
        2.81179         95.5951         10.8465 
        2.82749         94.5035         10.7055 
        2.84321         93.4015         10.5669 
        2.85893         92.1887         10.4308 
        2.87462         91.0553         10.2973 
        2.89033         90.0862         10.1662 
        2.90605         88.9726         10.0372 
        2.92176         87.7669         9.91053 
        2.93747         87.0984         9.78616 
        2.95318         86.0886         9.66393 
        2.96891         85.1491         9.54377 
        2.98456         83.8793         9.42621 
        3.00023         83.1441         9.31048 
        3.01596         82.1423         9.19637 
        3.03164         81.4955         9.08452 
        3.04738         80.5178         8.97423 
         3.0631          79.492         8.86584 
        3.07883         78.5931         8.75926 
        3.09456         77.6157         8.65447 
        3.11026         76.9041         8.55158 
        3.12596         75.7805          8.4504 
        3.14163         75.2434         8.35111 
        3.15734         74.1854         8.25321 
        3.17308         73.5034         8.15666 
        3.18879         72.9681         8.06195 
        3.20447         71.9663         7.96889 
         3.2202         70.9332         7.87704 
         3.2359         70.7072         7.78682 
        3.25157         69.9515         7.69825 
        3.26729           68.73          7.6108 
        3.28304         68.3389         7.52457 
        3.29877         67.5867          7.4398 
        3.31446         67.0663         7.35654 
        3.33014         66.3256         7.27464 
        3.34585         65.5036         7.19389 
        3.36158         64.7846         7.11425 
        3.37727          64.108         7.03609 
        3.39294         63.3846         6.95919 
        3.40867         62.6807         6.88318 
        3.42439         61.9024         6.80836 
        3.44008         61.3566         6.73482 
        3.45578          61.087         6.66232 
        3.47153         60.1992         6.59074 
        3.48724         59.6531         6.52036 
        3.50292         59.2492         6.45118 
        3.51859         58.4477         6.38305 
        3.53431         57.8222         6.31571 
        3.55007         57.3678         6.24919 
        3.56577         56.9022          6.1839 
        3.58146         56.0736         6.11959 
        3.59719         55.6767         6.05605 
        3.61292         55.0378         5.99346 
        3.62859         54.4642         5.93199 
        3.64429         54.1304         5.87128 
        3.66003         53.4555         5.81125 
        3.67578         52.9753         5.75209 
        3.69146          52.342         5.69398 
        3.70712         51.7754          5.6368 
        3.72284         51.5151          5.5802 
        3.73853         50.8773         5.52449 
        3.75422         50.4123         5.46952 
        3.76993         49.8352         5.41527 
        3.78564         49.4444         5.36179 
        3.80137         48.8492         5.30895 
        3.81707         48.4755         5.25694 
        3.83279         48.0398          5.2056 
        3.84853         47.5979         5.15487 
        3.86424         47.1874         5.10492 
        3.87992         46.6901         5.05572 
        3.89561         46.3306         5.00717 
        3.91134         45.7875         4.95918 
        3.92704         45.3442         4.91187 
        3.94273          44.936         4.86524 
        3.95845         44.5223         4.81913 
        3.97418         44.0845         4.77362 
        3.98988         43.8187         4.72877 
        4.00554         43.1751         4.68462 
        4.02125           42.83         4.64092 
        4.03698         42.4571         4.59772 
        4.05268         42.0394         4.55517 
        4.06839         41.7301         4.51314 
         4.0841         41.3848         4.47165 
        4.09983           40.94         4.43064 
        4.11555         40.5831         4.39017 
        4.13124         40.1826         4.35031 
        4.14693         40.0701         4.31093 
        4.16266         39.4999         4.27195 
        4.17839          39.068         4.23348 
        4.19408         38.7393         4.19558 
        4.20977         38.4341         4.15813 
        4.22551         37.9829         4.12106 
        4.24123         37.7923         4.08448 
        4.25691         37.3341         4.04845 
        4.27259         37.1477         4.01285 
        4.28831         36.7543         3.97761 
        4.30404         36.4915         3.94277 
        4.31974          36.176         3.90843 
        4.33543          35.806         3.87452 
        4.35116         35.4336         3.84094 
        4.36688         35.2636         3.80777 
        4.38255         34.9408         3.77513 
        4.39825         34.5065          3.7428 
        4.41398         34.2968         3.71079 
         4.4297         33.9479         3.67919 
        4.44541         33.6593         3.64797 
        4.46111         33.4084         3.61715 
        4.47683         33.1904         3.58666 
        4.49251         32.8721         3.55659 
        4.50819         32.5579         3.52688 
         4.5239         32.2608         3.49746 
        4.53962          31.946         3.46836 
        4.55535         31.7611         3.43957 
        4.57106          31.503         3.41116 
        4.58678          31.198         3.38306 
         4.6025          30.943         3.35528 
        4.61821          30.626         3.32782 
        4.63391         30.3168         3.30071 
         4.6496         30.0817         3.27391 
        4.66532         29.8834         3.24738 
        4.68103         29.6318         3.22115 
        4.69673         29.3274         3.19524 
        4.71241         29.2179         3.16965 
        4.72811         28.9492          3.1443 
        4.74384         28.6567         3.11919 
        4.75955         28.4102         3.09441 
        4.77525          28.177         3.06991 
        4.79096         27.9934         3.04565 
        4.80669         27.7181         3.02164 
         4.8224         27.4617         2.99792 
        4.83809          27.294         2.97449 
        4.85379         27.0047         2.95129 
         4.8695         26.8495         2.92833 
        4.88521         26.6071         2.90562 
        4.90093         26.3946         2.88316 
        4.91663         26.1747         2.86095 
        4.93234         26.0451         2.83896 
        4.94807         25.7929         2.81719 
        4.96377         25.5414         2.79569 
        4.97943         25.3581         2.77446 
        4.99514         25.1382          2.7534 
        5.01086         24.9635         2.73255 
        5.02654         24.7973         2.71197 
        5.04227         24.5691         2.69154 
          5.058         24.3951         2.67132 
        5.07371         24.2077         2.65134 
        5.08942         24.0129         2.63158 
        5.10513         23.8129         2.61201 
        5.12084         23.6811         2.59263 
        5.13656         23.4434         2.57346 
        5.15225         23.2384         2.55452 
        5.16796         23.0881         2.53574 
        5.18369         22.8655         2.51713 
         5.1994         22.7259         2.49875 
        5.21509         22.5089         2.48057 
        5.23079         22.3832         2.46255 
        5.24649         22.1574         2.44473 
        5.26217         22.0408         2.42709 
        5.27788         21.8217         2.40961 
        5.29359         21.6991          2.3923 
        5.30933         21.4891         2.37514 
        5.32504         21.4094         2.35818 
        5.34073         21.1955          2.3414 
        5.35646         21.0306         2.32476 
        5.37218         20.8407         2.30827 
        5.38789         20.7198         2.29198 
        5.40357         20.5027         2.27586 
        5.41929         20.4162         2.25986 
        5.43502         20.2342         2.24402 
         5.4507         20.1055         2.22837 
        5.46639         19.9357         2.21287 
        5.48212         19.8206         2.19748 
        5.49786         19.6164         2.18222 
        5.51353         19.4683         2.16719 
        5.52921         19.3257         2.15228 
        5.54495         19.1784         2.13747 
        5.56066         19.0855         2.12282 
        5.57637         18.9069         2.10831 
        5.59207         18.7933         2.09395 
        5.60778         18.6159         2.07972 
        5.62346         18.5254         2.06564 
        5.63916         18.3266         2.05168 
        5.65487          18.246         2.03785 
         5.6706         18.0769         2.02413 
        5.68633         17.9684         2.01053 
        5.70203          17.807         1.99708 
        5.71773         17.6899         1.98377 
        5.73344         17.5716         1.97057 
        5.74916         17.4592         1.95747 
        5.76486          17.324         1.94452 
        5.78054         17.1764         1.93171 
        5.79626         17.0746         1.91897 
          5.812          16.946         1.90634 
         5.8277         16.8222         1.89386 
        5.84339          16.691          1.8815 
        5.85911         16.5751         1.86922 
        5.87484         16.4589         1.85706 
        5.89053         16.3012         1.84503 
        5.90623         16.2348          1.8331 
        5.92195         16.0959         1.82126 
        5.93767         15.9656         1.80953 
        5.95336         15.9067         1.79793 
        5.96905         15.7695         1.78643 
        5.98476         15.6686         1.77502 
        6.00048          15.556         1.76371 
        6.01617         15.3998         1.75251 
        6.03185         15.3206         1.74142 
        6.04756         15.2127          1.7304 
        6.06331         15.0957         1.71946 
        6.07903         15.0305         1.70863 
        6.09473          14.911         1.69791 
        6.11044         14.7987         1.68728 
        6.12616         14.7245         1.67674 
        6.14186         14.6028         1.66629 
        6.15755         14.5234         1.65594 
        6.17326         14.4262         1.64568 
        6.18898         14.3003         1.63549 
        6.20467          14.212         1.62541 
        6.22036         14.0896         1.61542 
         6.2361         14.0169         1.60548 
         6.2518         13.9535         1.59565 
        6.26748         13.8014         1.58592 
        6.28319         13.7127         1.57624 
        6.29893         13.6048         1.56664 
        6.31463         13.5288         1.55714 
        6.33033          13.428         1.54772 
        6.34604         13.3686         1.53837 
        6.36177         13.2567         1.52909 
        6.37747         13.1655         1.51991 
