# k  (h/Mpc)    Pcb(k)  (Mpc/h)^3    Pcb_linear(k) (Mpc/h)^3   ShotnoiseSubtracted = true
      0.0200456         4562.07         4627.97 
      0.0350414         3622.94         3561.59 
      0.0492313          2683.1         2690.98 
      0.0637834         2233.08         2287.98 
      0.0800726         1790.54         1842.31 
       0.096163         1392.41         1364.25 
       0.111083         1149.28         1111.67 
       0.126058         981.469         994.648 
       0.142273         837.644         844.335 
       0.158546         688.993         674.675 
        0.17375         603.042         578.182 
       0.188953         550.322         527.003 
       0.204907          469.33         465.868 
       0.220756         418.908         396.672 
        0.23588         371.775         349.429 
         0.2514         336.797         319.644 
       0.267535         319.128         289.211 
       0.283568         279.793         255.905 
       0.299022         261.986         229.979 
       0.314451         253.716          211.52 
       0.330372         222.873         194.311 
       0.346141         206.122         176.728 
       0.361624         193.605         161.533 
       0.377134         177.437         149.412 
       0.392932          173.46         138.598 
       0.408854         162.284         128.016 
       0.424564         155.253         118.427 
       0.440253         141.287         110.254 
       0.455999         131.849         103.014 
       0.471626         126.936         96.2625 
        0.48727         123.457          89.993 
       0.502856         113.797         84.3984 
       0.518488         110.291         79.3596 
       0.534347         104.213         74.6342 
       0.550082         101.129         70.2715 
       0.565732          98.426         66.2966 
       0.581496         91.4245         62.6391 
       0.597222          88.424         59.2658 
       0.612804         85.8196         56.1541 
       0.628434         83.7778         53.2553 
       0.644267         79.4704          50.542 
       0.660051         76.5514          48.031 
       0.675724         74.4197         45.7068 
       0.691403         73.1978         43.5358 
       0.707174         70.8762         41.4951 
       0.722871         68.8342         39.5946 
        0.73838          66.131         37.8346 
       0.754018         62.8844         36.1694 
       0.769845         62.1731         34.5873 
        0.78569         59.9812         33.0994 
       0.801365         58.5907         31.7147 
       0.817031          56.432         30.4113 
       0.832809         55.6068         29.1739 
       0.848511         53.9578         28.0118 
       0.864097         52.9319         26.9219 
       0.879701          51.925         25.8898 
       0.895507          50.133         24.9003 
       0.911279         48.9936         23.9652 
        0.92691          47.828         23.0866 
       0.942635         46.9766         22.2478 
       0.958396         46.3842         21.4494 
       0.974128         45.1342         20.6922 
       0.989692         43.7905         19.9795 
        1.00528         43.2565         19.2997 
        1.02113          42.263         18.6413 
        1.03692         41.6629         18.0165 
        1.05264         40.7503         17.4235 
        1.06832          40.016         16.8585 
        1.08405         38.9826         16.3174 
        1.09979         38.7796            15.8 
        1.11537         37.6051         15.3105 
        1.13105         36.8883          14.839 
        1.14679         36.1888         14.3858 
        1.16256          35.715          13.951 
        1.17828         35.2077         13.5357 
        1.19395         34.5843          13.139 
         1.2097         33.9478         12.7564 
        1.22537         33.3923          12.391 
          1.241         32.8186         12.0412 
        1.25666         32.4341         11.7042 
        1.27241          31.942         11.3787 
        1.28819         30.7881         11.0652 
        1.30392         31.1804         10.7646 
        1.31957         30.4179         10.4766 
        1.33529         29.8073         10.1982 
        1.35108         29.5637         9.92889 
        1.36674         29.1634         9.67139 
         1.3824         28.6041         9.42336 
        1.39811         27.9802         9.18331 
        1.41389         27.7481          8.9508 
        1.42964         27.4525         8.72682 
        1.44531         26.9761          8.5117 
        1.46101         26.6622         8.30345 
        1.47667          26.359         8.10287 
        1.49229         25.8465         7.90952 
        1.50793         25.5854         7.72234 
        1.52367         25.2495         7.54008 
        1.53953         24.9463         7.36254 
        1.55526         24.5116          7.1922 
        1.57092         24.4319         7.02801 
        1.58662         24.1097         6.86862 
        1.60235         23.6457         6.71391 
        1.61809         23.5003         6.56395 
        1.63369         23.1843         6.41994 
        1.64941         22.9436         6.27928 
        1.66519         22.4733         6.14236 
        1.68085         22.1312         6.01055 
        1.69652         22.1777          5.8826 
        1.71228         21.7259          5.7577 
        1.72806          21.434         5.63636 
        1.74368         21.2588         5.51977 
        1.75933         21.0311         5.40628 
        1.77505         20.8029         5.29549 
        1.79081         20.5688         5.18764 
         1.8065         20.3502         5.08328 
        1.82218          20.156         4.98192 
        1.83797         20.0231         4.88265 
        1.85367         19.8732         4.78667 
        1.86928         19.6009         4.69386 
        1.88497         19.3757         4.60304 
        1.90073         19.1108         4.51431 
        1.91647         18.7671         4.42802 
        1.93218         18.8023          4.3442 
        1.94787         18.4416         4.26269 
        1.96363         18.4107         4.18296 
        1.97935         18.1185         4.10547 
        1.99499          17.901         4.03039 
        2.01064         17.7908          3.9571 
         2.0264         17.5021         3.88519 
        2.04216         17.4905         3.81512 
        2.05781         17.2909         3.74724 
        2.07353         17.0912         3.68078 
        2.08928         16.8769          3.6158 
        2.10499         16.6668         3.55259 
        2.12065         16.5667         3.49109 
        2.13633         16.4217           3.431 
        2.15211          16.232         3.37196 
        2.16785         16.1129         3.31448 
        2.18349         15.8944         3.25872 
        2.19916         15.7357         3.20413 
        2.21489         15.6107         3.15063 
        2.23063         15.5165         3.09832 
         2.2463          15.284         3.04745 
        2.26194         15.1685         2.99786 
        2.27765         14.9659         2.94912 
        2.29341         14.8142         2.90136 
        2.30914         14.7205         2.85476 
        2.32486         14.6135         2.80921 
        2.34061         14.4997          2.7646 
        2.35635         14.3351           2.721 
        2.37203         14.1598         2.67851 
        2.38768          13.995         2.63701 
        2.40339          13.949         2.59626 
        2.41914          13.762         2.55628 
        2.43483         13.6429         2.51729 
         2.4505         13.5468         2.47918 
        2.46622         13.4304         2.44174 
        2.48195         13.3605         2.40508 
        2.49759         13.1358         2.36937 
        2.51328         13.1256         2.33431 
        2.52906         12.9557         2.29973 
        2.54479         12.8053         2.26599 
        2.56049         12.6934           2.233 
        2.57618         12.6212         2.20071 
        2.59189         12.5818           2.169 
        2.60758         12.3779         2.13798 
        2.62325         12.2948         2.10761 
        2.63898         12.2238         2.07772 
        2.65468         12.0692         2.04849 
        2.67044         11.9963         2.01969 
        2.68618          11.881         1.99152 
        2.70184         11.7867         1.96401 
        2.71755         11.6949         1.93695 
        2.73329          11.532         1.91036 
        2.74897         11.4858         1.88437 
        2.76462         11.4114         1.85892 
        2.78034         11.2764         1.83383 
        2.79607         11.2067         1.80919 
        2.81179         11.0886         1.78504 
        2.82749         11.0124         1.76135 
        2.84321         10.9301         1.73807 
        2.85893         10.8578         1.71523 
        2.87462         10.7683         1.69283 
        2.89033         10.6531         1.67082 
        2.90605         10.5751         1.64919 
        2.92176         10.4714         1.62795 
        2.93747         10.3986          1.6071 
        2.95318         10.3083         1.58662 
        2.96891         10.2367         1.56648 
        2.98456         10.1549         1.54679 
        3.00023         10.0727         1.52741 
        3.01596         9.93632          1.5083 
        3.03164         9.93501         1.48958 
        3.04738         9.81255         1.47113 
         3.0631          9.7034         1.45299 
        3.07883         9.66802         1.43516 
        3.09456         9.58687         1.41764 
        3.11026         9.52472         1.40044 
        3.12596         9.42265         1.38353 
        3.14163         9.39231         1.36694 
        3.15734         9.26946         1.35058 
        3.17308         9.22207         1.33446 
        3.18879         9.14318         1.31864 
        3.20447         9.05199         1.30311 
         3.2202         9.00265         1.28778 
         3.2359         8.91676         1.27273 
        3.25157         8.88368         1.25795 
        3.26729         8.79403         1.24337 
        3.28304         8.72537         1.22899 
        3.29877         8.65545         1.21486 
        3.31446         8.61471         1.20098 
        3.33014         8.52778         1.18734 
        3.34585         8.48602         1.17389 
        3.36158         8.41166         1.16062 
        3.37727         8.34811         1.14761 
        3.39294         8.25888         1.13481 
        3.40867         8.23435         1.12216 
        3.42439           8.128         1.10971 
        3.44008         8.06751         1.09747 
        3.45578         8.02217         1.08542 
        3.47153         7.94455         1.07352 
        3.48724         7.90548         1.06181 
        3.50292         7.83192         1.05032 
        3.51859          7.7928           1.039 
        3.53431         7.72288         1.02781 
        3.55007         7.66517         1.01676 
        3.56577         7.58096         1.00592 
        3.58146         7.57069        0.995241 
        3.59719          7.4959        0.984695 
        3.61292         7.43157        0.974307 
        3.62859         7.38026        0.964109 
        3.64429          7.3377        0.954038 
        3.66003         7.27897        0.944082 
        3.67578         7.22241        0.934273 
        3.69146         7.17344        0.924641 
        3.70712         7.12375        0.915163 
        3.72284         7.04922        0.905784 
        3.73853          7.0165        0.896554 
        3.75422         6.95355         0.88745 
        3.76993         6.90667        0.878466 
        3.78564         6.87066        0.869611 
        3.80137         6.82952        0.860864 
        3.81707         6.74153        0.852257 
        3.83279         6.72105        0.843762 
        3.84853         6.65748        0.835369 
        3.86424         6.58991        0.827108 
        3.87992         6.57145        0.818972 
        3.89561         6.52941        0.810946 
        3.91134         6.47091        0.803012 
        3.92704         6.42146        0.795194 
        3.94273          6.3691        0.787488 
        3.95845          6.3358        0.779872 
        3.97418          6.2807        0.772355 
        3.98988         6.23444        0.764948 
        4.00554          6.1997        0.757659 
        4.02125         6.14257        0.750446 
        4.03698         6.11348        0.743315 
        4.05268         6.04956        0.736295 
        4.06839         6.00865         0.72936 
         4.0841          5.9667        0.722518 
        4.09983         5.92151        0.715754 
        4.11555         5.86194         0.70908 
        4.13124         5.83573        0.702511 
        4.14693         5.81195         0.69602 
        4.16266         5.76008        0.689596 
        4.17839         5.72828        0.683258 
        4.19408         5.68252        0.677015 
        4.20977         5.63523        0.670847 
        4.22551         5.59646        0.664742 
        4.24123         5.55109         0.65872 
        4.25691         5.51824         0.65279 
        4.27259         5.47543        0.646931 
        4.28831         5.42192        0.641133 
        4.30404         5.38565        0.635401 
        4.31974          5.3478        0.629753 
        4.33543         5.31412        0.624176 
        4.35116         5.28602        0.618654 
        4.36688         5.25011        0.613202 
        4.38255         5.20842        0.607836 
        4.39825         5.17811        0.602523 
        4.41398         5.14921        0.597264 
         4.4297         5.11076        0.592073 
        4.44541         5.07401        0.586946 
        4.46111         5.03895        0.581884 
        4.47683         4.98555        0.576878 
        4.49251         4.96766        0.571942 
        4.50819         4.93887        0.567065 
         4.5239         4.90565        0.562238 
        4.53962         4.85539        0.557462 
        4.55535         4.83284         0.55274 
        4.57106          4.8019         0.54808 
        4.58678         4.76143        0.543472 
         4.6025         4.74375        0.538917 
        4.61821         4.69428        0.534416 
        4.63391         4.66071        0.529972 
         4.6496         4.63254         0.52558 
        4.66532         4.59671        0.521232 
        4.68103         4.57863        0.516936 
        4.69673         4.54929        0.512692 
        4.71241         4.50724        0.508501 
        4.72811         4.49309         0.50435 
        4.74384         4.45682         0.50024 
        4.75955         4.42289        0.496183 
        4.77525         4.38994        0.492173 
        4.79096          4.3731        0.488203 
        4.80669         4.33897        0.484276 
         4.8224         4.30139        0.480396 
        4.83809         4.28698        0.476563 
        4.85379         4.24214         0.47277 
         4.8695          4.2212        0.469015 
        4.88521         4.20455        0.465304 
        4.90093         4.17371        0.461632 
        4.91663         4.14534        0.458003 
        4.93234         4.11545         0.45441 
        4.94807         4.09614        0.450853 
        4.96377         4.06248        0.447341 
        4.97943         4.03576        0.443874 
        4.99514         4.01394        0.440436 
        5.01086         3.98466        0.437031 
        5.02654         3.95546        0.433672 
        5.04227         3.93014        0.430338 
          5.058         3.91877        0.427037 
        5.07371         3.88287        0.423779 
        5.08942         3.85386        0.420554 
        5.10513         3.83405        0.417362 
        5.12084         3.80736        0.414202 
        5.13656         3.78495        0.411076 
        5.15225         3.76813        0.407988 
        5.16796         3.74224        0.404926 
        5.18369         3.71032        0.401894 
         5.1994         3.68659        0.398898 
        5.21509         3.66149        0.395936 
        5.23079         3.64067           0.393 
        5.24649         3.62362        0.390097 
        5.26217         3.59272        0.387225 
        5.27788         3.57498        0.384379 
        5.29359         3.55671        0.381561 
        5.30933         3.53712        0.378767 
        5.32504         3.51374        0.376006 
        5.34073         3.49408        0.373276 
        5.35646         3.46539        0.370567 
        5.37218         3.45019        0.367885 
        5.38789          3.4303        0.365234 
        5.40357         3.40505        0.362613 
        5.41929         3.38692        0.360012 
        5.43502         3.36736        0.357436 
         5.4507           3.335        0.354891 
        5.46639          3.3208        0.352372 
        5.48212         3.30051        0.349871 
        5.49786         3.28728        0.347391 
        5.51353         3.26324        0.344948 
        5.52921         3.24056        0.342526 
        5.54495         3.22717        0.340121 
        5.56066         3.20425        0.337741 
        5.57637         3.18329        0.335385 
        5.59207         3.16197        0.333053 
        5.60778         3.14807        0.330743 
        5.62346         3.12766        0.328458 
        5.63916          3.1162        0.326192 
        5.65487         3.08691        0.323947 
         5.6706         3.07808        0.321721 
        5.68633         3.05698        0.319515 
        5.70203         3.04103        0.317334 
        5.71773         3.02263        0.315175 
        5.73344         3.00386        0.313034 
        5.74916         2.98671        0.310911 
        5.76486         2.97014        0.308811 
        5.78054         2.94961        0.306734 
        5.79626         2.93608         0.30467 
          5.812         2.91252        0.302624 
         5.8277         2.89301        0.300602 
        5.84339         2.87942        0.298599 
        5.85911         2.86917         0.29661 
        5.87484         2.85224         0.29464 
        5.89053         2.83472        0.292692 
        5.90623         2.81555        0.290761 
        5.92195         2.80542        0.288844 
        5.93767          2.7882        0.286945 
        5.95336         2.77064        0.285067 
        5.96905         2.75473        0.283206 
        5.98476         2.73326         0.28136 
        6.00048         2.72624        0.279529 
        6.01617         2.70279        0.277718 
        6.03185         2.69578        0.275924 
        6.04756         2.67764        0.274143 
        6.06331         2.66257        0.272373 
        6.07903         2.64277        0.270623 
        6.09473          2.6316         0.26889 
        6.11044         2.62088        0.267171 
        6.12616         2.60488        0.265467 
        6.14186         2.58966         0.26378 
        6.15755           2.583        0.262107 
        6.17326         2.56444        0.260448 
        6.18898         2.54628        0.258803 
        6.20467         2.53098        0.257175 
        6.22036         2.52155        0.255561 
         6.2361         2.51068        0.253957 
         6.2518         2.49864        0.252369 
        6.26748         2.47849        0.250798 
        6.28319         2.46614        0.249237 
        6.29893         2.45451        0.247687 
        6.31463         2.44233        0.246154 
        6.33033         2.43197        0.244634 
        6.34604         2.41349        0.243126 
        6.36177         2.40586        0.241629 
        6.37747         2.39041        0.240148 
