# k  (h/Mpc)    Pcb(k)  (Mpc/h)^3    Pcb_linear(k) (Mpc/h)^3   ShotnoiseSubtracted = true
      0.0200456         20218.4           20745 
      0.0350414         15188.8         15964.9 
      0.0492313         11740.3         12062.4 
      0.0637834         10347.6           10256 
      0.0800726         8262.52         8258.19 
       0.096163         5826.95         6115.31 
       0.111083         4750.33         4983.08 
       0.126058         4412.64         4458.54 
       0.142273         3817.94         3784.76 
       0.158546         3374.63         3024.25 
        0.17375          2728.1         2591.72 
       0.188953         2676.82          2362.3 
       0.204907         2521.43         2088.27 
       0.220756         2198.74         1778.09 
        0.23588         1967.83         1566.32 
         0.2514         1722.86         1432.81 
       0.267535         1732.18          1296.4 
       0.283568          1574.4          1147.1 
       0.299022         1490.63         1030.89 
       0.314451         1424.48         948.145 
       0.330372         1309.68         871.005 
       0.346141         1261.89         792.188 
       0.361624         1212.86         724.075 
       0.377134         1130.37         669.743 
       0.392932         1090.53         621.272 
       0.408854         1069.07         573.836 
       0.424564         991.617         530.852 
       0.440253         972.485         494.217 
       0.455999          944.29         461.762 
       0.471626         907.006         431.499 
        0.48727         873.468         403.396 
       0.502856         847.431         378.318 
       0.518488         839.557         355.732 
       0.534347         788.627          334.55 
       0.550082         769.864         314.994 
       0.565732         765.819         297.176 
       0.581496         726.678         280.782 
       0.597222         711.461         265.661 
       0.612804         698.215         251.712 
       0.628434          679.16         238.718 
       0.644267         660.515         226.556 
       0.660051         641.353         215.301 
       0.675724         636.164         204.882 
       0.691403         614.733         195.151 
       0.707174         595.965         186.003 
       0.722871         587.526         177.484 
        0.73838         575.959         169.595 
       0.754018         564.452          162.13 
       0.769845         553.253         155.038 
        0.78569         542.977         148.369 
       0.801365         529.051         142.162 
       0.817031         515.052         136.319 
       0.832809         510.319         130.773 
       0.848511         498.793         125.564 
       0.864097         483.784         120.678 
       0.879701         477.166         116.052 
       0.895507          475.23         111.616 
       0.911279         460.902         107.425 
        0.92691         454.065         103.487 
       0.942635         442.548         99.7264 
       0.958396         430.273         96.1476 
       0.974128         424.379         92.7533 
       0.989692         420.739         89.5586 
        1.00528         409.468         86.5115 
        1.02113         407.607         83.5602 
        1.03692         394.835         80.7593 
        1.05264         391.424         78.1013 
        1.06832         381.218         75.5687 
        1.08405         376.668         73.1431 
        1.09979         370.268         70.8239 
        1.11537         361.744         68.6296 
        1.13105          356.42         66.5163 
        1.14679         348.871          64.485 
        1.16256         338.993         62.5356 
        1.17828         339.838         60.6743 
        1.19395         331.099         58.8959 
         1.2097         325.757         57.1807 
        1.22537         318.025         55.5429 
          1.241         315.208         53.9751 
        1.25666         309.422         52.4646 
        1.27241         304.864         51.0055 
        1.28819         299.676         49.6001 
        1.30392         292.676         48.2524 
        1.31957         291.217         46.9614 
        1.33529         285.723         45.7135 
        1.35108         279.906         44.5065 
        1.36674         274.922         43.3523 
         1.3824         272.966         42.2405 
        1.39811           268.1         41.1644 
        1.41389         265.168         40.1222 
        1.42964         261.767         39.1182 
        1.44531         256.972         38.1539 
        1.46101         252.272         37.2204 
        1.47667         249.494         36.3213 
        1.49229         245.866         35.4547 
        1.50793         240.234         34.6156 
        1.52367         237.871         33.7986 
        1.53953         234.052         33.0028 
        1.55526         229.023         32.2392 
        1.57092         227.888         31.5033 
        1.58662         224.676         30.7888 
        1.60235         220.199         30.0953 
        1.61809         217.429         29.4231 
        1.63369          214.56         28.7776 
        1.64941         210.786          28.147 
        1.66519         208.174         27.5333 
        1.68085         205.816         26.9425 
        1.69652         201.666         26.3689 
        1.71228         197.561          25.809 
        1.72806         195.477         25.2651 
        1.74368          192.43         24.7425 
        1.75933         189.105         24.2338 
        1.77505         187.908         23.7372 
        1.79081         185.476         23.2537 
         1.8065         182.098         22.7859 
        1.82218         179.639         22.3316 
        1.83797         178.393         21.8866 
        1.85367         174.689         21.4564 
        1.86928         171.745         21.0404 
        1.88497         169.482         20.6333 
        1.90073           167.7         20.2355 
        1.91647         165.834         19.8487 
        1.93218         163.301          19.473 
        1.94787         159.987         19.1076 
        1.96363         157.556         18.7503 
        1.97935         157.094         18.4029 
        1.99499         154.088         18.0663 
        2.01064         152.448         17.7378 
         2.0264         150.804         17.4155 
        2.04216         148.506         17.1014 
        2.05781         146.151         16.7971 
        2.07353         144.346         16.4992 
        2.08928         142.286         16.2079 
        2.10499         140.199         15.9246 
        2.12065         138.183         15.6489 
        2.13633         137.251         15.3796 
        2.15211         134.341         15.1149 
        2.16785         132.947         14.8573 
        2.18349         131.592         14.6073 
        2.19916         129.713         14.3626 
        2.21489         128.574         14.1228 
        2.23063         126.344         13.8883 
         2.2463         123.996         13.6603 
        2.26194         122.575          13.438 
        2.27765         121.521         13.2195 
        2.29341         120.164         13.0054 
        2.30914         118.518         12.7965 
        2.32486         116.841         12.5924 
        2.34061         115.072         12.3924 
        2.35635         113.733          12.197 
        2.37203         112.759         12.0065 
        2.38768         110.845         11.8205 
        2.40339         109.432         11.6378 
        2.41914         108.206         11.4586 
        2.43483         106.908         11.2838 
         2.4505         105.796          11.113 
        2.46622         104.246         10.9452 
        2.48195         102.849         10.7808 
        2.49759         101.451         10.6208 
        2.51328           100.7         10.4636 
        2.52906         99.3016         10.3086 
        2.54479         98.2451         10.1574 
        2.56049         97.1657         10.0095 
        2.57618         95.5517         9.86472 
        2.59189          94.892         9.72261 
        2.60758         93.7138         9.58355 
        2.62325         92.1425          9.4474 
        2.63898         90.9439         9.31345 
        2.65468         90.1797          9.1824 
        2.67044         89.0436         9.05333 
        2.68618          87.838         8.92706 
        2.70184         87.4383         8.80372 
        2.71755         86.0114         8.68243 
        2.73329         84.8939         8.56325 
        2.74897         84.2393         8.44672 
        2.76462         82.9265         8.33264 
        2.78034          82.385         8.22021 
        2.79607         81.0271         8.10976 
        2.81179         80.2691         8.00147 
        2.82749         79.2219         7.89531 
        2.84321         78.5794         7.79097 
        2.85893         77.5243         7.68856 
        2.87462         76.5285         7.58818 
        2.89033         75.7269         7.48952 
        2.90605         74.8088         7.39254 
        2.92176         73.9595         7.29734 
        2.93747         73.3354         7.20388 
        2.95318         72.2842         7.11206 
        2.96891         71.6065          7.0218 
        2.98456         70.8659         6.93353 
        3.00023         69.9489         6.84665 
        3.01596         69.0683         6.76101 
        3.03164         68.5747         6.67709 
        3.04738          67.709         6.59436 
         3.0631         66.9238         6.51307 
        3.07883         66.2763         6.43316 
        3.09456         65.8024         6.35461 
        3.11026         64.9836         6.27751 
        3.12596         64.1199         6.20171 
        3.14163         63.4758         6.12734 
        3.15734           62.61         6.05403 
        3.17308         62.1638         5.98175 
        3.18879         61.4516         5.91086 
        3.20447         60.7741         5.84123 
         3.2202          60.221         5.77252 
         3.2359         59.2962         5.70504 
        3.25157         58.6801         5.63881 
        3.26729         58.2405         5.57344 
        3.28304         57.7834         5.50898 
        3.29877         56.9127         5.44564 
        3.31446         56.3345         5.38344 
        3.33014         55.8693         5.32228 
        3.34585         55.0636         5.26198 
        3.36158          54.594         5.20253 
        3.37727         54.2386         5.14419 
        3.39294         53.4405         5.08681 
        3.40867         53.0744          5.0301 
        3.42439         52.4827          4.9743 
        3.44008         51.9498         4.91946 
        3.45578          51.181         4.86541 
        3.47153         50.8722         4.81206 
        3.48724          50.407         4.75961 
        3.50292         49.9518         4.70808 
        3.51859         49.5435         4.65733 
        3.53431         49.0131         4.60718 
        3.55007         48.3665         4.55766 
        3.56577          48.167         4.50906 
        3.58146         47.4224          4.4612 
        3.59719         47.0321         4.41392 
        3.61292         46.5638         4.36736 
        3.62859         45.9958         4.32165 
        3.64429         45.7148          4.2765 
        3.66003         45.2382         4.23188 
        3.67578         44.7324          4.1879 
        3.69146         44.3984         4.14473 
        3.70712         43.7149         4.10225 
        3.72284         43.3617          4.0602 
        3.73853         43.0067         4.01883 
        3.75422         42.5276         3.97802 
        3.76993         42.0547         3.93775 
        3.78564          41.725         3.89806 
        3.80137         41.2471         3.85885 
        3.81707         40.9715         3.82027 
        3.83279         40.5669         3.78219 
        3.84853         40.2718         3.74457 
        3.86424         39.8136         3.70754 
        3.87992         39.4129         3.67107 
        3.89561         39.0801         3.63509 
        3.91134         38.6465         3.59952 
        3.92704         38.2977         3.56448 
        3.94273         37.8999         3.52994 
        3.95845         37.6237          3.4958 
        3.97418          37.352          3.4621 
        3.98988         36.8677          3.4289 
        4.00554         36.5473         3.39623 
        4.02125         36.2427         3.36389 
        4.03698         35.9223         3.33193 
        4.05268         35.5429         3.30046 
        4.06839          35.275         3.26938 
         4.0841         34.8768         3.23871 
        4.09983          34.726         3.20839 
        4.11555         34.2867         3.17847 
        4.13124         34.0913         3.14902 
        4.14693         33.7075         3.11993 
        4.16266         33.4659         3.09113 
        4.17839         33.1547         3.06272 
        4.19408         32.8285         3.03474 
        4.20977         32.5079         3.00709 
        4.22551         32.1921         2.97973 
        4.24123         31.9527         2.95273 
        4.25691         31.6999         2.92615 
        4.27259         31.3529         2.89989 
        4.28831         31.1056          2.8739 
        4.30404         30.8091          2.8482 
        4.31974         30.5163         2.82288 
        4.33543         30.2807         2.79789 
        4.35116         29.9829         2.77314 
        4.36688         29.8417         2.74869 
        4.38255         29.5455         2.72464 
        4.39825         29.2578         2.70083 
        4.41398         29.0287         2.67725 
         4.4297         28.7064         2.65399 
        4.44541         28.5268           2.631 
        4.46111         28.1635         2.60831 
        4.47683         27.9973         2.58587 
        4.49251         27.7338         2.56374 
        4.50819         27.5409         2.54188 
         4.5239         27.3284         2.52025 
        4.53962         27.1206         2.49884 
        4.55535         26.8843         2.47767 
        4.57106          26.613         2.45678 
        4.58678         26.4417         2.43613 
         4.6025         26.2437         2.41571 
        4.61821          26.029         2.39553 
        4.63391         25.7552         2.37561 
         4.6496         25.5148         2.35593 
        4.66532         25.3216         2.33644 
        4.68103         25.1575         2.31718 
        4.69673         24.9432         2.29816 
        4.71241         24.7574         2.27937 
        4.72811         24.5217         2.26076 
        4.74384         24.3574         2.24234 
        4.75955         24.1444         2.22415 
        4.77525         23.8905         2.20618 
        4.79096          23.763         2.18838 
        4.80669         23.5686         2.17078 
         4.8224         23.4111         2.15339 
        4.83809         23.1627         2.13621 
        4.85379          22.941          2.1192 
         4.8695          22.793         2.10237 
        4.88521          22.602         2.08574 
        4.90093         22.4291         2.06928 
        4.91663         22.2482         2.05301 
        4.93234         22.0331          2.0369 
        4.94807         21.9227         2.02096 
        4.96377          21.732         2.00522 
        4.97943         21.5738         1.98968 
        4.99514          21.349         1.97427 
        5.01086         21.2273           1.959 
        5.02654         21.0288         1.94394 
        5.04227         20.9306           1.929 
          5.058          20.748         1.91421 
        5.07371         20.5469          1.8996 
        5.08942         20.3996         1.88514 
        5.10513         20.2446         1.87084 
        5.12084         20.0911         1.85667 
        5.13656         19.9403         1.84266 
        5.15225         19.7985         1.82882 
        5.16796         19.6216         1.81509 
        5.18369         19.4868          1.8015 
         5.1994         19.3296         1.78807 
        5.21509         19.1799         1.77479 
        5.23079         19.0416         1.76163 
        5.24649         18.8965         1.74862 
        5.26217         18.7637         1.73575 
        5.27788         18.6371         1.72299 
        5.29359         18.4701         1.71036 
        5.30933         18.3342         1.69783 
        5.32504         18.1872         1.68546 
        5.34073         18.0651         1.67322 
        5.35646         17.9151         1.66108 
        5.37218         17.7736         1.64906 
        5.38789         17.6674         1.63717 
        5.40357         17.5268         1.62542 
        5.41929          17.398         1.61376 
        5.43502         17.2316         1.60222 
         5.4507         17.1419         1.59081 
        5.46639          16.991         1.57952 
        5.48212          16.869          1.5683 
        5.49786         16.7559         1.55719 
        5.51353         16.6017         1.54624 
        5.52921         16.4949         1.53538 
        5.54495         16.4046          1.5246 
        5.56066         16.2722         1.51393 
        5.57637         16.1208         1.50337 
        5.59207         16.0274         1.49292 
        5.60778         15.8925         1.48256 
        5.62346           15.77         1.47232 
        5.63916         15.7015         1.46217 
        5.65487         15.5503          1.4521 
         5.6706         15.4434         1.44212 
        5.68633         15.3475         1.43224 
        5.70203         15.2474         1.42246 
        5.71773         15.1268         1.41278 
        5.73344         15.0297         1.40318 
        5.74916         14.9034         1.39367 
        5.76486          14.804         1.38426 
        5.78054          14.691         1.37494 
        5.79626         14.6036         1.36569 
          5.812         14.4725         1.35652 
         5.8277          14.393         1.34746 
        5.84339         14.2789         1.33848 
        5.85911         14.1969         1.32956 
        5.87484          14.064         1.32073 
        5.89053         13.9912           1.312 
        5.90623         13.8955         1.30334 
        5.92195         13.8259         1.29475 
        5.93767         13.6695         1.28624 
        5.95336         13.6101         1.27782 
        5.96905         13.5093         1.26948 
        5.98476         13.3867          1.2612 
        6.00048         13.2932           1.253 
        6.01617         13.2063         1.24488 
        6.03185         13.1236         1.23684 
        6.04756         13.0261         1.22885 
        6.06331         12.9367         1.22092 
        6.07903         12.8293         1.21308 
        6.09473         12.7439         1.20531 
        6.11044         12.6533          1.1976 
        6.12616         12.5585         1.18996 
        6.14186         12.5073          1.1824 
        6.15755         12.4182          1.1749 
        6.17326         12.3084         1.16747 
        6.18898         12.2415         1.16009 
        6.20467          12.161         1.15279 
        6.22036         12.0336         1.14556 
         6.2361         11.9865         1.13837 
         6.2518         11.8825         1.13125 
        6.26748         11.8314         1.12421 
        6.28319         11.7414         1.11721 
        6.29893         11.6629         1.11027 
        6.31463         11.5801         1.10339 
        6.33033         11.5261         1.09658 
        6.34604         11.4348         1.08982 
        6.36177         11.3352         1.08311 
        6.37747         11.2797         1.07647 
