# k  (h/Mpc)    Pcb(k)  (Mpc/h)^3    Pcb_linear(k) (Mpc/h)^3   ShotnoiseSubtracted = true
      0.0200456         14504.1         14840.6 
      0.0350414           10972           11421 
      0.0492313         8470.48         8629.21 
      0.0637834         7423.15         7336.93 
      0.0800726         5940.45         5907.77 
       0.096163         4210.88         4374.78 
       0.111083         3413.79         3564.81 
       0.126058         3177.35         3189.56 
       0.142273         2746.86         2707.55 
       0.158546         2367.94          2163.5 
        0.17375         1916.53         1854.07 
       0.188953         1870.02         1689.95 
       0.204907         1762.58         1493.91 
       0.220756         1521.59         1272.02 
        0.23588          1352.3         1120.52 
         0.2514         1183.46         1025.01 
       0.267535          1175.1          927.42 
       0.283568         1068.75         820.616 
       0.299022         1005.21         737.479 
       0.314451         957.666         678.286 
       0.330372         883.994         623.102 
       0.346141         824.487         566.717 
       0.361624         792.182          517.99 
       0.377134         737.696         479.122 
       0.392932         711.613         444.447 
       0.408854         688.756         410.512 
       0.424564         647.727         379.762 
       0.440253         634.382         353.554 
       0.455999          602.19         330.336 
       0.471626         570.614         308.687 
        0.48727         553.448         288.583 
       0.502856         538.002         270.642 
       0.518488         532.035         254.484 
       0.534347         497.663         239.331 
       0.550082         477.404         225.341 
       0.565732         477.844         212.595 
       0.581496         450.195         200.866 
       0.597222         443.117         190.049 
       0.612804         429.862          180.07 
       0.628434         414.961         170.775 
       0.644267         403.257         162.074 
       0.660051         392.673         154.022 
       0.675724         388.901         146.569 
       0.691403         376.822         139.607 
       0.707174         363.405         133.063 
       0.722871         359.078         126.969 
        0.73838         353.977         121.325 
       0.754018         342.964         115.985 
       0.769845         332.386         110.912 
        0.78569         331.702          106.14 
       0.801365          320.84           101.7 
       0.817031         311.596         97.5205 
       0.832809         308.203         93.5524 
       0.848511         300.171          89.826 
       0.864097         295.274         86.3311 
       0.879701         290.657         83.0213 
       0.895507          284.26         79.8482 
       0.911279         275.384         76.8499 
        0.92691         273.851         74.0324 
       0.942635         268.167         71.3425 
       0.958396         264.179         68.7823 
       0.974128         258.651         66.3541 
       0.989692         253.451         64.0686 
        1.00528         249.935         61.8888 
        1.02113         247.536         59.7775 
        1.03692         240.847         57.7737 
        1.05264         236.483         55.8723 
        1.06832         232.254         54.0605 
        1.08405         227.723         52.3253 
        1.09979          225.26         50.6662 
        1.11537         219.982         49.0964 
        1.13105         215.942         47.5846 
        1.14679         215.827         46.1314 
        1.16256         211.206         44.7369 
        1.17828         206.542         43.4053 
        1.19395          203.93         42.1331 
         1.2097         202.788         40.9061 
        1.22537         197.593         39.7344 
          1.241         196.162         38.6128 
        1.25666         191.599         37.5322 
        1.27241         188.913         36.4884 
        1.28819         186.565          35.483 
        1.30392         183.719         34.5189 
        1.31957         182.608         33.5954 
        1.33529         177.969         32.7026 
        1.35108         175.496         31.8392 
        1.36674         174.331         31.0134 
         1.3824          170.57         30.2181 
        1.39811           170.7         29.4483 
        1.41389         166.347         28.7027 
        1.42964          163.19         27.9845 
        1.44531         160.917         27.2946 
        1.46101         159.784         26.6268 
        1.47667         155.958         25.9836 
        1.49229         154.137         25.3636 
        1.50793          152.81         24.7634 
        1.52367         150.942         24.1789 
        1.53953         147.731         23.6096 
        1.55526         145.737         23.0634 
        1.57092         144.193         22.5369 
        1.58662         141.594         22.0257 
        1.60235         140.296         21.5296 
        1.61809         138.447         21.0487 
        1.63369         136.349          20.587 
        1.64941         134.258         20.1359 
        1.66519         132.307         19.6968 
        1.68085         131.296         19.2742 
        1.69652         128.052         18.8639 
        1.71228          127.64         18.4633 
        1.72806         125.647         18.0742 
        1.74368         124.444         17.7004 
        1.75933         122.381         17.3364 
        1.77505         120.524         16.9812 
        1.79081         119.473         16.6353 
         1.8065         117.653         16.3007 
        1.82218         115.651         15.9756 
        1.83797         114.197         15.6573 
        1.85367         112.816         15.3495 
        1.86928         111.632         15.0519 
        1.88497         109.086         14.7607 
        1.90073         108.836         14.4761 
        1.91647         106.807         14.1994 
        1.93218         105.665         13.9306 
        1.94787         104.351         13.6692 
        1.96363          102.94         13.4136 
        1.97935         100.897         13.1651 
        1.99499         100.213         12.9243 
        2.01064         98.8514         12.6893 
         2.0264         97.5122         12.4587 
        2.04216         96.5495          12.234 
        2.05781         95.2181         12.0163 
        2.07353         93.8018         11.8032 
        2.08928         92.6246         11.5949 
        2.10499         91.1293         11.3922 
        2.12065         90.7034         11.1949 
        2.13633         89.5558         11.0023 
        2.15211         88.3189         10.8129 
        2.16785         86.6225         10.6286 
        2.18349         85.4939         10.4498 
        2.19916         85.0738         10.2748 
        2.21489         83.7785         10.1032 
        2.23063         82.4207         9.93545 
         2.2463         81.9432         9.77232 
        2.26194         81.2378         9.61329 
        2.27765          79.548         9.45701 
        2.29341         78.7638         9.30384 
        2.30914         77.4334          9.1544 
        2.32486         76.8886         9.00837 
        2.34061         76.0498          8.8653 
        2.35635         74.9091          8.7255 
        2.37203         73.6529         8.58923 
        2.38768         73.0523         8.45617 
        2.40339         72.3317         8.32548 
        2.41914         71.1421         8.19727 
        2.43483         70.9087         8.07224 
         2.4505         69.6148         7.95005 
        2.46622         68.8557         7.82999 
        2.48195          67.951         7.71242 
        2.49759         67.1784         7.59792 
        2.51328         66.5403         7.48547 
        2.52906         65.7072          7.3746 
        2.54479         64.9424         7.26641 
        2.56049         63.9557         7.16062 
        2.57618         63.4048         7.05705 
        2.59189         62.4585         6.95538 
        2.60758         61.8262          6.8559 
        2.62325         61.3665          6.7585 
        2.63898         60.4415         6.66268 
        2.65468          59.845         6.56892 
        2.67044         59.0175         6.47659 
        2.68618         58.7985         6.38626 
        2.70184         58.0008         6.29802 
        2.71755         57.5763         6.21125 
        2.73329         56.4232           6.126 
        2.74897         55.7873         6.04264 
        2.76462         55.2798         5.96102 
        2.78034         54.6014         5.88059 
        2.79607         53.9454         5.80157 
        2.81179         53.2707         5.72411 
        2.82749          52.809         5.64816 
        2.84321         52.2578         5.57352 
        2.85893         51.5492         5.50026 
        2.87462          50.878         5.42845 
        2.89033         50.5036         5.35787 
        2.90605         49.6999         5.28849 
        2.92176         49.3728         5.22039 
        2.93747         48.7339         5.15353 
        2.95318         48.1009         5.08784 
        2.96891         47.4415         5.02327 
        2.98456         47.1978         4.96012 
        3.00023         46.5591         4.89797 
        3.01596         46.2172         4.83671 
        3.03164         45.4309         4.77667 
        3.04738          45.141         4.71749 
         3.0631         44.6465         4.65933 
        3.07883         44.1848         4.60217 
        3.09456            43.9         4.54598 
        3.11026         43.2117         4.49082 
        3.12596          42.728         4.43659 
        3.14163         42.2862         4.38339 
        3.15734         41.7325         4.33094 
        3.17308         41.4743         4.27924 
        3.18879         41.0592         4.22852 
        3.20447         40.4766         4.17871 
         3.2202         40.1552         4.12955 
         3.2359         39.6712         4.08128 
        3.25157          39.268          4.0339 
        3.26729         38.8846         3.98714 
        3.28304          38.378         3.94103 
        3.29877         38.0292         3.89572 
        3.31446         37.6799         3.85122 
        3.33014         37.3903         3.80746 
        3.34585         36.9377         3.76432 
        3.36158         36.5485          3.7218 
        3.37727         36.0624         3.68006 
        3.39294         35.8147         3.63901 
        3.40867         35.2469         3.59845 
        3.42439         35.0228         3.55853 
        3.44008         34.8482         3.51929 
        3.45578         34.2503         3.48063 
        3.47153         33.9085         3.44246 
        3.48724          33.669         3.40494 
        3.50292         33.4039         3.36807 
        3.51859         32.8846         3.33177 
        3.53431         32.6043          3.2959 
        3.55007         32.3389         3.26047 
        3.56577         32.0391          3.2257 
        3.58146         31.6236         3.19146 
        3.59719          31.412         3.15764 
        3.61292         31.0966         3.12433 
        3.62859         30.7574         3.09163 
        3.64429         30.3984         3.05933 
        3.66003         30.1576         3.02741 
        3.67578         29.8938         2.99595 
        3.69146         29.6732         2.96506 
        3.70712         29.2646         2.93467 
        3.72284         29.0829          2.9046 
        3.73853         28.8524           2.875 
        3.75422         28.4259         2.84581 
        3.76993         28.3217           2.817 
        3.78564         27.9789          2.7886 
        3.80137         27.6977         2.76055 
        3.81707         27.4176         2.73295 
        3.83279         27.1813         2.70571 
        3.84853         26.9794          2.6788 
        3.86424         26.7281         2.65231 
        3.87992         26.3894         2.62622 
        3.89561         26.1711         2.60048 
        3.91134         25.9125         2.57503 
        3.92704         25.6738         2.54996 
        3.94273         25.4294         2.52525 
        3.95845         25.1242         2.50083 
        3.97418          25.046         2.47673 
        3.98988         24.6731         2.45298 
        4.00554         24.4933          2.4296 
        4.02125         24.2843         2.40647 
        4.03698         23.9992          2.3836 
        4.05268         23.8576         2.36109 
        4.06839         23.6011         2.33885 
         4.0841         23.4373         2.31691 
        4.09983         23.2328         2.29522 
        4.11555         23.0522         2.27382 
        4.13124         22.7919         2.25276 
        4.14693         22.5513         2.23194 
        4.16266         22.3239         2.21134 
        4.17839         22.1806         2.19102 
        4.19408         21.9568           2.171 
        4.20977         21.7683         2.15122 
        4.22551          21.538         2.13164 
        4.24123         21.3497         2.11233 
        4.25691         21.1807         2.09332 
        4.27259         20.9585         2.07453 
        4.28831          20.835         2.05594 
        4.30404         20.6146         2.03755 
        4.31974         20.5013         2.01944 
        4.33543         20.2643         2.00156 
        4.35116         20.1536         1.98385 
        4.36688         19.9677         1.96637 
        4.38255         19.7551         1.94916 
        4.39825         19.6172         1.93212 
        4.41398         19.4202         1.91526 
         4.4297         19.2661         1.89861 
        4.44541         19.1078         1.88217 
        4.46111          18.893         1.86594 
        4.47683         18.7715         1.84989 
        4.49251         18.5891         1.83406 
        4.50819         18.4607         1.81842 
         4.5239         18.2862         1.80294 
        4.53962         18.1533         1.78763 
        4.55535         17.9794         1.77248 
        4.57106         17.8451         1.75754 
        4.58678         17.6791         1.74276 
         4.6025          17.521         1.72816 
        4.61821         17.4012         1.71372 
        4.63391         17.2396         1.69947 
         4.6496         17.0995         1.68539 
        4.66532         16.9447         1.67145 
        4.68103         16.8138         1.65767 
        4.69673         16.6648         1.64406 
        4.71241         16.5824         1.63062 
        4.72811         16.3926         1.61731 
        4.74384         16.2892         1.60413 
        4.75955         16.1225         1.59112 
        4.77525         16.0021         1.57826 
        4.79096         15.8878         1.56553 
        4.80669         15.8017         1.55294 
         4.8224         15.6037          1.5405 
        4.83809         15.4547          1.5282 
        4.85379            15.4         1.51604 
         4.8695         15.2715           1.504 
        4.88521         15.1254          1.4921 
        4.90093         15.0066         1.48032 
        4.91663         14.8779         1.46869 
        4.93234         14.7736         1.45717 
        4.94807         14.6733         1.44576 
        4.96377         14.5077          1.4345 
        4.97943          14.416         1.42338 
        4.99514         14.3146         1.41235 
        5.01086         14.1759         1.40144 
        5.02654         14.0688         1.39066 
        5.04227          13.981         1.37997 
          5.058         13.8426         1.36939 
        5.07371         13.7744         1.35894 
        5.08942         13.6645          1.3486 
        5.10513         13.5727         1.33836 
        5.12084         13.4446         1.32823 
        5.13656         13.3267         1.31821 
        5.15225         13.2312          1.3083 
        5.16796         13.1042         1.29849 
        5.18369         13.0169         1.28876 
         5.1994         12.9499         1.27915 
        5.21509         12.8334         1.26966 
        5.23079         12.7259         1.26024 
        5.24649         12.6389         1.25093 
        5.26217         12.5599         1.24172 
        5.27788          12.432          1.2326 
        5.29359         12.3469         1.22356 
        5.30933         12.2208          1.2146 
        5.32504           12.16         1.20575 
        5.34073         12.0715         1.19699 
        5.35646         11.9812         1.18831 
        5.37218         11.8832         1.17971 
        5.38789         11.8254          1.1712 
        5.40357         11.7067          1.1628 
        5.41929         11.6282         1.15446 
        5.43502         11.5517          1.1462 
         5.4507         11.4555         1.13804 
        5.46639         11.3573         1.12996 
        5.48212         11.2967         1.12194 
        5.49786         11.2169         1.11399 
        5.51353         11.1156         1.10615 
        5.52921         11.0494         1.09839 
        5.54495         10.9807         1.09067 
        5.56066         10.8836         1.08304 
        5.57637         10.7902         1.07548 
        5.59207         10.7167         1.06801 
        5.60778         10.6606          1.0606 
        5.62346          10.584         1.05327 
        5.63916         10.5088         1.04601 
        5.65487         10.4134         1.03881 
         5.6706         10.3543         1.03167 
        5.68633         10.2596          1.0246 
        5.70203         10.1966          1.0176 
        5.71773         10.1217         1.01068 
        5.73344         10.0551         1.00381 
        5.74916          9.9804        0.997005 
        5.76486         9.91991        0.990271 
        5.78054         9.82586        0.983611 
        5.79626         9.75394        0.976993 
          5.812         9.70869         0.97043 
         5.8277         9.62949        0.963946 
        5.84339         9.57283        0.957523 
        5.85911         9.49673        0.951146 
        5.87484         9.44101        0.944829 
        5.89053         9.38064        0.938582 
        5.90623         9.29916        0.932389 
        5.92195         9.23283        0.926241 
        5.93767         9.16052        0.920153 
        5.95336         9.09717         0.91413 
        5.96905         9.04474        0.908164 
        5.98476         8.99026        0.902242 
        6.00048         8.91767        0.896372 
        6.01617         8.84134        0.890563 
        6.03185         8.79791        0.884812 
        6.04756         8.74004        0.879099 
        6.06331         8.67785        0.873425 
        6.07903         8.60878        0.867812 
        6.09473         8.56484        0.862255 
        6.11044          8.5072        0.856742 
        6.12616         8.44809        0.851278 
        6.14186         8.39443        0.845867 
        6.15755         8.34052        0.840505 
        6.17326           8.275        0.835185 
        6.18898         8.21195        0.829908 
        6.20467         8.16349        0.824688 
        6.22036          8.1005        0.819512 
         6.2361         8.03193        0.814368 
         6.2518         8.00387        0.809276 
        6.26748         7.94328         0.80424 
        6.28319         7.90058        0.799233 
        6.29893         7.84039        0.794264 
        6.31463          7.7868        0.789346 
        6.33033         7.75197        0.784472 
        6.34604         7.70011        0.779636 
        6.36177         7.63773        0.774837 
        6.37747         7.58611        0.770087 
