# k  (h/Mpc)    Pcb(k)  (Mpc/h)^3    Pcb_linear(k) (Mpc/h)^3   ShotnoiseSubtracted = true
      0.0200456         655.315         665.265 
      0.0350414         509.457         511.974 
      0.0492313         387.906         386.825 
      0.0637834         330.747         328.895 
      0.0800726         266.077         264.829 
       0.096163         195.721          196.11 
       0.111083          158.71         159.801 
       0.126058         143.237         142.979 
       0.142273         122.108         121.372 
       0.158546         98.0236         96.9837 
        0.17375         82.8724          83.113 
       0.188953         76.1741          75.756 
       0.204907         68.9272          66.968 
       0.220756          58.038         57.0211 
        0.23588         51.1009         50.2299 
         0.2514         46.3086         45.9485 
       0.267535         42.1378         41.5738 
       0.283568         37.5434          36.786 
       0.299022          33.974         33.0592 
       0.314451         30.6927         30.4058 
       0.330372         28.4649          27.932 
       0.346141         25.9286         25.4044 
       0.361624         23.8872         23.2201 
       0.377134         22.3146         21.4778 
       0.392932          20.031         19.9234 
       0.408854         19.1007         18.4022 
       0.424564         17.6614         17.0237 
       0.440253         16.3937         15.8489 
       0.455999         15.4738         14.8081 
       0.471626         14.5563         13.8376 
        0.48727         13.5817         12.9364 
       0.502856         12.6875         12.1322 
       0.518488         12.1353         11.4078 
       0.534347         11.5554         10.7286 
       0.550082          10.621         10.1014 
       0.565732         9.84717         9.53005 
       0.581496         9.60908         9.00429 
       0.597222         9.18507         8.51939 
       0.612804         8.59057         8.07208 
       0.628434         8.28218         7.65538 
       0.644267         7.87977         7.26534 
       0.660051         7.45033          6.9044 
       0.675724         7.10462         6.57029 
       0.691403         6.84906         6.25822 
       0.707174         6.49802         5.96487 
       0.722871         6.21636         5.69167 
        0.73838          5.9928         5.43868 
       0.754018         5.79312         5.19931 
       0.769845         5.49478         4.97188 
        0.78569         5.30531         4.75799 
       0.801365         5.07912         4.55895 
       0.817031         4.91017         4.37158 
       0.832809         4.72695         4.19371 
       0.848511         4.48543         4.02666 
       0.864097         4.31518         3.86999 
       0.879701         4.17002         3.72162 
       0.895507         4.01799         3.57938 
       0.911279         3.93952         3.44497 
        0.92691         3.78757         3.31868 
       0.942635         3.63341         3.19809 
       0.958396         3.50172         3.08333 
       0.974128         3.40087         2.97448 
       0.989692         3.32836         2.87202 
        1.00528         3.18839         2.77431 
        1.02113         3.06899         2.67966 
        1.03692         3.01909         2.58984 
        1.05264         2.90957         2.50461 
        1.06832         2.83698         2.42339 
        1.08405         2.70484          2.3456 
        1.09979         2.64791         2.27123 
        1.11537         2.58394         2.20086 
        1.13105         2.52051         2.13309 
        1.14679         2.45174         2.06795 
        1.16256         2.36689         2.00543 
        1.17828         2.31331         1.94574 
        1.19395         2.24968         1.88871 
         1.2097         2.15438         1.83371 
        1.22537         2.11783         1.78119 
          1.241         2.07083         1.73091 
        1.25666         2.04834         1.68247 
        1.27241         1.95668         1.63568 
        1.28819         1.91136         1.59061 
        1.30392         1.88087         1.54739 
        1.31957         1.83406         1.50599 
        1.33529         1.78001         1.46597 
        1.35108         1.74013         1.42727 
        1.36674         1.68378         1.39025 
         1.3824         1.65442          1.3546 
        1.39811         1.61362         1.32009 
        1.41389         1.58524         1.28667 
        1.42964         1.55079         1.25447 
        1.44531         1.51198         1.22355 
        1.46101         1.48749         1.19361 
        1.47667          1.4296         1.16478 
        1.49229         1.42044         1.13698 
        1.50793         1.38225         1.11008 
        1.52367         1.36001         1.08388 
        1.53953         1.31708         1.05836 
        1.55526         1.29443         1.03387 
        1.57092         1.26762         1.01027 
        1.58662         1.24716        0.987355 
        1.60235         1.21968        0.965117 
        1.61809         1.18891        0.943559 
        1.63369         1.18095        0.922859 
        1.64941         1.14633        0.902638 
        1.66519         1.12758        0.882957 
        1.68085         1.09407        0.864009 
        1.69652          1.0776        0.845617 
        1.71228           1.064        0.827662 
        1.72806         1.03428         0.81022 
        1.74368         1.02467         0.79346 
        1.75933        0.998943        0.777147 
        1.77505        0.983375         0.76122 
        1.79081        0.965269        0.745716 
         1.8065        0.940677        0.730715 
        1.82218        0.931897        0.716144 
        1.83797        0.913994        0.701875 
        1.85367        0.906203        0.688077 
        1.86928        0.886058        0.674737 
        1.88497        0.866584        0.661682 
        1.90073        0.849729        0.648927 
        1.91647         0.84331        0.636523 
        1.93218        0.822389        0.624473 
        1.94787        0.809481        0.612756 
        1.96363        0.795334        0.601296 
        1.97935        0.780191        0.590156 
        1.99499        0.768321        0.579363 
        2.01064         0.75596        0.568828 
         2.0264        0.743675        0.558491 
        2.04216        0.735179        0.548418 
        2.05781        0.721593         0.53866 
        2.07353        0.708912        0.529107 
        2.08928        0.694168        0.519767 
        2.10499        0.686614         0.51068 
        2.12065        0.681362        0.501839 
        2.13633        0.667933        0.493202 
        2.15211        0.654943        0.484715 
        2.16785        0.644653        0.476452 
        2.18349        0.634628        0.468437 
        2.19916        0.627866         0.46059 
        2.21489        0.615913        0.452899 
        2.23063        0.608072         0.44538 
         2.2463        0.602147        0.438067 
        2.26194        0.584886        0.430938 
        2.27765        0.580553        0.423933 
        2.29341        0.574971        0.417066 
        2.30914        0.568483        0.410368 
        2.32486         0.55685        0.403821 
        2.34061        0.548583        0.397408 
        2.35635        0.539291        0.391141 
        2.37203        0.533653        0.385032 
        2.38768        0.525819        0.379068 
        2.40339        0.520338        0.373209 
        2.41914        0.512674        0.367462 
        2.43483        0.505547        0.361857 
         2.4505        0.497117        0.356379 
        2.46622         0.49083        0.350997 
        2.48195        0.487361        0.345727 
        2.49759         0.47982        0.340595 
        2.51328        0.471538        0.335554 
        2.52906        0.467888        0.330584 
        2.54479        0.459859        0.325734 
        2.56049         0.45165        0.320992 
        2.57618        0.447713        0.316349 
        2.59189        0.443528        0.311791 
        2.60758        0.438313        0.307332 
        2.62325        0.430831        0.302966 
        2.63898        0.426852         0.29867 
        2.65468        0.419659        0.294467 
        2.67044        0.415345        0.290328 
        2.68618        0.410186        0.286279 
        2.70184        0.405674        0.282324 
        2.71755        0.399198        0.278434 
        2.73329        0.394822        0.274612 
        2.74897        0.390965        0.270875 
        2.76462        0.386179        0.267217 
        2.78034        0.380554        0.263611 
        2.79607        0.377156        0.260069 
        2.81179        0.372097        0.256597 
        2.82749        0.368084        0.253192 
        2.84321        0.364538        0.249846 
        2.85893        0.359779        0.246562 
        2.87462        0.355263        0.243343 
        2.89033        0.350959        0.240179 
        2.90605        0.348016        0.237069 
        2.92176        0.343361        0.234016 
        2.93747        0.338853        0.231019 
        2.95318        0.335991        0.228074 
        2.96891        0.332196         0.22518 
        2.98456        0.328328        0.222349 
        3.00023        0.325664        0.219563 
        3.01596          0.3212        0.216817 
        3.03164        0.318124        0.214125 
        3.04738        0.312953        0.211472 
         3.0631        0.311747        0.208866 
        3.07883        0.306919        0.206303 
        3.09456        0.303812        0.203784 
        3.11026        0.301673        0.201311 
        3.12596        0.297355        0.198881 
        3.14163        0.295016        0.196496 
        3.15734        0.292633        0.194145 
        3.17308         0.28977        0.191827 
        3.18879        0.286678        0.189553 
        3.20447        0.281669         0.18732 
         3.2202        0.281042        0.185117 
         3.2359        0.277422        0.182953 
        3.25157        0.275274        0.180829 
        3.26729        0.272127        0.178733 
        3.28304        0.270419        0.176666 
        3.29877        0.266705        0.174635 
        3.31446        0.264534         0.17264 
        3.33014        0.262392        0.170678 
        3.34585        0.261129        0.168745 
        3.36158        0.257367        0.166838 
        3.37727        0.255986        0.164967 
        3.39294          0.2527        0.163127 
        3.40867         0.25021        0.161309 
        3.42439        0.248533        0.159519 
        3.44008        0.245857        0.157761 
        3.45578        0.244634        0.156027 
        3.47153        0.242208        0.154317 
        3.48724        0.240146        0.152635 
        3.50292        0.238165        0.150982 
        3.51859        0.235066        0.149354 
        3.53431        0.233125        0.147746 
        3.55007        0.231932        0.146158 
        3.56577        0.229061          0.1446 
        3.58146        0.227326        0.143065 
        3.59719        0.225962        0.141549 
        3.61292        0.224591        0.140055 
        3.62859        0.221914        0.138589 
        3.64429         0.21969        0.137142 
        3.66003        0.218214        0.135711 
        3.67578         0.21676        0.134301 
        3.69146        0.214878        0.132916 
        3.70712        0.213616        0.131554 
        3.72284        0.211451        0.130205 
        3.73853         0.21031        0.128879 
        3.75422        0.208467         0.12757 
        3.76993         0.20671        0.126278 
        3.78564        0.204684        0.125005 
        3.80137        0.203436        0.123748 
        3.81707        0.201966        0.122511 
        3.83279         0.20039         0.12129 
        3.84853        0.198335        0.120083 
        3.86424        0.197128        0.118896 
        3.87992         0.19575        0.117726 
        3.89561        0.193951        0.116572 
        3.91134        0.192839        0.115432 
        3.92704        0.190935        0.114308 
        3.94273        0.189144          0.1132 
        3.95845         0.18814        0.112106 
        3.97418        0.187191        0.111025 
        3.98988        0.184889         0.10996 
        4.00554         0.18413        0.108913 
        4.02125        0.182447        0.107876 
        4.03698        0.179956        0.106851 
        4.05268        0.178844        0.105841 
        4.06839        0.176589        0.104845 
         4.0841        0.174498        0.103861 
        4.09983        0.172819        0.102889 
        4.11555        0.170971        0.101929 
        4.13124        0.168791        0.100985 
        4.14693        0.167776        0.100052 
        4.16266        0.165648       0.0991286 
        4.17839        0.164357       0.0982175 
        4.19408        0.162979         0.09732 
        4.20977        0.161754       0.0964335 
        4.22551        0.160234       0.0955559 
        4.24123        0.158634       0.0946902 
        4.25691        0.157226       0.0938378 
        4.27259        0.155839       0.0929956 
        4.28831        0.154387       0.0921621 
        4.30404        0.153432       0.0913382 
        4.31974        0.152802       0.0905261 
        4.33543        0.151319       0.0897245 
        4.35116        0.149859       0.0889308 
        4.36688        0.149018        0.088147 
        4.38255        0.147648       0.0873757 
        4.39825        0.147231        0.086612 
        4.41398        0.146204       0.0858559 
         4.4297        0.145417       0.0851098 
        4.44541         0.14463       0.0843728 
        4.46111        0.143367       0.0836451 
        4.47683        0.142989       0.0829255 
        4.49251        0.142031       0.0822159 
        4.50819        0.141328       0.0815148 
         4.5239        0.140593        0.080821 
        4.53962        0.140102       0.0801345 
        4.55535         0.13942       0.0794557 
        4.57106        0.139074       0.0787858 
        4.58678        0.138003       0.0781235 
         4.6025        0.137915       0.0774687 
        4.61821        0.137641       0.0768216 
        4.63391        0.137164       0.0761828 
         4.6496        0.136845       0.0755515 
        4.66532        0.136702       0.0749265 
        4.68103        0.136239       0.0743089 
        4.69673        0.135445       0.0736989 
        4.71241        0.135861       0.0730964 
        4.72811        0.135392       0.0724997 
        4.74384        0.135262       0.0719089 
        4.75955        0.135549       0.0713257 
        4.77525        0.135604       0.0707493 
        4.79096        0.135014       0.0701786 
        4.80669        0.135137        0.069614 
         4.8224        0.135413       0.0690563 
        4.83809        0.135116       0.0685053 
        4.85379        0.135116       0.0679601 
         4.8695        0.135299       0.0674204 
        4.88521        0.135603       0.0668868 
        4.90093        0.135804        0.066359 
        4.91663        0.135967       0.0658374 
        4.93234        0.135693       0.0653208 
        4.94807        0.136515       0.0648095 
        4.96377        0.136979       0.0643047 
        4.97943        0.137716       0.0638064 
        4.99514        0.137577       0.0633121 
        5.01086        0.138448       0.0628227 
        5.02654        0.138586       0.0623397 
        5.04227        0.139325       0.0618605 
          5.058        0.139663       0.0613861 
        5.07371        0.140758       0.0609176 
        5.08942        0.140877        0.060454 
        5.10513        0.141838       0.0599953 
        5.12084        0.142666        0.059541 
        5.13656         0.14282       0.0590917 
        5.15225        0.144158       0.0586477 
        5.16796        0.144619       0.0582076 
        5.18369        0.145484       0.0577717 
         5.1994        0.146873       0.0573411 
        5.21509         0.14745       0.0569153 
        5.23079        0.148455       0.0564933 
        5.24649        0.150093        0.056076 
        5.26217        0.150791       0.0556632 
        5.27788        0.151886        0.055254 
        5.29359        0.152732       0.0548489 
        5.30933        0.154168       0.0544472 
        5.32504         0.15538       0.0540504 
        5.34073        0.156454       0.0536579 
        5.35646        0.156948       0.0532686 
        5.37218        0.159387       0.0528831 
        5.38789         0.16001        0.052502 
        5.40357         0.16125       0.0521252 
        5.41929        0.163247       0.0517512 
        5.43502        0.164683        0.051381 
         5.4507        0.166479       0.0510152 
        5.46639        0.167374        0.050653 
        5.48212        0.169457       0.0502935 
        5.49786        0.171129        0.049937 
        5.51353        0.172801       0.0495858 
        5.52921         0.17358       0.0492377 
        5.54495        0.176335       0.0488919 
        5.56066        0.177668       0.0485498 
        5.57637        0.179585       0.0482111 
        5.59207        0.181797       0.0478759 
        5.60778        0.183917       0.0475439 
        5.62346        0.185955       0.0472154 
        5.63916        0.188201       0.0468898 
        5.65487         0.18969        0.046567 
         5.6706        0.192121        0.046247 
        5.68633        0.193809       0.0459299 
        5.70203        0.195724       0.0456164 
        5.71773        0.198819        0.045306 
        5.73344        0.199919       0.0449982 
        5.74916        0.203081       0.0446931 
        5.76486        0.205462       0.0443912 
        5.78054        0.207134       0.0440926 
        5.79626        0.209659        0.043796 
          5.812        0.212658       0.0435018 
         5.8277        0.215144       0.0432111 
        5.84339        0.217186       0.0429232 
        5.85911        0.220532       0.0426373 
        5.87484        0.222649       0.0423541 
        5.89053        0.225851       0.0420741 
        5.90623        0.227889       0.0417965 
        5.92195        0.230293       0.0415209 
        5.93767        0.232788        0.041248 
        5.95336        0.236765        0.040978 
        5.96905        0.238517       0.0407106 
        5.98476        0.240614       0.0404451 
        6.00048        0.244927        0.040182 
        6.01617        0.246657       0.0399216 
        6.03185        0.250313       0.0396638 
        6.04756        0.253785       0.0394077 
        6.06331        0.255664       0.0391533 
        6.07903        0.258853       0.0389017 
        6.09473        0.261687       0.0386526 
        6.11044        0.265016       0.0384054 
        6.12616        0.266776       0.0381605 
        6.14186        0.271426        0.037918 
        6.15755        0.274088       0.0376776 
        6.17326        0.278052       0.0374391 
        6.18898         0.27973       0.0372026 
        6.20467        0.284402       0.0369685 
        6.22036        0.287194       0.0367366 
         6.2361        0.288816       0.0365059 
         6.2518        0.293707       0.0362777 
        6.26748         0.29565       0.0360519 
        6.28319        0.299516       0.0358275 
        6.29893        0.302694       0.0356047 
        6.31463        0.306116       0.0353843 
        6.33033        0.309347       0.0351658 
        6.34604        0.311965        0.034949 
        6.36177        0.315838       0.0347339 
        6.37747        0.320785       0.0345209 
