# k  (h/Mpc)    Pcb(k)  (Mpc/h)^3    Pcb_linear(k) (Mpc/h)^3   ShotnoiseSubtracted = true
      0.0200456         19.1454         19.4208 
      0.0350414         14.9638         14.9458 
      0.0492313         11.3361         11.2924 
      0.0637834         9.60647          9.6013 
      0.0800726         7.72813         7.73106 
       0.096163         5.75097         5.72496 
       0.111083         4.68034           4.665 
       0.126058         4.17094         4.17394 
       0.142273         3.54226         3.54317 
       0.158546         2.84395         2.83121 
        0.17375          2.4303         2.42629 
       0.188953         2.20969         2.21151 
       0.204907          1.9609         1.95497 
       0.220756         1.67029         1.66459 
        0.23588         1.47093         1.46634 
         0.2514         1.34123         1.34136 
       0.267535         1.21312         1.21365 
       0.283568         1.07581         1.07388 
       0.299022        0.967535        0.965084 
       0.314451        0.886022        0.887624 
       0.330372         0.81509        0.815408 
       0.346141        0.741906        0.741621 
       0.361624        0.679087        0.677856 
       0.377134         0.62849        0.626992 
       0.392932        0.579219        0.581615 
       0.408854        0.538224        0.537207 
       0.424564        0.496592        0.496967 
       0.440253        0.462872        0.462671 
       0.455999        0.433335        0.432287 
       0.471626        0.405219        0.403956 
        0.48727        0.377747        0.377647 
       0.502856        0.354004         0.35417 
       0.518488        0.334295        0.333025 
       0.534347        0.314993        0.313195 
       0.550082        0.295126        0.294887 
       0.565732         0.27738        0.278207 
       0.581496        0.263347        0.262859 
       0.597222        0.249375        0.248703 
       0.612804        0.236028        0.235645 
       0.628434        0.224421        0.223481 
       0.644267        0.212497        0.212094 
       0.660051        0.201754        0.201558 
       0.675724         0.19235        0.191804 
       0.691403        0.183482        0.182694 
       0.707174        0.174702         0.17413 
       0.722871        0.166141        0.166155 
        0.73838        0.159474        0.158769 
       0.754018        0.152699        0.151781 
       0.769845        0.146033        0.145142 
        0.78569        0.139508        0.138898 
       0.801365         0.13354        0.133088 
       0.817031        0.128164        0.127618 
       0.832809        0.122993        0.122425 
       0.848511        0.118058        0.117549 
       0.864097        0.113219        0.112975 
       0.879701        0.108824        0.108644 
       0.895507        0.105173        0.104492 
       0.911279        0.101054        0.100568 
        0.92691       0.0972217       0.0968808 
       0.942635       0.0938786       0.0933607 
       0.958396       0.0903833       0.0900104 
       0.974128       0.0872341       0.0868327 
       0.989692       0.0842722       0.0838419 
        1.00528       0.0815992       0.0809893 
        1.02113       0.0784857       0.0782264 
        1.03692       0.0759816       0.0756043 
        1.05264       0.0735577        0.073116 
        1.06832       0.0711952        0.070745 
        1.08405       0.0688245       0.0684743 
        1.09979       0.0666008       0.0663031 
        1.11537       0.0648301       0.0642488 
        1.13105       0.0627704       0.0622704 
        1.14679       0.0609683       0.0603688 
        1.16256       0.0588689       0.0585438 
        1.17828       0.0571482       0.0568013 
        1.19395        0.055461       0.0551365 
         1.2097       0.0538656       0.0535308 
        1.22537       0.0524843       0.0519975 
          1.241       0.0509593       0.0505298 
        1.25666       0.0495618       0.0491157 
        1.27241        0.048176       0.0477497 
        1.28819       0.0468646       0.0464341 
        1.30392       0.0455361       0.0451724 
        1.31957       0.0443899       0.0439638 
        1.33529       0.0431188       0.0427955 
        1.35108       0.0420846       0.0416656 
        1.36674       0.0408275        0.040585 
         1.3824       0.0400138       0.0395442 
        1.39811       0.0389285       0.0385368 
        1.41389       0.0379151       0.0375611 
        1.42964       0.0370919       0.0366213 
        1.44531       0.0360681       0.0357185 
        1.46101       0.0352482       0.0348446 
        1.47667       0.0343407       0.0340029 
        1.49229       0.0335327       0.0331915 
        1.50793       0.0327229        0.032406 
        1.52367       0.0319776       0.0316412 
        1.53953       0.0313178       0.0308962 
        1.55526       0.0305856       0.0301814 
        1.57092        0.029777       0.0294924 
        1.58662       0.0291829       0.0288235 
        1.60235       0.0285952       0.0281743 
        1.61809        0.027856       0.0275449 
        1.63369       0.0272914       0.0269407 
        1.64941       0.0267442       0.0263504 
        1.66519       0.0261412       0.0257758 
        1.68085       0.0255441       0.0252227 
        1.69652       0.0249858       0.0246858 
        1.71228       0.0245492       0.0241616 
        1.72806        0.023944       0.0236524 
        1.74368       0.0235039       0.0231632 
        1.75933       0.0230379       0.0226869 
        1.77505       0.0225479        0.022222 
        1.79081       0.0221252       0.0217694 
         1.8065       0.0216353       0.0213315 
        1.82218       0.0212445       0.0209061 
        1.83797       0.0208155       0.0204896 
        1.85367        0.020402       0.0200868 
        1.86928       0.0200531       0.0196973 
        1.88497       0.0196748       0.0193162 
        1.90073       0.0193073       0.0189439 
        1.91647       0.0188781       0.0185818 
        1.93218       0.0185254         0.01823 
        1.94787       0.0181868       0.0178879 
        1.96363       0.0178904       0.0175534 
        1.97935       0.0175377       0.0172282 
        1.99499        0.017225       0.0169131 
        2.01064        0.016957       0.0166056 
         2.0264       0.0166564       0.0163038 
        2.04216       0.0163149       0.0160098 
        2.05781       0.0160526       0.0157249 
        2.07353       0.0157331        0.015446 
        2.08928       0.0154879       0.0151734 
        2.10499       0.0151702       0.0149081 
        2.12065       0.0149564         0.01465 
        2.13633       0.0146814       0.0143979 
        2.15211       0.0144771       0.0141501 
        2.16785        0.014245       0.0139089 
        2.18349       0.0139548       0.0136749 
        2.19916       0.0137789       0.0134458 
        2.21489       0.0135632       0.0132213 
        2.23063       0.0133095       0.0130018 
         2.2463       0.0130594       0.0127883 
        2.26194       0.0128625       0.0125802 
        2.27765       0.0126672       0.0123757 
        2.29341       0.0124849       0.0121753 
        2.30914        0.012275       0.0119797 
        2.32486       0.0120901       0.0117886 
        2.34061       0.0119038       0.0116014 
        2.35635       0.0116987       0.0114184 
        2.37203       0.0115266       0.0112401 
        2.38768       0.0113301        0.011066 
        2.40339         0.01117       0.0108949 
        2.41914       0.0110214       0.0107272 
        2.43483       0.0108147       0.0105635 
         2.4505       0.0106854       0.0104036 
        2.46622       0.0105335       0.0102465 
        2.48195       0.0103528       0.0100927 
        2.49759       0.0102026      0.00994284 
        2.51328       0.0100936      0.00979569 
        2.52906      0.00994104       0.0096506 
        2.54479      0.00979917      0.00950902 
        2.56049       0.0096578      0.00937058 
        2.57618      0.00952058      0.00923504 
        2.59189      0.00937938        0.009102 
        2.60758      0.00924363      0.00897182 
        2.62325      0.00911821      0.00884436 
        2.63898      0.00898128      0.00871896 
        2.65468      0.00887432      0.00859627 
        2.67044      0.00875861      0.00847544 
        2.68618      0.00863592      0.00835723 
        2.70184      0.00850872      0.00824176 
        2.71755      0.00839203      0.00812821 
        2.73329      0.00827427      0.00801665 
        2.74897        0.008194      0.00790756 
        2.76462      0.00806397      0.00780075 
        2.78034      0.00795419       0.0076955 
        2.79607      0.00786037       0.0075921 
        2.81179      0.00775924      0.00749073 
        2.82749      0.00765499      0.00739134 
        2.84321      0.00755353      0.00729365 
        2.85893      0.00744986      0.00719778 
        2.87462      0.00735566      0.00710381 
        2.89033      0.00728908      0.00701145 
        2.90605      0.00718367      0.00692066 
        2.92176      0.00711246      0.00683154 
        2.93747      0.00700113      0.00674405 
        2.95318      0.00691993      0.00665808 
        2.96891      0.00684427      0.00657359 
        2.98456       0.0067713      0.00649095 
        3.00023      0.00666936      0.00640962 
        3.01596      0.00657284      0.00632944 
        3.03164      0.00652339      0.00625088 
        3.04738      0.00643201      0.00617343 
         3.0631      0.00633909      0.00609733 
        3.07883      0.00627271      0.00602252 
        3.09456      0.00621758      0.00594899 
        3.11026      0.00613287      0.00587681 
        3.12596      0.00606225      0.00580584 
        3.14163       0.0059845      0.00573622 
        3.15734      0.00591822      0.00566759 
        3.17308      0.00584191      0.00559992 
        3.18879      0.00579576      0.00553356 
        3.20447      0.00572223      0.00546837 
         3.2202      0.00565998      0.00540405 
         3.2359      0.00559105      0.00534088 
        3.25157      0.00552886      0.00527887 
        3.26729      0.00548378      0.00521768 
        3.28304      0.00540903      0.00515734 
        3.29877       0.0053531      0.00509804 
        3.31446       0.0052969      0.00503981 
        3.33014      0.00523311      0.00498255 
        3.34585      0.00516352       0.0049261 
        3.36158      0.00512161      0.00487044 
        3.37727       0.0050671      0.00481583 
        3.39294      0.00502034      0.00476211 
        3.40867      0.00497001      0.00470902 
        3.42439      0.00491035      0.00465678 
        3.44008      0.00486279      0.00460544 
        3.45578       0.0048009      0.00455484 
        3.47153      0.00476284       0.0045049 
        3.48724      0.00471612       0.0044558 
        3.50292      0.00464826      0.00440755 
        3.51859      0.00460684      0.00436005 
        3.53431      0.00456883       0.0043131 
        3.55007       0.0045336      0.00426673 
        3.56577       0.0044889      0.00422124 
        3.58146      0.00442058      0.00417643 
        3.59719      0.00438051      0.00413218 
        3.61292      0.00433717      0.00408858 
        3.62859      0.00430455      0.00404579 
        3.64429      0.00425285      0.00400353 
        3.66003      0.00421828      0.00396175 
        3.67578      0.00417574      0.00392058 
        3.69146      0.00413527      0.00388016 
        3.70712      0.00410228      0.00384039 
        3.72284       0.0040563      0.00380103 
        3.73853      0.00401919       0.0037623 
        3.75422      0.00398413       0.0037241 
        3.76993      0.00394045       0.0036864 
        3.78564      0.00391823      0.00364924 
        3.80137      0.00387989      0.00361253 
        3.81707      0.00384014      0.00357641 
        3.83279      0.00380608      0.00354076 
        3.84853      0.00377299      0.00350554 
        3.86424      0.00372929      0.00347088 
        3.87992      0.00370075      0.00343674 
        3.89561      0.00366988      0.00340305 
        3.91134      0.00364185      0.00336976 
        3.92704      0.00359795      0.00333695 
        3.94273       0.0035848      0.00330462 
        3.95845      0.00353387      0.00327265 
        3.97418       0.0034998      0.00324111 
        3.98988      0.00348984      0.00321003 
        4.00554      0.00345065      0.00317944 
        4.02125      0.00341025      0.00314917 
        4.03698      0.00337412      0.00311925 
        4.05268      0.00334474      0.00308979 
        4.06839       0.0033195      0.00306069 
         4.0841      0.00328436      0.00303197 
        4.09983       0.0032613      0.00300359 
        4.11555      0.00324209      0.00297559 
        4.13124      0.00320743      0.00294802 
        4.14693      0.00318938      0.00292078 
        4.16266      0.00315708      0.00289382 
        4.17839      0.00313732      0.00286722 
        4.19408      0.00311331      0.00284103 
        4.20977      0.00310017      0.00281514 
        4.22551      0.00307652      0.00278953 
        4.24123      0.00305407      0.00276425 
        4.25691      0.00303367      0.00273937 
        4.27259      0.00301066      0.00271478 
        4.28831      0.00300096      0.00269045 
        4.30404      0.00298018       0.0026664 
        4.31974      0.00296301      0.00264269 
        4.33543      0.00294348      0.00261929 
        4.35116      0.00292924      0.00259612 
        4.36688      0.00291015      0.00257324 
        4.38255      0.00290461      0.00255072 
        4.39825      0.00288939      0.00252843 
        4.41398      0.00287521      0.00250636 
         4.4297      0.00286574      0.00248458 
        4.44541      0.00285606      0.00246306 
        4.46111      0.00284206      0.00244182 
        4.47683      0.00283696      0.00242081 
        4.49251      0.00282447       0.0024001 
        4.50819      0.00281913      0.00237963 
         4.5239      0.00281627      0.00235938 
        4.53962      0.00280899      0.00233934 
        4.55535      0.00280368      0.00231952 
        4.57106      0.00280146      0.00229996 
        4.58678      0.00279642      0.00228063 
         4.6025       0.0027963      0.00226151 
        4.61821      0.00279893      0.00224262 
        4.63391      0.00279329      0.00222397 
         4.6496      0.00280034      0.00220555 
        4.66532        0.002791       0.0021873 
        4.68103      0.00279485      0.00216927 
        4.69673      0.00279417      0.00215146 
        4.71241      0.00280477      0.00213387 
        4.72811      0.00281037      0.00211645 
        4.74384      0.00281205      0.00209921 
        4.75955      0.00281789      0.00208218 
        4.77525      0.00282818      0.00206536 
        4.79096      0.00283753       0.0020487 
        4.80669      0.00284085      0.00203221 
         4.8224      0.00285267      0.00201593 
        4.83809      0.00286446      0.00199985 
        4.85379      0.00288835      0.00198393 
         4.8695      0.00289488      0.00196818 
        4.88521      0.00289676       0.0019526 
        4.90093      0.00292913      0.00193719 
        4.91663      0.00293588      0.00192196 
        4.93234      0.00295302      0.00190689 
        4.94807      0.00298385      0.00189196 
        4.96377      0.00300789      0.00187722 
        4.97943      0.00302378      0.00186267 
        4.99514      0.00305644      0.00184824 
        5.01086      0.00306067      0.00183396 
        5.02654       0.0030855      0.00181986 
        5.04227      0.00311206      0.00180587 
          5.058       0.0031397      0.00179202 
        5.07371      0.00318104      0.00177834 
        5.08942      0.00320741      0.00176481 
        5.10513      0.00322483      0.00175142 
        5.12084      0.00326772      0.00173816 
        5.13656      0.00329029      0.00172504 
        5.15225      0.00333822      0.00171208 
        5.16796      0.00336979      0.00169923 
        5.18369      0.00341506      0.00168651 
         5.1994      0.00346063      0.00167394 
        5.21509      0.00348569       0.0016615 
        5.23079      0.00352045      0.00164919 
        5.24649      0.00358338        0.001637 
        5.26217      0.00362294      0.00162495 
        5.27788      0.00367259      0.00161301 
        5.29359      0.00371684      0.00160118 
        5.30933      0.00377054      0.00158946 
        5.32504      0.00382548      0.00157787 
        5.34073      0.00389349      0.00156641 
        5.35646      0.00393584      0.00155505 
        5.37218       0.0039878      0.00154379 
        5.38789        0.004049      0.00153267 
        5.40357      0.00410508      0.00152167 
        5.41929      0.00416757      0.00151075 
        5.43502      0.00424565      0.00149994 
         5.4507        0.004322      0.00148927 
        5.46639      0.00438623      0.00147869 
        5.48212      0.00444514       0.0014682 
        5.49786      0.00455989      0.00145779 
        5.51353      0.00460565      0.00144754 
        5.52921       0.0046533      0.00143738 
        5.54495       0.0047614      0.00142728 
        5.56066      0.00485298       0.0014173 
        5.57637      0.00493452      0.00140741 
        5.59207      0.00502548      0.00139762 
        5.60778      0.00512741      0.00138793 
        5.62346      0.00520481      0.00137834 
        5.63916      0.00529726      0.00136883 
        5.65487       0.0054067      0.00135941 
         5.6706      0.00549848      0.00135007 
        5.68633      0.00562467      0.00134081 
        5.70203      0.00572405      0.00133166 
        5.71773      0.00587115       0.0013226 
        5.73344      0.00594633      0.00131362 
        5.74916      0.00607805      0.00130471 
        5.76486      0.00621054       0.0012959 
        5.78054      0.00634413      0.00128718 
        5.79626      0.00645194      0.00127852 
          5.812      0.00662617      0.00126993 
         5.8277      0.00672296      0.00126145 
        5.84339      0.00693869      0.00125304 
        5.85911      0.00703162       0.0012447 
        5.87484      0.00720101      0.00123643 
        5.89053      0.00736392      0.00122825 
        5.90623      0.00757988      0.00122015 
        5.92195      0.00770032       0.0012121 
        5.93767      0.00784143      0.00120414 
        5.95336      0.00803408      0.00119626 
        5.96905      0.00825584      0.00118845 
        5.98476      0.00840706       0.0011807 
        6.00048      0.00861769      0.00117302 
        6.01617      0.00881278      0.00116541 
        6.03185      0.00898729      0.00115789 
        6.04756      0.00925068      0.00115041 
        6.06331      0.00947661      0.00114299 
        6.07903      0.00965984      0.00113564 
        6.09473      0.00994328      0.00112837 
        6.11044       0.0101891      0.00112116 
        6.12616       0.0103792      0.00111401 
        6.14186       0.0106165      0.00110692 
        6.15755       0.0109151      0.00109991 
        6.17326       0.0112417      0.00109295 
        6.18898       0.0114996      0.00108604 
        6.20467       0.0117687      0.00107921 
        6.22036          0.0121      0.00107244 
         6.2361       0.0123948       0.0010657 
         6.2518       0.0126803      0.00105904 
        6.26748        0.013005      0.00105245 
        6.28319       0.0133899       0.0010459 
        6.29893       0.0136745       0.0010394 
        6.31463       0.0140735      0.00103296 
        6.33033       0.0144675      0.00102658 
        6.34604       0.0147425      0.00102025 
        6.36177       0.0152064      0.00101397 
        6.37747       0.0157055      0.00100776 
