# k  (h/Mpc)    Pcb(k)  (Mpc/h)^3    Pcb_linear(k) (Mpc/h)^3   ShotnoiseSubtracted = true
      0.0200456         2588.77         2631.66 
      0.0350414         1999.23         2025.27 
      0.0492313         1530.18          1530.2 
      0.0637834         1314.75         1301.05 
      0.0800726         1057.29         1047.61 
       0.096163         768.372         775.773 
       0.111083         621.263         632.141 
       0.126058         568.466         565.599 
       0.142273         487.466         480.125 
       0.158546          394.66         383.649 
        0.17375         329.049         328.779 
       0.188953         307.975         299.676 
       0.204907         284.391         264.913 
       0.220756         238.566         225.564 
        0.23588         210.166           198.7 
         0.2514         188.626         181.763 
       0.267535         174.822         164.458 
       0.283568         157.394         145.518 
       0.299022         143.967         130.776 
       0.314451         130.026         120.279 
       0.330372         121.209         110.494 
       0.346141          110.15         100.495 
       0.361624         102.959         91.8543 
       0.377134         97.2811         84.9619 
       0.392932         86.8621          78.813 
       0.408854         83.8389         72.7954 
       0.424564         79.5116         67.3426 
       0.440253         73.5095         62.6952 
       0.455999         69.6159          58.578 
       0.471626         65.0743         54.7389 
        0.48727          62.463         51.1739 
       0.502856         58.8085         47.9925 
       0.518488         56.4214         45.1272 
       0.534347         54.2496         42.4402 
       0.550082         49.8659         39.9593 
       0.565732         46.8342         37.6991 
       0.581496          45.807         35.6193 
       0.597222         44.3621         33.7011 
       0.612804         41.5496         31.9316 
       0.628434         40.2173         30.2832 
       0.644267          39.244         28.7403 
       0.660051         37.3545         27.3125 
       0.675724         35.5394         25.9908 
       0.691403         34.4395         24.7563 
       0.707174         33.4224         23.5959 
       0.722871         32.0872         22.5152 
        0.73838         31.0847         21.5144 
       0.754018         29.8544         20.5675 
       0.769845         28.9847         19.6678 
        0.78569         28.1213         18.8217 
       0.801365         27.1088         18.0343 
       0.817031         26.4839         17.2931 
       0.832809         25.9611         16.5895 
       0.848511         24.4079         15.9287 
       0.864097         24.0036         15.3089 
       0.879701         23.4524          14.722 
       0.895507         22.7762         14.1594 
       0.911279         22.1907         13.6277 
        0.92691         21.6132          13.128 
       0.942635         20.7768          12.651 
       0.958396          20.364         12.1971 
       0.974128         19.8032         11.7665 
       0.989692         19.6522         11.3612 
        1.00528         19.1059         10.9746 
        1.02113         18.3555         10.6002 
        1.03692         18.0046         10.2449 
        1.05264         17.6205         9.90774 
        1.06832         17.2718         9.58646 
        1.08405         16.7544         9.27875 
        1.09979         16.4241         8.98454 
        1.11537         16.1591         8.70618 
        1.13105         15.8135         8.43809 
        1.14679         15.5718          8.1804 
        1.16256         15.0592         7.93311 
        1.17828         15.0215         7.69699 
        1.19395         14.4825         7.47139 
         1.2097         14.2742          7.2538 
        1.22537          13.915         7.04604 
          1.241         13.7481         6.84715 
        1.25666         13.4869         6.65553 
        1.27241         13.1568         6.47043 
        1.28819         12.9134         6.29215 
        1.30392         12.8027         6.12119 
        1.31957         12.5558         5.95741 
        1.33529         12.3528          5.7991 
        1.35108         12.0239         5.64599 
        1.36674           11.98         5.49956 
         1.3824          11.629         5.35852 
        1.39811         11.4746         5.22202 
        1.41389         11.3149          5.0898 
        1.42964         11.1812         4.96244 
        1.44531         11.0143         4.84011 
        1.46101         10.7545         4.72169 
        1.47667         10.6138         4.60763 
        1.49229          10.497         4.49769 
        1.50793         10.2737         4.39125 
        1.52367         10.1461         4.28761 
        1.53953          9.9884         4.18665 
        1.55526         9.84569         4.08979 
        1.57092         9.77182         3.99643 
        1.58662         9.58117         3.90579 
        1.60235         9.45519         3.81782 
        1.61809         9.31369         3.73254 
        1.63369         9.16938         3.65065 
        1.64941         9.06891         3.57066 
        1.66519         8.97388         3.49281 
        1.68085          8.8183         3.41785 
        1.69652         8.68047          3.3451 
        1.71228          8.5764         3.27407 
        1.72806         8.50343         3.20507 
        1.74368         8.34164         3.13878 
        1.75933         8.27841         3.07424 
        1.77505         8.16163         3.01124 
        1.79081         7.99611         2.94991 
         1.8065         7.96469         2.89057 
        1.82218         7.84761         2.83293 
        1.83797         7.79403         2.77648 
        1.85367         7.65201          2.7219 
        1.86928         7.62889         2.66913 
        1.88497         7.47639         2.61749 
        1.90073         7.37611         2.56703 
        1.91647          7.3336         2.51796 
        1.93218         7.24988          2.4703 
        1.94787          7.1575         2.42394 
        1.96363         7.09011         2.37861 
        1.97935         6.98905         2.33454 
        1.99499         6.88199         2.29185 
        2.01064         6.82886         2.25017 
         2.0264         6.74953         2.20928 
        2.04216         6.69986         2.16944 
        2.05781         6.61248         2.13084 
        2.07353         6.53592         2.09305 
        2.08928         6.49756          2.0561 
        2.10499         6.43262         2.02015 
        2.12065         6.35878         1.98518 
        2.13633         6.29643         1.95101 
        2.15211         6.20528         1.91744 
        2.16785          6.1374         1.88475 
        2.18349         6.08678         1.85305 
        2.19916         6.00523         1.82201 
        2.21489          5.9646         1.79158 
        2.23063         5.90016         1.76184 
         2.2463         5.84427         1.73291 
        2.26194         5.76632         1.70471 
        2.27765          5.7495           1.677 
        2.29341         5.66588         1.64983 
        2.30914         5.62859         1.62334 
        2.32486         5.55598         1.59744 
        2.34061         5.53921         1.57207 
        2.35635         5.45947         1.54728 
        2.37203          5.4258         1.52311 
        2.38768         5.36704         1.49952 
        2.40339         5.32115         1.47634 
        2.41914         5.24348         1.45361 
        2.43483         5.23826         1.43144 
         2.4505          5.1563         1.40977 
        2.46622         5.13703         1.38848 
        2.48195         5.06909         1.36763 
        2.49759         5.04881         1.34733 
        2.51328         4.99761         1.32739 
        2.52906         4.97752         1.30773 
        2.54479         4.90512         1.28854 
        2.56049            4.88         1.26978 
        2.57618         4.81042         1.25141 
        2.59189           4.802         1.23339 
        2.60758         4.75467         1.21575 
        2.62325         4.70896         1.19847 
        2.63898         4.65038         1.18148 
        2.65468         4.62223         1.16486 
        2.67044         4.58243         1.14848 
        2.68618         4.55908         1.13246 
        2.70184         4.50268         1.11682 
        2.71755         4.48101         1.10143 
        2.73329         4.44115         1.08631 
        2.74897         4.42594         1.07153 
        2.76462          4.3745         1.05706 
        2.78034         4.33172          1.0428 
        2.79607         4.29112         1.02878 
        2.81179         4.27411         1.01505 
        2.82749         4.22474         1.00158 
        2.84321         4.19745        0.988343 
        2.85893         4.17685        0.975351 
        2.87462         4.14224        0.962618 
        2.89033          4.1088        0.950102 
        2.90605         4.07611        0.937799 
        2.92176         4.03434        0.925723 
        2.93747         4.01197        0.913867 
        2.95318         3.97939        0.902218 
        2.96891         3.96295        0.890769 
        2.98456         3.92326         0.87957 
        3.00023         3.89177         0.86855 
        3.01596         3.86423        0.857685 
        3.03164         3.83579        0.847039 
        3.04738         3.80935        0.836544 
         3.0631         3.77982        0.826232 
        3.07883         3.75973        0.816095 
        3.09456         3.72191        0.806131 
        3.11026         3.69859         0.79635 
        3.12596         3.67192        0.786733 
        3.14163         3.63584        0.777299 
        3.15734         3.61407        0.767999 
        3.17308         3.59768         0.75883 
        3.18879         3.57385        0.749837 
        3.20447         3.55671        0.741004 
         3.2202         3.51673        0.732287 
         3.2359         3.50553        0.723727 
        3.25157         3.47807        0.715325 
        3.26729         3.43841        0.707032 
        3.28304         3.43396        0.698856 
        3.29877         3.40884        0.690821 
        3.31446         3.37604         0.68293 
        3.33014         3.36097        0.675171 
        3.34585         3.34141        0.667521 
        3.36158         3.32109         0.65998 
        3.37727         3.28787        0.652579 
        3.39294         3.27336          0.6453 
        3.40867         3.24057        0.638107 
        3.42439         3.23162        0.631028 
        3.44008         3.20567        0.624071 
        3.45578         3.19554        0.617214 
        3.47153         3.16806        0.610446 
        3.48724         3.15041        0.603793 
        3.50292         3.13549        0.597255 
        3.51859         3.10535        0.590818 
        3.53431         3.08639        0.584456 
        3.55007         3.07321        0.578173 
        3.56577         3.04534        0.572008 
        3.58146         3.03649        0.565936 
        3.59719         3.01883         0.55994 
        3.61292         2.99804        0.554032 
        3.62859         2.97241        0.548233 
        3.64429         2.95414        0.542507 
        3.66003         2.94498        0.536845 
        3.67578         2.91996        0.531267 
        3.69146         2.89964         0.52579 
        3.70712         2.87948        0.520401 
        3.72284         2.86522        0.515067 
        3.73853         2.84799        0.509819 
        3.75422         2.83103        0.504642 
        3.76993         2.81099        0.499533 
        3.78564         2.79528        0.494498 
        3.80137         2.77756        0.489524 
        3.81707         2.75643         0.48463 
        3.83279         2.74095        0.479799 
        3.84853         2.73483        0.475026 
        3.86424         2.70667        0.470329 
        3.87992         2.69916        0.465702 
        3.89561         2.67447        0.461138 
        3.91134         2.66943        0.456627 
        3.92704         2.64475        0.452181 
        3.94273          2.6347        0.447799 
        3.95845         2.61739        0.443468 
        3.97418         2.59997        0.439194 
        3.98988         2.57696        0.434982 
        4.00554         2.55503        0.430837 
        4.02125         2.55553        0.426735 
        4.03698         2.53248        0.422681 
        4.05268         2.51974        0.418688 
        4.06839         2.50397        0.414745 
         4.0841         2.48905        0.410854 
        4.09983         2.46992        0.407008 
        4.11555         2.45701        0.403213 
        4.13124         2.44907        0.399478 
        4.14693         2.42397        0.395786 
        4.16266          2.4113        0.392134 
        4.17839         2.39406         0.38853 
        4.19408         2.37981        0.384979 
        4.20977         2.36732        0.381472 
        4.22551         2.34947        0.378001 
        4.24123         2.33807        0.374576 
        4.25691         2.32158        0.371204 
        4.27259         2.30718        0.367873 
        4.28831         2.29632        0.364576 
        4.30404         2.28164        0.361316 
        4.31974         2.26694        0.358104 
        4.33543         2.25929        0.354933 
        4.35116         2.24594        0.351793 
        4.36688         2.22706        0.348693 
        4.38255         2.21296        0.345641 
        4.39825         2.20029         0.34262 
        4.41398         2.18563         0.33963 
         4.4297         2.18218        0.336678 
        4.44541         2.16454        0.333762 
        4.46111         2.15161        0.330884 
        4.47683         2.14097        0.328037 
        4.49251         2.12699         0.32523 
        4.50819         2.11761        0.322457 
         4.5239         2.10667        0.319713 
        4.53962         2.09648        0.316997 
        4.55535         2.08272        0.314311 
        4.57106           2.075        0.311661 
        4.58678         2.05963        0.309041 
         4.6025         2.04875        0.306451 
        4.61821         2.03679        0.303891 
        4.63391         2.02511        0.301364 
         4.6496         2.02057        0.298867 
        4.66532         2.00838        0.296395 
        4.68103         1.99961        0.293952 
        4.69673         1.98621        0.291539 
        4.71241         1.97483        0.289155 
        4.72811         1.96829        0.286795 
        4.74384         1.95574        0.284458 
        4.75955         1.94704        0.282151 
        4.77525         1.93344        0.279871 
        4.79096         1.92661        0.277613 
        4.80669         1.91293         0.27538 
         4.8224         1.91108        0.273173 
        4.83809          1.8985        0.270994 
        4.85379         1.88739        0.268837 
         4.8695         1.87958        0.266702 
        4.88521         1.87145        0.264591 
        4.90093           1.857        0.262503 
        4.91663         1.85137         0.26044 
        4.93234         1.84519        0.258397 
        4.94807         1.83114        0.256374 
        4.96377         1.82397        0.254377 
        4.97943         1.81712        0.252406 
        4.99514         1.80593         0.25045 
        5.01086         1.79939        0.248514 
        5.02654         1.78949        0.246604 
        5.04227         1.78393        0.244708 
          5.058         1.77344        0.242832 
        5.07371         1.76664        0.240979 
        5.08942         1.75574        0.239145 
        5.10513         1.74674         0.23733 
        5.12084         1.74204        0.235533 
        5.13656         1.73225        0.233755 
        5.15225         1.72633        0.231999 
        5.16796          1.7155        0.230258 
        5.18369         1.71089        0.228534 
         5.1994         1.70261         0.22683 
        5.21509         1.69369        0.225146 
        5.23079         1.68906        0.223477 
        5.24649         1.68281        0.221826 
        5.26217         1.66943        0.220193 
        5.27788         1.66386        0.218574 
        5.29359         1.66247        0.216972 
        5.30933         1.65188        0.215383 
        5.32504         1.64378        0.213813 
        5.34073         1.64013         0.21226 
        5.35646         1.63331         0.21072 
        5.37218         1.62321        0.209195 
        5.38789         1.61468        0.207688 
        5.40357         1.60761        0.206197 
        5.41929         1.60051        0.204718 
        5.43502         1.59574        0.203253 
         5.4507         1.58645        0.201806 
        5.46639         1.58014        0.200373 
        5.48212         1.57542        0.198951 
        5.49786         1.56742        0.197541 
        5.51353         1.55979        0.196152 
        5.52921         1.55449        0.194775 
        5.54495         1.54662        0.193407 
        5.56066         1.54371        0.192054 
        5.57637         1.53507        0.190714 
        5.59207         1.53169        0.189388 
        5.60778         1.52017        0.188074 
        5.62346         1.51751        0.186775 
        5.63916         1.51336        0.185487 
        5.65487         1.50348         0.18421 
         5.6706          1.4982        0.182944 
        5.68633         1.49325         0.18169 
        5.70203         1.48877         0.18045 
        5.71773         1.48088        0.179222 
        5.73344         1.47243        0.178004 
        5.74916         1.46869        0.176797 
        5.76486         1.46269        0.175603 
        5.78054         1.45857        0.174422 
        5.79626         1.45363        0.173248 
          5.812         1.44689        0.172085 
         5.8277         1.44129        0.170935 
        5.84339         1.43453        0.169796 
        5.85911         1.43092        0.168665 
        5.87484         1.42866        0.167545 
        5.89053          1.4199        0.166437 
        5.90623         1.41338        0.165339 
        5.92195         1.40983        0.164249 
        5.93767         1.40422        0.163169 
        5.95336         1.39747        0.162101 
        5.96905         1.39175        0.161043 
        5.98476         1.38792        0.159993 
        6.00048         1.38143        0.158952 
        6.01617         1.37732        0.157922 
        6.03185         1.37138        0.156902 
        6.04756         1.36619        0.155889 
        6.06331         1.36284        0.154883 
        6.07903         1.35847        0.153888 
        6.09473         1.35331        0.152902 
        6.11044           1.349        0.151925 
        6.12616         1.34083        0.150956 
        6.14186         1.33677        0.149996 
        6.15755         1.33555        0.149045 
        6.17326         1.32989        0.148102 
        6.18898         1.32736        0.147166 
        6.20467         1.32019         0.14624 
        6.22036          1.3133        0.145323 
         6.2361         1.31153        0.144411 
         6.2518           1.307        0.143508 
        6.26748         1.30117        0.142615 
        6.28319         1.29486        0.141727 
        6.29893         1.29208        0.140846 
        6.31463         1.28593        0.139973 
        6.33033         1.28107        0.139109 
        6.34604         1.27633        0.138252 
        6.36177         1.27408          0.1374 
        6.37747         1.27033        0.136558 
