# k  (h/Mpc)    Pcb(k)  (Mpc/h)^3    Pcb_linear(k) (Mpc/h)^3   ShotnoiseSubtracted = true
      0.0200456         293.223         297.325 
      0.0350414         230.338         228.815 
      0.0492313         173.461         172.883 
      0.0637834         146.111         146.992 
      0.0800726         117.476          118.36 
       0.096163         88.5171         87.6469 
       0.111083          72.331         71.4194 
       0.126058         63.5954         63.9014 
       0.142273         53.8972         54.2445 
       0.158546         43.4919         43.3447 
        0.17375         37.4863         37.1455 
       0.188953         33.8874         33.8574 
       0.204907         29.5162         29.9298 
       0.220756         25.5348         25.4843 
        0.23588         22.4924         22.4491 
         0.2514         20.5592         20.5356 
       0.267535         18.6593         18.5805 
       0.283568         16.5102         16.4407 
       0.299022         14.8689         14.7751 
       0.314451         13.8251         13.5892 
       0.330372         12.5932         12.4836 
       0.346141         11.4682         11.3539 
       0.361624         10.4626         10.3777 
       0.377134         9.64358           9.599 
       0.392932         9.14202          8.9043 
       0.408854         8.30106         8.22443 
       0.424564         7.80826         7.60837 
       0.440253         7.20295         7.08331 
       0.455999         6.66309         6.61814 
       0.471626         6.23412         6.18441 
        0.48727         5.92802         5.78163 
       0.502856         5.56484          5.4222 
       0.518488         5.15568         5.09848 
       0.534347         4.82797          4.7949 
       0.550082         4.61406         4.51461 
       0.565732         4.40017         4.25924 
       0.581496         4.12705         4.02427 
       0.597222         3.89975         3.80755 
       0.612804         3.68811         3.60763 
       0.628434         3.51097          3.4214 
       0.644267         3.34981         3.24708 
       0.660051         3.18455         3.08577 
       0.675724         3.00804         2.93644 
       0.691403         2.87445         2.79697 
       0.707174         2.74048         2.66586 
       0.722871         2.66676         2.54376 
        0.73838          2.4966          2.4307 
       0.754018         2.38862         2.32371 
       0.769845         2.26514         2.22207 
        0.78569         2.19764         2.12648 
       0.801365         2.10976         2.03752 
       0.817031         2.03143         1.95378 
       0.832809         1.93159         1.87428 
       0.848511         1.86535         1.79963 
       0.864097         1.80208         1.72961 
       0.879701         1.74424          1.6633 
       0.895507         1.65752         1.59973 
       0.911279         1.60898         1.53965 
        0.92691         1.56339         1.48321 
       0.942635          1.4854         1.42932 
       0.958396         1.43824         1.37802 
       0.974128         1.39207         1.32938 
       0.989692          1.3432         1.28359 
        1.00528         1.29274         1.23992 
        1.02113         1.26364         1.19762 
        1.03692         1.22453         1.15747 
        1.05264         1.17281         1.11938 
        1.06832         1.14049         1.08308 
        1.08405         1.09828         1.04831 
        1.09979          1.0712         1.01507 
        1.11537         1.03226        0.983625 
        1.13105        0.995022        0.953337 
        1.14679        0.973056        0.924223 
        1.16256        0.945541        0.896284 
        1.17828        0.921777        0.869606 
        1.19395        0.893545        0.844118 
         1.2097        0.865305        0.819535 
        1.22537        0.837538        0.796062 
          1.241        0.816858        0.773591 
        1.25666        0.800567        0.751942 
        1.27241        0.774592         0.73103 
        1.28819        0.750961        0.710888 
        1.30392        0.734112        0.691572 
        1.31957        0.714021        0.673069 
        1.33529        0.694499        0.655183 
        1.35108        0.675612        0.637884 
        1.36674        0.657664        0.621341 
         1.3824        0.645263        0.605406 
        1.39811        0.625506        0.589984 
        1.41389        0.612799        0.575047 
        1.42964          0.5968        0.560657 
        1.44531        0.581596        0.546836 
        1.46101        0.564938        0.533457 
        1.47667        0.554224        0.520571 
        1.49229        0.538401         0.50815 
        1.50793        0.528447        0.496124 
        1.52367        0.513308        0.484415 
        1.53953        0.501746        0.473009 
        1.55526        0.491575        0.462065 
        1.57092        0.484655        0.451517 
        1.58662        0.472749        0.441276 
        1.60235        0.461249        0.431337 
        1.61809        0.449291        0.421703 
        1.63369        0.438724        0.412451 
        1.64941        0.431048        0.403414 
        1.66519        0.422965        0.394618 
        1.68085         0.41136        0.386149 
        1.69652        0.403506         0.37793 
        1.71228        0.394462        0.369905 
        1.72806        0.387366         0.36211 
        1.74368        0.379101        0.354619 
        1.75933        0.372201        0.347328 
        1.77505        0.365545         0.34021 
        1.79081         0.35524        0.333281 
         1.8065          0.3506        0.326577 
        1.82218        0.341298        0.320065 
        1.83797         0.33349        0.313687 
        1.85367        0.328993        0.307521 
        1.86928        0.321615        0.301559 
        1.88497        0.314718        0.295724 
        1.90073        0.309365        0.290023 
        1.91647        0.304724         0.28448 
        1.93218        0.299888        0.279094 
        1.94787        0.292186        0.273858 
        1.96363        0.287332        0.268736 
        1.97935        0.281947        0.263757 
        1.99499        0.276325        0.258933 
        2.01064        0.271926        0.254225 
         2.0264        0.266857        0.249605 
        2.04216        0.261181        0.245103 
        2.05781        0.257092        0.240742 
        2.07353        0.253139        0.236473 
        2.08928        0.249086        0.232298 
        2.10499        0.243461        0.228237 
        2.12065        0.239738        0.224286 
        2.13633        0.235919        0.220426 
        2.15211        0.231908        0.216632 
        2.16785         0.22732         0.21294 
        2.18349        0.224278        0.209357 
        2.19916        0.219319         0.20585 
        2.21489        0.215691        0.202413 
        2.23063        0.212155        0.199053 
         2.2463        0.209284        0.195784 
        2.26194        0.206278        0.192598 
        2.27765        0.202199        0.189467 
        2.29341         0.19872        0.186398 
        2.30914        0.195152        0.183405 
        2.32486        0.192137        0.180479 
        2.34061        0.189209        0.177613 
        2.35635        0.186164        0.174812 
        2.37203        0.185178        0.172081 
        2.38768        0.180609        0.169416 
        2.40339        0.178189        0.166797 
        2.41914        0.175059        0.164229 
        2.43483        0.172736        0.161724 
         2.4505        0.169694        0.159276 
        2.46622        0.167394         0.15687 
        2.48195        0.164883        0.154515 
        2.49759        0.162887        0.152221 
        2.51328        0.158765        0.149968 
        2.52906        0.157276        0.147747 
        2.54479        0.155133        0.145579 
        2.56049        0.152307         0.14346 
        2.57618        0.151178        0.141385 
        2.59189        0.148061        0.139348 
        2.60758        0.146568        0.137355 
        2.62325        0.143788        0.135404 
        2.63898        0.142599        0.133484 
        2.65468        0.139615        0.131606 
        2.67044        0.137954        0.129756 
        2.68618        0.135946        0.127946 
        2.70184        0.134617        0.126178 
        2.71755         0.13211         0.12444 
        2.73329        0.130678        0.122732 
        2.74897        0.128815        0.121062 
        2.76462        0.126621        0.119427 
        2.78034        0.125097        0.117815 
        2.79607        0.123835        0.116232 
        2.81179         0.12159         0.11468 
        2.82749        0.120357        0.113159 
        2.84321        0.118469        0.111663 
        2.85893         0.11665        0.110195 
        2.87462        0.115668        0.108757 
        2.89033        0.113715        0.107343 
        2.90605        0.112567        0.105953 
        2.92176        0.111199        0.104588 
        2.93747        0.109465        0.103249 
        2.95318        0.108504        0.101933 
        2.96891        0.106892        0.100639 
        2.98456         0.10552       0.0993739 
        3.00023        0.104552       0.0981288 
        3.01596        0.102441       0.0969014 
        3.03164        0.101352       0.0956986 
        3.04738        0.100297       0.0945129 
         3.0631       0.0986324       0.0933478 
        3.07883       0.0977271       0.0922025 
        3.09456       0.0967462       0.0910767 
        3.11026       0.0952569       0.0899717 
        3.12596       0.0944868       0.0888852 
        3.14163       0.0930153       0.0878193 
        3.15734       0.0923291       0.0867686 
        3.17308       0.0908862       0.0857327 
        3.18879       0.0898392       0.0847167 
        3.20447       0.0887521       0.0837187 
         3.2202        0.087761       0.0827339 
         3.2359       0.0867775       0.0817667 
        3.25157       0.0858916       0.0808175 
        3.26729       0.0847227       0.0798806 
        3.28304       0.0840589       0.0789568 
        3.29877       0.0827225        0.078049 
        3.31446       0.0817998       0.0771575 
        3.33014       0.0811544       0.0762809 
        3.34585       0.0800387       0.0754166 
        3.36158       0.0792112       0.0745646 
        3.37727       0.0783159       0.0737285 
        3.39294       0.0776844       0.0729061 
        3.40867       0.0767988       0.0720934 
        3.42439       0.0759349       0.0712936 
        3.44008       0.0753133       0.0705076 
        3.45578       0.0745308       0.0697329 
        3.47153        0.073837       0.0689683 
        3.48724       0.0727713       0.0682166 
        3.50292       0.0723871       0.0674779 
        3.51859       0.0714221       0.0667506 
        3.53431       0.0706371       0.0660319 
        3.55007        0.070028       0.0653221 
        3.56577       0.0692499       0.0646255 
        3.58146       0.0686947       0.0639396 
        3.59719       0.0679745        0.063262 
        3.61292        0.067121       0.0625946 
        3.62859       0.0665735       0.0619395 
        3.64429       0.0659815       0.0612925 
        3.66003        0.065478       0.0606528 
        3.67578       0.0649745       0.0600226 
        3.69146       0.0642697       0.0594038 
        3.70712       0.0636611       0.0587949 
        3.72284       0.0628677       0.0581924 
        3.73853       0.0627057       0.0575994 
        3.75422       0.0617154       0.0570145 
        3.76993       0.0613395       0.0564373 
        3.78564       0.0608659       0.0558684 
        3.80137       0.0603377       0.0553065 
        3.81707       0.0596267       0.0547535 
        3.83279       0.0589915       0.0542077 
        3.84853       0.0585614       0.0536685 
        3.86424       0.0583047       0.0531378 
        3.87992       0.0576994       0.0526151 
        3.89561       0.0570149       0.0520995 
        3.91134       0.0565637       0.0515897 
        3.92704       0.0560219       0.0510874 
        3.94273       0.0555879       0.0505924 
        3.95845       0.0551275       0.0501031 
        3.97418       0.0544972       0.0496202 
        3.98988       0.0538882       0.0491443 
        4.00554        0.053592        0.048676 
        4.02125       0.0530457       0.0482126 
        4.03698       0.0523188       0.0477545 
        4.05268       0.0520457       0.0473035 
        4.06839       0.0512487       0.0468579 
         4.0841       0.0505224       0.0464183 
        4.09983       0.0498926       0.0459838 
        4.11555       0.0493561       0.0455551 
        4.13124       0.0487093        0.045133 
        4.14693       0.0483146        0.044716 
        4.16266       0.0475455       0.0443033 
        4.17839       0.0471201       0.0438961 
        4.19408        0.046577        0.043495 
        4.20977       0.0461139       0.0430988 
        4.22551       0.0456296       0.0427066 
        4.24123       0.0451782       0.0423197 
        4.25691       0.0447543       0.0419387 
        4.27259       0.0443195       0.0415623 
        4.28831       0.0439507       0.0411898 
        4.30404       0.0435444       0.0408215 
        4.31974       0.0431016       0.0404586 
        4.33543       0.0427275       0.0401004 
        4.35116       0.0423805       0.0397456 
        4.36688       0.0420636       0.0393953 
        4.38255       0.0416954       0.0390506 
        4.39825       0.0415624       0.0387093 
        4.41398       0.0412493       0.0383714 
         4.4297       0.0410208       0.0380379 
        4.44541       0.0406629       0.0377085 
        4.46111       0.0403822       0.0373833 
        4.47683       0.0403157       0.0370617 
        4.49251       0.0400634       0.0367445 
        4.50819       0.0398663       0.0364312 
         4.5239        0.039741       0.0361212 
        4.53962       0.0397488       0.0358143 
        4.55535       0.0394857       0.0355109 
        4.57106        0.039345       0.0352115 
        4.58678       0.0391756       0.0349155 
         4.6025        0.039038       0.0346229 
        4.61821       0.0390153       0.0343337 
        4.63391       0.0389466       0.0340482 
         4.6496       0.0388116       0.0337661 
        4.66532       0.0388322       0.0334867 
        4.68103       0.0389739       0.0332107 
        4.69673       0.0388401       0.0329381 
        4.71241       0.0389114       0.0326688 
        4.72811       0.0388035       0.0324021 
        4.74384       0.0387924       0.0321381 
        4.75955       0.0389931       0.0318774 
        4.77525       0.0390192       0.0316198 
        4.79096       0.0390583       0.0313648 
        4.80669       0.0392574       0.0311124 
         4.8224       0.0393984       0.0308632 
        4.83809       0.0393851       0.0306169 
        4.85379       0.0396637       0.0303732 
         4.8695       0.0397844        0.030132 
        4.88521       0.0399747       0.0298936 
        4.90093       0.0401673       0.0296577 
        4.91663       0.0404219       0.0294245 
        4.93234       0.0405336       0.0291937 
        4.94807       0.0409571       0.0289652 
        4.96377        0.040946       0.0287396 
        4.97943        0.041539       0.0285168 
        4.99514       0.0416405       0.0282959 
        5.01086       0.0419417       0.0280772 
        5.02654        0.042324       0.0278614 
        5.04227       0.0426022       0.0276472 
          5.058       0.0430094       0.0274351 
        5.07371       0.0433014       0.0272258 
        5.08942       0.0436726       0.0270186 
        5.10513       0.0440968       0.0268135 
        5.12084       0.0446046       0.0266105 
        5.13656        0.045284       0.0264097 
        5.15225       0.0454095       0.0262113 
        5.16796       0.0461188       0.0260146 
        5.18369         0.04653       0.0258198 
         5.1994       0.0470367       0.0256273 
        5.21509       0.0477845        0.025437 
        5.23079       0.0481495       0.0252484 
        5.24649       0.0488033       0.0250619 
        5.26217       0.0493084       0.0248774 
        5.27788        0.050139       0.0246945 
        5.29359       0.0507784       0.0245135 
        5.30933       0.0513602        0.024334 
        5.32504       0.0521394       0.0241566 
        5.34073       0.0528692       0.0239812 
        5.35646       0.0534475       0.0238072 
        5.37218       0.0543875       0.0236349 
        5.38789       0.0550185       0.0234646 
        5.40357       0.0561615       0.0232962 
        5.41929       0.0570916       0.0231291 
        5.43502       0.0578819       0.0229636 
         5.4507       0.0586105       0.0228001 
        5.46639       0.0595203       0.0226382 
        5.48212       0.0605064       0.0224775 
        5.49786       0.0618303       0.0223182 
        5.51353       0.0629377       0.0221613 
        5.52921         0.06351       0.0220057 
        5.54495        0.064714       0.0218511 
        5.56066       0.0660125       0.0216983 
        5.57637       0.0671715       0.0215469 
        5.59207       0.0682132       0.0213971 
        5.60778       0.0691581       0.0212487 
        5.62346       0.0702884       0.0211019 
        5.63916       0.0719619       0.0209563 
        5.65487       0.0731567       0.0208121 
         5.6706       0.0741681       0.0206691 
        5.68633       0.0754287       0.0205273 
        5.70203       0.0770706       0.0203872 
        5.71773        0.078976       0.0202485 
        5.73344       0.0804706       0.0201109 
        5.74916       0.0820355       0.0199746 
        5.76486        0.083823       0.0198397 
        5.78054       0.0858865       0.0197062 
        5.79626       0.0867096       0.0195736 
          5.812       0.0890744       0.0194421 
         5.8277       0.0902529       0.0193123 
        5.84339        0.092316       0.0191836 
        5.85911       0.0939308       0.0190558 
        5.87484       0.0955983       0.0189292 
        5.89053       0.0984284       0.0188041 
        5.90623       0.0999943         0.01868 
        5.92195         0.10186       0.0185568 
        5.93767        0.104317       0.0184349 
        5.95336        0.105854       0.0183142 
        5.96905        0.108476       0.0181947 
        5.98476        0.109983        0.018076 
        6.00048        0.112828       0.0179584 
        6.01617        0.115577        0.017842 
        6.03185        0.117611       0.0177268 
        6.04756        0.120076       0.0176124 
        6.06331         0.12335       0.0174987 
        6.07903        0.125094       0.0173863 
        6.09473        0.127383       0.0172749 
        6.11044         0.13089       0.0171645 
        6.12616        0.133673        0.017055 
        6.14186        0.136174       0.0169466 
        6.15755        0.139601       0.0168392 
        6.17326        0.141989       0.0167326 
        6.18898        0.146105       0.0166269 
        6.20467        0.148257       0.0165223 
        6.22036        0.152465       0.0164186 
         6.2361        0.154916       0.0163155 
         6.2518        0.158516       0.0162135 
        6.26748        0.161067       0.0161126 
        6.28319         0.16528       0.0160123 
        6.29893        0.168954       0.0159127 
        6.31463        0.172552       0.0158142 
        6.33033        0.175977       0.0157166 
        6.34604        0.180155       0.0156197 
        6.36177        0.184573       0.0155235 
        6.37747         0.18739       0.0154284 
