# k  (h/Mpc)    Pcb(k)  (Mpc/h)^3    Pcb_linear(k) (Mpc/h)^3   ShotnoiseSubtracted = true
      0.0200456         2595.18         2631.66 
      0.0350414         2053.95         2025.27 
      0.0492313          1530.3          1530.2 
      0.0637834         1278.29         1301.05 
      0.0800726         1026.21         1047.61 
       0.096163         789.761         775.773 
       0.111083         649.894         632.141 
       0.126058         560.036         565.599 
       0.142273         476.077         480.125 
       0.158546         389.285         383.649 
        0.17375         339.127         328.779 
       0.188953         307.672         299.676 
       0.204907         263.143         264.913 
       0.220756         233.098         225.564 
        0.23588         206.144           198.7 
         0.2514         187.596         181.763 
       0.267535          174.79         164.458 
       0.283568         153.824         145.518 
       0.299022         141.926         130.776 
       0.314451         135.139         120.279 
       0.330372         120.493         110.494 
       0.346141         110.752         100.495 
       0.361624         102.643         91.8543 
       0.377134         94.0945         84.9619 
       0.392932         91.5889          78.813 
       0.408854         84.2595         72.7954 
       0.424564         80.6542         67.3426 
       0.440253         73.7513         62.6952 
       0.455999         67.8744          58.578 
       0.471626         64.5278         54.7389 
        0.48727          62.936         51.1739 
       0.502856         58.6474         47.9925 
       0.518488         55.4233         45.1272 
       0.534347         52.3868         42.4402 
       0.550082         50.4906         39.9593 
       0.565732         48.7702         37.6991 
       0.581496         45.8232         35.6193 
       0.597222         43.5309         33.7011 
       0.612804         41.8344         31.9316 
       0.628434         41.0477         30.2832 
       0.644267         38.9012         28.7403 
       0.660051         37.1193         27.3125 
       0.675724         35.5595         25.9908 
       0.691403          34.976         24.7563 
       0.707174         33.7172         23.5959 
       0.722871         32.5937         22.5152 
        0.73838         30.9845         21.5144 
       0.754018         29.5392         20.5675 
       0.769845         28.8854         19.6678 
        0.78569         27.9522         18.8217 
       0.801365         27.0536         18.0343 
       0.817031         26.1282         17.2931 
       0.832809         25.4817         16.5895 
       0.848511          24.699         15.9287 
       0.864097         23.9716         15.3089 
       0.879701         23.6098          14.722 
       0.895507         22.7548         14.1594 
       0.911279         21.8865         13.6277 
        0.92691         21.5183          13.128 
       0.942635         21.0608          12.651 
       0.958396         20.3758         12.1971 
       0.974128         19.8844         11.7665 
       0.989692         19.1069         11.3612 
        1.00528         18.9908         10.9746 
        1.02113         18.3922         10.6002 
        1.03692         17.9922         10.2449 
        1.05264         17.6298         9.90774 
        1.06832         17.2813         9.58646 
        1.08405         16.8184         9.27875 
        1.09979         16.4578         8.98454 
        1.11537         16.0707         8.70618 
        1.13105           15.81         8.43809 
        1.14679         15.4547          8.1804 
        1.16256         15.1443         7.93311 
        1.17828         14.8669         7.69699 
        1.19395         14.6287         7.47139 
         1.2097         14.1791          7.2538 
        1.22537         13.9723         7.04604 
          1.241         13.6551         6.84715 
        1.25666         13.5905         6.65553 
        1.27241         13.2973         6.47043 
        1.28819         12.7948         6.29215 
        1.30392         12.7931         6.12119 
        1.31957         12.5014         5.95741 
        1.33529         12.3402          5.7991 
        1.35108         12.1084         5.64599 
        1.36674         11.8389         5.49956 
         1.3824         11.7108         5.35852 
        1.39811         11.5071         5.22202 
        1.41389         11.2755          5.0898 
        1.42964          11.147         4.96244 
        1.44531         10.9428         4.84011 
        1.46101         10.8095         4.72169 
        1.47667         10.6186         4.60763 
        1.49229         10.3999         4.49769 
        1.50793         10.2858         4.39125 
        1.52367         10.1291         4.28761 
        1.53953          9.9364         4.18665 
        1.55526         9.85486         4.08979 
        1.57092         9.70959         3.99643 
        1.58662         9.56086         3.90579 
        1.60235         9.43308         3.81782 
        1.61809         9.32647         3.73254 
        1.63369         9.13884         3.65065 
        1.64941         9.02895         3.57066 
        1.66519         8.90231         3.49281 
        1.68085         8.76952         3.41785 
        1.69652         8.70537          3.3451 
        1.71228         8.60258         3.27407 
        1.72806         8.42952         3.20507 
        1.74368         8.37846         3.13878 
        1.75933         8.26696         3.07424 
        1.77505         8.10703         3.01124 
        1.79081         8.06824         2.94991 
         1.8065         7.99436         2.89057 
        1.82218          7.8567         2.83293 
        1.83797         7.73729         2.77648 
        1.85367         7.64552          2.7219 
        1.86928          7.6017         2.66913 
        1.88497         7.47007         2.61749 
        1.90073          7.3882         2.56703 
        1.91647         7.26981         2.51796 
        1.93218         7.21237          2.4703 
        1.94787         7.11489         2.42394 
        1.96363         7.05182         2.37861 
        1.97935          7.0108         2.33454 
        1.99499         6.91089         2.29185 
        2.01064         6.83627         2.25017 
         2.0264         6.75636         2.20928 
        2.04216         6.70594         2.16944 
        2.05781         6.61542         2.13084 
        2.07353         6.55498         2.09305 
        2.08928         6.42435          2.0561 
        2.10499         6.39387         2.02015 
        2.12065         6.40437         1.98518 
        2.13633         6.29604         1.95101 
        2.15211         6.20566         1.91744 
        2.16785         6.13396         1.88475 
        2.18349          6.1149         1.85305 
        2.19916         6.03623         1.82201 
        2.21489         5.96567         1.79158 
        2.23063         5.91454         1.76184 
         2.2463         5.85343         1.73291 
        2.26194         5.78544         1.70471 
        2.27765         5.71087           1.677 
        2.29341          5.6481         1.64983 
        2.30914         5.61907         1.62334 
        2.32486          5.5674         1.59744 
        2.34061          5.5178         1.57207 
        2.35635         5.46559         1.54728 
        2.37203         5.43354         1.52311 
        2.38768         5.39251         1.49952 
        2.40339         5.31847         1.47634 
        2.41914         5.26444         1.45361 
        2.43483         5.20821         1.43144 
         2.4505         5.18056         1.40977 
        2.46622          5.1283         1.38848 
        2.48195         5.10323         1.36763 
        2.49759         5.03157         1.34733 
        2.51328         4.99256         1.32739 
        2.52906         4.94702         1.30773 
        2.54479         4.90676         1.28854 
        2.56049         4.86845         1.26978 
        2.57618         4.82471         1.25141 
        2.59189         4.82801         1.23339 
        2.60758         4.76184         1.21575 
        2.62325         4.69299         1.19847 
        2.63898         4.66853         1.18148 
        2.65468         4.62421         1.16486 
        2.67044         4.60777         1.14848 
        2.68618         4.57012         1.13246 
        2.70184         4.52985         1.11682 
        2.71755         4.47416         1.10143 
        2.73329         4.44959         1.08631 
        2.74897         4.41173         1.07153 
        2.76462         4.36927         1.05706 
        2.78034         4.35125          1.0428 
        2.79607         4.30091         1.02878 
        2.81179         4.26501         1.01505 
        2.82749         4.22737         1.00158 
        2.84321         4.21138        0.988343 
        2.85893         4.16798        0.975351 
        2.87462         4.14295        0.962618 
        2.89033         4.12246        0.950102 
        2.90605         4.08517        0.937799 
        2.92176         4.04173        0.925723 
        2.93747         4.01182        0.913867 
        2.95318         3.98293        0.902218 
        2.96891         3.96541        0.890769 
        2.98456         3.93594         0.87957 
        3.00023         3.91209         0.86855 
        3.01596         3.87181        0.857685 
        3.03164         3.83485        0.847039 
        3.04738         3.82097        0.836544 
         3.0631         3.79324        0.826232 
        3.07883         3.76494        0.816095 
        3.09456         3.72416        0.806131 
        3.11026         3.70585         0.79635 
        3.12596         3.68623        0.786733 
        3.14163         3.65843        0.777299 
        3.15734         3.62875        0.767999 
        3.17308         3.60935         0.75883 
        3.18879         3.58467        0.749837 
        3.20447          3.5503        0.741004 
         3.2202          3.5385        0.732287 
         3.2359         3.51527        0.723727 
        3.25157         3.48379        0.715325 
        3.26729         3.46081        0.707032 
        3.28304         3.43663        0.698856 
        3.29877         3.40925        0.690821 
        3.31446         3.39126         0.68293 
        3.33014         3.36576        0.675171 
        3.34585         3.35254        0.667521 
        3.36158         3.31947         0.65998 
        3.37727          3.3107        0.652579 
        3.39294         3.28016          0.6453 
        3.40867         3.26543        0.638107 
        3.42439         3.23389        0.631028 
        3.44008         3.21329        0.624071 
        3.45578         3.19739        0.617214 
        3.47153         3.17949        0.610446 
        3.48724         3.15958        0.603793 
        3.50292         3.13532        0.597255 
        3.51859         3.12157        0.590818 
        3.53431         3.08882        0.584456 
        3.55007         3.09107        0.578173 
        3.56577         3.05682        0.572008 
        3.58146          3.0445        0.565936 
        3.59719         3.02374         0.55994 
        3.61292         3.00478        0.554032 
        3.62859         2.98738        0.548233 
        3.64429         2.96423        0.542507 
        3.66003         2.94741        0.536845 
        3.67578         2.93306        0.531267 
        3.69146          2.9025         0.52579 
        3.70712         2.88601        0.520401 
        3.72284         2.87113        0.515067 
        3.73853         2.86453        0.509819 
        3.75422         2.84035        0.504642 
        3.76993         2.82065        0.499533 
        3.78564         2.80435        0.494498 
        3.80137         2.78238        0.489524 
        3.81707         2.76838         0.48463 
        3.83279         2.75806        0.479799 
        3.84853         2.73738        0.475026 
        3.86424         2.71634        0.470329 
        3.87992         2.69901        0.465702 
        3.89561         2.68106        0.461138 
        3.91134         2.67406        0.456627 
        3.92704         2.65029        0.452181 
        3.94273         2.63302        0.447799 
        3.95845          2.6181        0.443468 
        3.97418          2.6097        0.439194 
        3.98988         2.59541        0.434982 
        4.00554         2.57877        0.430837 
        4.02125         2.55687        0.426735 
        4.03698          2.5447        0.422681 
        4.05268         2.52432        0.418688 
        4.06839          2.5122        0.414745 
         4.0841          2.4958        0.410854 
        4.09983         2.47523        0.407008 
        4.11555         2.46398        0.403213 
        4.13124         2.44368        0.399478 
        4.14693          2.4334        0.395786 
        4.16266         2.41983        0.392134 
        4.17839         2.40555         0.38853 
        4.19408         2.38615        0.384979 
        4.20977         2.37171        0.381472 
        4.22551         2.36383        0.378001 
        4.24123         2.34493        0.374576 
        4.25691         2.33211        0.371204 
        4.27259         2.31307        0.367873 
        4.28831         2.30976        0.364576 
        4.30404         2.28733        0.361316 
        4.31974         2.27174        0.358104 
        4.33543         2.25978        0.354933 
        4.35116         2.25391        0.351793 
        4.36688          2.2368        0.348693 
        4.38255         2.22273        0.345641 
        4.39825         2.21036         0.34262 
        4.41398         2.19683         0.33963 
         4.4297         2.18271        0.336678 
        4.44541         2.16698        0.333762 
        4.46111          2.1634        0.330884 
        4.47683         2.14957        0.328037 
        4.49251         2.13316         0.32523 
        4.50819         2.12312        0.322457 
         4.5239         2.10971        0.319713 
        4.53962         2.09861        0.316997 
        4.55535         2.08808        0.314311 
        4.57106         2.07785        0.311661 
        4.58678          2.0617        0.309041 
         4.6025         2.05258        0.306451 
        4.61821         2.04749        0.303891 
        4.63391            2.03        0.301364 
         4.6496          2.0215        0.298867 
        4.66532         2.01198        0.296395 
        4.68103         1.99695        0.293952 
        4.69673         1.98903        0.291539 
        4.71241         1.98072        0.289155 
        4.72811         1.97127        0.286795 
        4.74384         1.95946        0.284458 
        4.75955         1.95365        0.282151 
        4.77525         1.93724        0.279871 
        4.79096         1.92519        0.277613 
        4.80669         1.92201         0.27538 
         4.8224         1.91304        0.273173 
        4.83809         1.90255        0.270994 
        4.85379         1.89312        0.268837 
         4.8695         1.87943        0.266702 
        4.88521         1.87422        0.264591 
        4.90093         1.86721        0.262503 
        4.91663         1.85277         0.26044 
        4.93234         1.84992        0.258397 
        4.94807         1.83329        0.256374 
        4.96377         1.82822        0.254377 
        4.97943          1.8176        0.252406 
        4.99514         1.80972         0.25045 
        5.01086         1.79901        0.248514 
        5.02654         1.79232        0.246604 
        5.04227         1.78602        0.244708 
          5.058         1.77827        0.242832 
        5.07371         1.77127        0.240979 
        5.08942         1.76187        0.239145 
        5.10513         1.75105         0.23733 
        5.12084         1.74098        0.235533 
        5.13656         1.73551        0.233755 
        5.15225         1.72729        0.231999 
        5.16796         1.72053        0.230258 
        5.18369         1.71274        0.228534 
         5.1994         1.70707         0.22683 
        5.21509         1.69674        0.225146 
        5.23079         1.69092        0.223477 
        5.24649         1.68113        0.221826 
        5.26217         1.67707        0.220193 
        5.27788          1.6652        0.218574 
        5.29359         1.65823        0.216972 
        5.30933         1.65298        0.215383 
        5.32504         1.64368        0.213813 
        5.34073         1.63808         0.21226 
        5.35646         1.62889         0.21072 
        5.37218         1.62367        0.209195 
        5.38789         1.61562        0.207688 
        5.40357         1.61052        0.206197 
        5.41929         1.60581        0.204718 
        5.43502         1.59509        0.203253 
         5.4507          1.5888        0.201806 
        5.46639         1.58378        0.200373 
        5.48212         1.57603        0.198951 
        5.49786         1.56854        0.197541 
        5.51353          1.5625        0.196152 
        5.52921         1.55479        0.194775 
        5.54495          1.5506        0.193407 
        5.56066          1.5439        0.192054 
        5.57637         1.53754        0.190714 
        5.59207         1.53016        0.189388 
        5.60778         1.52434        0.188074 
        5.62346         1.51761        0.186775 
        5.63916         1.51546        0.185487 
        5.65487           1.504         0.18421 
         5.6706         1.50067        0.182944 
        5.68633         1.49134         0.18169 
        5.70203         1.49328         0.18045 
        5.71773         1.48169        0.179222 
        5.73344         1.47729        0.178004 
        5.74916         1.47326        0.176797 
        5.76486         1.46244        0.175603 
        5.78054         1.46033        0.174422 
        5.79626          1.4548        0.173248 
          5.812         1.44875        0.172085 
         5.8277         1.44175        0.170935 
        5.84339         1.43969        0.169796 
        5.85911         1.43068        0.168665 
        5.87484         1.42661        0.167545 
        5.89053         1.41993        0.166437 
        5.90623         1.41709        0.165339 
        5.92195         1.41099        0.164249 
        5.93767         1.40472        0.163169 
        5.95336         1.39799        0.162101 
        5.96905         1.39227        0.161043 
        5.98476         1.38853        0.159993 
        6.00048         1.38357        0.158952 
        6.01617          1.3773        0.157922 
        6.03185         1.37348        0.156902 
        6.04756         1.36933        0.155889 
        6.06331         1.36495        0.154883 
        6.07903         1.36003        0.153888 
        6.09473         1.35377        0.152902 
        6.11044         1.34875        0.151925 
        6.12616         1.34268        0.150956 
        6.14186         1.33847        0.149996 
        6.15755         1.33149        0.149045 
        6.17326         1.33039        0.148102 
        6.18898          1.3246        0.147166 
        6.20467         1.32063         0.14624 
        6.22036         1.31512        0.145323 
         6.2361         1.31135        0.144411 
         6.2518         1.30829        0.143508 
        6.26748         1.30171        0.142615 
        6.28319         1.29885        0.141727 
        6.29893         1.29233        0.140846 
        6.31463         1.28801        0.139973 
        6.33033         1.28414        0.139109 
        6.34604         1.27998        0.138252 
        6.36177         1.27514          0.1374 
        6.37747         1.27167        0.136558 
