# k  (h/Mpc)    Pcb(k)  (Mpc/h)^3    Pcb_linear(k) (Mpc/h)^3   ShotnoiseSubtracted = true
      0.0200456         11318.4         11562.3 
      0.0350414         8599.97         8898.06 
      0.0492313         6631.81         6722.98 
      0.0637834         5789.99         5716.17 
      0.0800726         4639.63         4602.71 
       0.096163         3301.97         3408.37 
       0.111083         2670.93         2777.33 
       0.126058         2484.89         2484.97 
       0.142273         2146.83         2109.44 
       0.158546         1821.71         1685.57 
        0.17375          1479.6          1444.5 
       0.188953         1435.92         1316.63 
       0.204907         1352.42          1163.9 
       0.220756         1158.65         991.022 
        0.23588         1026.66         872.992 
         0.2514         900.878         798.581 
       0.267535         884.076         722.549 
       0.283568         804.579         639.338 
       0.299022         752.898         574.566 
       0.314451         712.246          528.45 
       0.330372         658.471         485.456 
       0.346141          604.35         441.527 
       0.361624         580.527         403.564 
       0.377134         541.785         373.282 
       0.392932         518.112         346.266 
       0.408854         498.825         319.828 
       0.424564         473.802         295.871 
       0.440253         460.099         275.453 
       0.455999         434.406         257.363 
       0.471626         406.367         240.497 
        0.48727         396.534         224.833 
       0.502856         384.051         210.856 
       0.518488          380.15         198.267 
       0.534347         356.835         186.462 
       0.550082         337.832         175.562 
       0.565732          335.64         165.632 
       0.581496         317.858         156.494 
       0.597222         311.453         148.066 
       0.612804         300.727         140.292 
       0.628434         290.148          133.05 
       0.644267         281.136         126.271 
       0.660051         276.874         119.998 
       0.675724         272.441         114.191 
       0.691403         264.553         108.767 
       0.707174         253.818         103.669 
       0.722871         251.447         98.9208 
        0.73838         246.669         94.5239 
       0.754018          239.56         90.3636 
       0.769845         231.862         86.4108 
        0.78569         230.766         82.6935 
       0.801365         223.809         79.2342 
       0.817031          217.07         75.9778 
       0.832809         213.743         72.8863 
       0.848511         208.758         69.9831 
       0.864097         205.777         67.2602 
       0.879701         201.242         64.6815 
       0.895507         196.048         62.2094 
       0.911279         191.524         59.8734 
        0.92691         190.401         57.6783 
       0.942635         186.587         55.5826 
       0.958396         185.572          53.588 
       0.974128         180.361         51.6962 
       0.989692         175.887         49.9156 
        1.00528         173.157         48.2173 
        1.02113         172.252         46.5724 
        1.03692         166.024         45.0113 
        1.05264         163.718         43.5299 
        1.06832         160.717         42.1183 
        1.08405         158.275         40.7664 
        1.09979          157.47         39.4738 
        1.11537         152.268         38.2508 
        1.13105         151.457         37.0729 
        1.14679          150.49         35.9408 
        1.16256         147.812         34.8543 
        1.17828         144.369         33.8169 
        1.19395         142.816         32.8257 
         1.2097         140.587         31.8697 
        1.22537         138.958         30.9569 
          1.241         136.261         30.0831 
        1.25666         133.932         29.2412 
        1.27241         132.013          28.428 
        1.28819         130.302         27.6447 
        1.30392         128.893         26.8936 
        1.31957         126.907          26.174 
        1.33529         124.257         25.4785 
        1.35108          122.87         24.8058 
        1.36674         121.685         24.1624 
         1.3824         119.071         23.5428 
        1.39811         118.251          22.943 
        1.41389         116.183         22.3622 
        1.42964         114.436         21.8026 
        1.44531         111.709         21.2651 
        1.46101          110.97         20.7449 
        1.47667         109.691         20.2437 
        1.49229         107.909         19.7607 
        1.50793         106.853         19.2931 
        1.52367         105.684         18.8377 
        1.53953           103.7         18.3941 
        1.55526         102.462         17.9686 
        1.57092         101.514         17.5584 
        1.58662         99.6501         17.1602 
        1.60235         98.9389         16.7737 
        1.61809          97.213          16.399 
        1.63369         96.0752         16.0392 
        1.64941         95.0904         15.6878 
        1.66519         93.2208         15.3457 
        1.68085          92.255         15.0164 
        1.69652         90.2839         14.6968 
        1.71228         90.1612         14.3847 
        1.72806         88.6037         14.0816 
        1.74368         87.6845         13.7903 
        1.75933         86.4673         13.5068 
        1.77505         85.4064         13.2299 
        1.79081         84.0634         12.9605 
         1.8065         83.3718         12.6998 
        1.82218         81.6311         12.4465 
        1.83797         81.1812         12.1985 
        1.85367         79.9749         11.9587 
        1.86928         79.6777         11.7269 
        1.88497         77.9452            11.5 
        1.90073         77.0433         11.2783 
        1.91647         76.3594         11.0627 
        1.93218         75.2859         10.8533 
        1.94787         74.2876         10.6497 
        1.96363         72.9988         10.4505 
        1.97935         72.7106         10.2569 
        1.99499          71.552         10.0693 
        2.01064         70.8635         9.88619 
         2.0264         69.5137         9.70653 
        2.04216         68.6743         9.53147 
        2.05781         67.9993         9.36188 
        2.07353         67.0994         9.19584 
        2.08928         66.0737         9.03352 
        2.10499         65.7262         8.87558 
        2.12065         64.9415         8.72193 
        2.13633         64.2029         8.57182 
        2.15211         63.6401          8.4243 
        2.16785          62.625         8.28071 
        2.18349         62.1115         8.14139 
        2.19916         61.2401         8.00502 
        2.21489         60.8238         7.87135 
        2.23063         60.0073         7.74067 
         2.2463         59.3765         7.61357 
        2.26194         58.2993         7.48967 
        2.27765         57.8139         7.36792 
        2.29341         57.2734         7.24858 
        2.30914         56.2962         7.13216 
        2.32486         55.5178         7.01838 
        2.34061         55.0322         6.90692 
        2.35635          54.552           6.798 
        2.37203         53.6153         6.69183 
        2.38768         53.1873         6.58817 
        2.40339         52.4986         6.48634 
        2.41914         52.2589         6.38646 
        2.43483         51.7687         6.28904 
         2.4505         51.0618         6.19385 
        2.46622         50.4764         6.10031 
        2.48195         49.9017         6.00872 
        2.49759         49.1941         5.91951 
        2.51328         48.6169          5.8319 
        2.52906         48.1848         5.74552 
        2.54479         47.6524         5.66123 
        2.56049         46.9273         5.57881 
        2.57618         46.5216         5.49811 
        2.59189         46.0107         5.41891 
        2.60758         45.5801          5.3414 
        2.62325         45.0045         5.26552 
        2.63898         44.6296         5.19086 
        2.65468         43.9047         5.11782 
        2.67044         43.4349         5.04588 
        2.68618         43.1334         4.97551 
        2.70184         42.6076         4.90676 
        2.71755         42.3691         4.83916 
        2.73329         41.4971         4.77274 
        2.74897          41.166         4.70779 
        2.76462         40.5946         4.64421 
        2.78034         40.3599         4.58154 
        2.79607         39.8058         4.51998 
        2.81179         39.4374         4.45963 
        2.82749         38.8349         4.40046 
        2.84321         38.6246          4.3423 
        2.85893         38.1346         4.28523 
        2.87462         37.6637         4.22928 
        2.89033         37.3388         4.17429 
        2.90605         36.8926         4.12024 
        2.92176          36.664         4.06718 
        2.93747         36.1699         4.01509 
        2.95318         35.7636         3.96391 
        2.96891         35.2799         3.91361 
        2.98456         35.0247         3.86441 
        3.00023         34.5744         3.81599 
        3.01596         34.2555         3.76826 
        3.03164          33.981         3.72148 
        3.04738         33.5936         3.67537 
         3.0631         33.1897         3.63007 
        3.07883         32.8517         3.58553 
        3.09456         32.5405         3.54175 
        3.11026         32.2171         3.49878 
        3.12596         31.8941         3.45653 
        3.14163          31.519         3.41508 
        3.15734         31.2992         3.37422 
        3.17308         30.8918         3.33394 
        3.18879         30.5207         3.29442 
        3.20447         30.2988         3.25562 
         3.2202         29.9461         3.21732 
         3.2359         29.6631         3.17971 
        3.25157         29.4514          3.1428 
        3.26729         29.1833         3.10636 
        3.28304         28.8441         3.07044 
        3.29877         28.4248         3.03514 
        3.31446         28.2497         3.00047 
        3.33014         28.0142         2.96638 
        3.34585         27.7475         2.93277 
        3.36158         27.3288         2.89964 
        3.37727         27.1202         2.86712 
        3.39294         26.9107         2.83514 
        3.40867         26.6361         2.80353 
        3.42439         26.2643         2.77243 
        3.44008         26.0901         2.74187 
        3.45578         25.8821         2.71174 
        3.47153         25.5756         2.68201 
        3.48724         25.2551         2.65278 
        3.50292         25.0962         2.62405 
        3.51859         24.8011         2.59577 
        3.53431          24.633         2.56782 
        3.55007         24.4297         2.54022 
        3.56577         24.1357         2.51313 
        3.58146         24.0168         2.48645 
        3.59719          23.705         2.46011 
        3.61292         23.4538         2.43415 
        3.62859         23.2542         2.40867 
        3.64429         23.0087         2.38351 
        3.66003         22.8671         2.35864 
        3.67578         22.5804         2.33413 
        3.69146         22.3486         2.31007 
        3.70712         22.0948         2.28639 
        3.72284         21.9915         2.26296 
        3.73853         21.7257          2.2399 
        3.75422         21.5134         2.21716 
        3.76993         21.3896         2.19471 
        3.78564         21.1498         2.17259 
        3.80137         20.9679         2.15073 
        3.81707          20.732         2.12923 
        3.83279         20.5471         2.10801 
        3.84853         20.3278         2.08704 
        3.86424         20.1869          2.0664 
        3.87992         19.9943         2.04607 
        3.89561         19.8091         2.02602 
        3.91134          19.631          2.0062 
        3.92704         19.4606         1.98667 
        3.94273         19.2708         1.96742 
        3.95845         19.0824         1.94839 
        3.97418         18.8971         1.92961 
        3.98988         18.7248          1.9111 
        4.00554         18.5687         1.89289 
        4.02125         18.4092         1.87487 
        4.03698         18.2305         1.85706 
        4.05268         18.0858         1.83952 
        4.06839         17.9052         1.82219 
         4.0841         17.7688          1.8051 
        4.09983          17.574          1.7882 
        4.11555         17.4154         1.77153 
        4.13124         17.2985         1.75511 
        4.14693         17.0974          1.7389 
        4.16266         16.9696         1.72285 
        4.17839         16.8069         1.70701 
        4.19408          16.669         1.69141 
        4.20977         16.5083         1.67601 
        4.22551         16.4033         1.66075 
        4.24123         16.2629         1.64571 
        4.25691         16.1202         1.63089 
        4.27259         15.9436         1.61626 
        4.28831         15.7645         1.60177 
        4.30404         15.6743         1.58745 
        4.31974         15.5157         1.57334 
        4.33543         15.3881         1.55941 
        4.35116         15.2688         1.54561 
        4.36688         15.1756         1.53199 
        4.38255          15.045         1.51858 
        4.39825         14.9297         1.50531 
        4.41398         14.7789         1.49217 
         4.4297         14.6254          1.4792 
        4.44541         14.5271         1.46639 
        4.46111         14.4003         1.45374 
        4.47683         14.2918         1.44124 
        4.49251         14.1701         1.42891 
        4.50819         14.0453         1.41672 
         4.5239         13.9434         1.40466 
        4.53962         13.7785         1.39273 
        4.55535         13.6949         1.38093 
        4.57106         13.5803         1.36929 
        4.58678         13.4586         1.35778 
         4.6025         13.3609          1.3464 
        4.61821         13.2533         1.33515 
        4.63391           13.12         1.32405 
         4.6496         13.0172         1.31308 
        4.66532         12.8965         1.30222 
        4.68103         12.8222         1.29148 
        4.69673         12.7268         1.28088 
        4.71241         12.6306         1.27041 
        4.72811         12.5016         1.26004 
        4.74384         12.4281         1.24977 
        4.75955         12.3056         1.23963 
        4.77525         12.1934         1.22962 
        4.79096         12.1249          1.2197 
        4.80669         12.0276         1.20989 
         4.8224         11.8949         1.20019 
        4.83809         11.8301         1.19062 
        4.85379         11.7114         1.18114 
         4.8695         11.6321         1.17176 
        4.88521         11.5346         1.16249 
        4.90093         11.4536         1.15331 
        4.91663         11.3861         1.14425 
        4.93234         11.2695         1.13527 
        4.94807         11.1559         1.12638 
        4.96377         11.0726         1.11761 
        4.97943          11.006         1.10895 
        4.99514         10.9186         1.10036 
        5.01086         10.8182         1.09185 
        5.02654         10.7538         1.08346 
        5.04227          10.666         1.07513 
          5.058         10.5618         1.06689 
        5.07371         10.5045         1.05874 
        5.08942         10.4181         1.05069 
        5.10513         10.3348         1.04271 
        5.12084         10.2551         1.03482 
        5.13656         10.2154         1.02701 
        5.15225         10.1026         1.01929 
        5.16796           10.01         1.01164 
        5.18369         9.95179         1.00407 
         5.1994         9.85146        0.996584 
        5.21509         9.79296        0.989183 
        5.23079         9.73788        0.981849 
        5.24649           9.651        0.974596 
        5.26217         9.58001        0.967422 
        5.27788         9.51076         0.96031 
        5.29359         9.45317        0.953269 
        5.30933          9.3514        0.946289 
        5.32504         9.30338        0.939391 
        5.34073         9.24442         0.93257 
        5.35646         9.14468        0.925804 
        5.37218         9.08663        0.919103 
        5.38789         9.01962        0.912481 
        5.40357         8.96674        0.905932 
        5.41929         8.90282        0.899433 
        5.43502         8.83411        0.892997 
         5.4507         8.75846         0.88664 
        5.46639         8.67448        0.880345 
        5.48212         8.64051        0.874097 
        5.49786         8.57219        0.867902 
        5.51353         8.50638        0.861798 
        5.52921         8.44595        0.855748 
        5.54495         8.39352        0.849738 
        5.56066           8.305        0.843792 
        5.57637         8.26298        0.837906 
        5.59207         8.20531         0.83208 
        5.60778          8.1441        0.826309 
        5.62346         8.11958          0.8206 
        5.63916         8.05116         0.81494 
        5.65487         7.97931        0.809332 
         5.6706         7.93459         0.80377 
        5.68633         7.87532        0.798258 
        5.70203         7.82552         0.79281 
        5.71773         7.75353        0.787414 
        5.73344         7.70621        0.782066 
        5.74916         7.64952        0.776763 
        5.76486          7.5931        0.771516 
        5.78054         7.55656        0.766327 
        5.79626         7.48849        0.761171 
          5.812         7.42406        0.756058 
         5.8277         7.38026        0.751006 
        5.84339         7.32853        0.746002 
        5.85911         7.29017        0.741034 
        5.87484         7.23352        0.736112 
        5.89053         7.18626        0.731245 
        5.90623         7.12529         0.72642 
        5.92195         7.09254        0.721631 
        5.93767         7.04008        0.716887 
        5.95336         6.97769        0.712195 
        5.96905         6.95099        0.707546 
        5.98476         6.89379        0.702933 
        6.00048         6.85045         0.69836 
        6.01617         6.80614        0.693834 
        6.03185         6.74892        0.689353 
        6.04756         6.72055        0.684902 
        6.06331         6.65851        0.680481 
        6.07903         6.61708        0.676109 
        6.09473         6.57726        0.671779 
        6.11044         6.52864        0.667484 
        6.12616         6.50595        0.663227 
        6.14186         6.45192        0.659012 
        6.15755         6.39966        0.654834 
        6.17326         6.36008        0.650689 
        6.18898         6.31583        0.646578 
        6.20467         6.28578        0.642511 
        6.22036         6.23082        0.638479 
         6.2361         6.19318        0.634471 
         6.2518         6.15515        0.630504 
        6.26748         6.10634         0.62658 
        6.28319         6.07962        0.622679 
        6.29893         6.02644        0.618808 
        6.31463          5.9971        0.614976 
        6.33033         5.95677        0.611179 
        6.34604         5.91978        0.607411 
        6.36177         5.88696        0.603672 
        6.37747         5.84427        0.599971 
