# k  (h/Mpc)    Pcb(k)  (Mpc/h)^3    Pcb_linear(k) (Mpc/h)^3   ShotnoiseSubtracted = true
      0.0200456          1805.8         1834.78 
      0.0350414         1397.72         1412.01 
      0.0492313         1068.07         1066.85 
      0.0637834         915.371         907.081 
      0.0800726          736.27         730.391 
       0.096163         537.133         540.865 
       0.111083         434.649         440.725 
       0.126058         396.012         394.332 
       0.142273         338.932          334.74 
       0.158546         273.351         267.478 
        0.17375         228.981         229.223 
       0.188953         212.968         208.932 
       0.204907         195.473         184.696 
       0.220756         163.985         157.262 
        0.23588         144.429         138.532 
         0.2514         130.073         126.724 
       0.267535         119.694         114.659 
       0.283568         107.366         101.455 
       0.299022         97.8594         91.1762 
       0.314451         88.1779         83.8581 
       0.330372         82.1414         77.0355 
       0.346141         74.7558         70.0645 
       0.361624         69.4804         64.0403 
       0.377134         65.4699         59.2349 
       0.392932         58.3196          54.948 
       0.408854         56.2174         50.7526 
       0.424564         52.8513         46.9508 
       0.440253         48.8206         43.7107 
       0.455999         46.2328         40.8402 
       0.471626         43.4094         38.1637 
        0.48727         41.2477         35.6781 
       0.502856         38.6687         33.4601 
       0.518488         37.0491         31.4624 
       0.534347         35.5511         29.5891 
       0.550082         32.6068         27.8594 
       0.565732         30.3982         26.2836 
       0.581496         29.8475         24.8335 
       0.597222          28.825         23.4962 
       0.612804         26.9081         22.2625 
       0.628434         25.9814         21.1133 
       0.644267         25.2416         20.0376 
       0.660051         23.9098         19.0421 
       0.675724         22.7338         18.1206 
       0.691403         22.0157           17.26 
       0.707174         21.1972         16.4509 
       0.722871         20.3635         15.6974 
        0.73838          19.671         14.9997 
       0.754018         18.9563         14.3395 
       0.769845         18.2381         13.7123 
        0.78569         17.7023         13.1224 
       0.801365          17.017         12.5734 
       0.817031         16.5665         12.0567 
       0.832809         16.1842         11.5661 
       0.848511         15.2186         11.1054 
       0.864097         14.8863         10.6733 
       0.879701         14.4739         10.2641 
       0.895507         13.9314         9.87182 
       0.911279          13.686         9.50113 
        0.92691          13.265          9.1528 
       0.942635         12.7149         8.82024 
       0.958396         12.3899         8.50372 
       0.974128           12.08         8.20351 
       0.989692         11.9596         7.92095 
        1.00528         11.5396         7.65145 
        1.02113         11.0964         7.39043 
        1.03692         10.8942          7.1427 
        1.05264         10.6079         6.90762 
        1.06832         10.3904         6.68362 
        1.08405         10.0252         6.46909 
        1.09979         9.81339         6.26397 
        1.11537         9.66149          6.0699 
        1.13105         9.40696         5.88299 
        1.14679         9.22735         5.70333 
        1.16256          8.9569         5.53092 
        1.17828          8.8537          5.3663 
        1.19395         8.57279         5.20901 
         1.2097         8.35427         5.05731 
        1.22537         8.16213         4.91246 
          1.241         8.04829         4.77379 
        1.25666         7.95444          4.6402 
        1.27241         7.71049         4.51115 
        1.28819         7.53367         4.38685 
        1.30392          7.4375         4.26766 
        1.31957         7.28438         4.15347 
        1.33529         7.14862          4.0431 
        1.35108         6.96593         3.93635 
        1.36674         6.92729         3.83426 
         1.3824         6.67509         3.73593 
        1.39811         6.59946         3.64076 
        1.41389         6.49765         3.54858 
        1.42964         6.38934         3.45979 
        1.44531         6.28285          3.3745 
        1.46101         6.16007         3.29194 
        1.47667         6.02861         3.21242 
        1.49229         5.97659         3.13577 
        1.50793         5.81328         3.06156 
        1.52367         5.78363          2.9893 
        1.53953         5.64667         2.91891 
        1.55526          5.5458         2.85138 
        1.57092          5.5047         2.78629 
        1.58662         5.37188         2.72309 
        1.60235         5.30487         2.66176 
        1.61809         5.21688          2.6023 
        1.63369         5.13087         2.54521 
        1.64941         5.06447         2.48945 
        1.66519         5.00072         2.43517 
        1.68085          4.8973         2.38291 
        1.69652         4.82288         2.33218 
        1.71228         4.76391         2.28266 
        1.72806         4.68722         2.23456 
        1.74368         4.60978         2.18834 
        1.75933         4.56249         2.14334 
        1.77505         4.49906         2.09942 
        1.79081         4.41038         2.05666 
         1.8065         4.37099         2.01529 
        1.82218         4.32185          1.9751 
        1.83797         4.28155         1.93575 
        1.85367         4.20842         1.89769 
        1.86928         4.15802          1.8609 
        1.88497         4.08596          1.8249 
        1.90073         4.02581         1.78972 
        1.91647         3.97345         1.75551 
        1.93218         3.95093         1.72228 
        1.94787         3.90191         1.68996 
        1.96363         3.83972         1.65835 
        1.97935         3.78557         1.62763 
        1.99499         3.71794         1.59786 
        2.01064          3.6962         1.56881 
         2.0264         3.65901          1.5403 
        2.04216         3.61461         1.51252 
        2.05781         3.56235         1.48561 
        2.07353         3.52274         1.45926 
        2.08928         3.49237          1.4335 
        2.10499         3.44374         1.40844 
        2.12065         3.42253         1.38406 
        2.13633         3.36867         1.36024 
        2.15211         3.32766         1.33683 
        2.16785         3.29572         1.31404 
        2.18349         3.26533         1.29193 
        2.19916         3.19915         1.27029 
        2.21489         3.18332         1.24908 
        2.23063         3.13944         1.22834 
         2.2463          3.1174         1.20817 
        2.26194         3.07481         1.18851 
        2.27765         3.05113         1.16919 
        2.29341         3.01753         1.15026 
        2.30914         2.98762         1.13178 
        2.32486         2.96608         1.11373 
        2.34061         2.92648         1.09604 
        2.35635         2.87841         1.07875 
        2.37203         2.87612         1.06191 
        2.38768          2.8439         1.04546 
        2.40339         2.81997          1.0293 
        2.41914         2.78235         1.01345 
        2.43483         2.75949        0.997989 
         2.4505         2.71851        0.982883 
        2.46622          2.7123        0.968039 
        2.48195         2.67435        0.953505 
        2.49759         2.65012        0.939349 
        2.51328         2.62428        0.925446 
        2.52906         2.61178        0.911739 
        2.54479         2.57695        0.898363 
        2.56049         2.55406        0.885284 
        2.57618         2.53508        0.872479 
        2.59189         2.52427         0.85991 
        2.60758         2.48342        0.847611 
        2.62325         2.46696         0.83557 
        2.63898         2.43712        0.823722 
        2.65468         2.41799        0.812131 
        2.67044          2.4049        0.800716 
        2.68618         2.37428        0.789548 
        2.70184         2.35587        0.778639 
        2.71755         2.33836        0.767912 
        2.73329         2.31463        0.757371 
        2.74897         2.30027        0.747065 
        2.76462         2.27514        0.736975 
        2.78034         2.26891        0.727031 
        2.79607          2.2347        0.717262 
        2.81179            2.22        0.707685 
        2.82749         2.20718        0.698295 
        2.84321         2.18523        0.689067 
        2.85893         2.16893        0.680009 
        2.87462         2.15069        0.671132 
        2.89033         2.12401        0.662405 
        2.90605         2.11091        0.653828 
        2.92176         2.09889        0.645409 
        2.93747         2.08238        0.637143 
        2.95318         2.06539        0.629021 
        2.96891         2.04854        0.621039 
        2.98456         2.03534        0.613231 
        3.00023          2.0177        0.605548 
        3.01596          2.0065        0.597973 
        3.03164         1.99021        0.590551 
        3.04738         1.96558        0.583234 
         3.0631         1.95209        0.576044 
        3.07883         1.94342        0.568977 
        3.09456         1.93396         0.56203 
        3.11026         1.91254         0.55521 
        3.12596         1.90063        0.548506 
        3.14163         1.88557        0.541929 
        3.15734         1.87551        0.535445 
        3.17308         1.85916        0.529052 
        3.18879         1.85227        0.522782 
        3.20447         1.83155        0.516624 
         3.2202         1.81802        0.510546 
         3.2359         1.80725        0.504578 
        3.25157         1.79473        0.498721 
        3.26729          1.7804        0.492939 
        3.28304         1.77214        0.487239 
        3.29877         1.75528        0.481636 
        3.31446         1.74114        0.476135 
        3.33014         1.73837        0.470725 
        3.34585         1.72363        0.465392 
        3.36158         1.70622        0.460134 
        3.37727         1.70281        0.454975 
        3.39294         1.68444          0.4499 
        3.40867         1.67411        0.444884 
        3.42439         1.66275        0.439949 
        3.44008          1.6557        0.435098 
        3.45578         1.64774        0.430318 
        3.47153         1.63039          0.4256 
        3.48724         1.62142        0.420961 
        3.50292         1.61513        0.416403 
        3.51859         1.60774        0.411915 
        3.53431         1.59337        0.407479 
        3.55007          1.5855        0.403099 
        3.56577         1.57382        0.398801 
        3.58146         1.56392        0.394568 
        3.59719         1.55357        0.390387 
        3.61292         1.54976        0.386268 
        3.62859         1.53427        0.382225 
        3.64429         1.52675        0.378233 
        3.66003         1.51433        0.374285 
        3.67578         1.50696        0.370396 
        3.69146         1.50063        0.366578 
        3.70712         1.48364         0.36282 
        3.72284          1.4845        0.359102 
        3.73853          1.4694        0.355443 
        3.75422         1.46312        0.351834 
        3.76993         1.45651        0.348272 
        3.78564         1.44754        0.344761 
        3.80137          1.4337        0.341293 
        3.81707         1.43174        0.337881 
        3.83279         1.41826        0.334513 
        3.84853         1.41094        0.331186 
        3.86424         1.40455        0.327911 
        3.87992         1.39929        0.324685 
        3.89561         1.39019        0.321503 
        3.91134         1.38158        0.318357 
        3.92704         1.37192        0.315258 
        3.94273         1.36871        0.312203 
        3.95845         1.35857        0.309183 
        3.97418         1.35087        0.306203 
        3.98988         1.33995        0.303267 
        4.00554         1.33561        0.300377 
        4.02125         1.32561        0.297517 
        4.03698         1.31344        0.294691 
        4.05268         1.30485        0.291907 
        4.06839         1.29308        0.289158 
         4.0841         1.28858        0.286445 
        4.09983         1.28005        0.283764 
        4.11555         1.27138        0.281118 
        4.13124         1.26366        0.278513 
        4.14693         1.25281         0.27594 
        4.16266         1.24522        0.273393 
        4.17839         1.23962        0.270881 
        4.19408         1.23192        0.268405 
        4.20977         1.22319         0.26596 
        4.22551         1.21714         0.26354 
        4.24123         1.21012        0.261153 
        4.25691         1.20129        0.258801 
        4.27259          1.1938        0.256479 
        4.28831          1.1872         0.25418 
        4.30404         1.18324        0.251908 
        4.31974         1.16953        0.249668 
        4.33543         1.16658        0.247457 
        4.35116         1.16101        0.245268 
        4.36688         1.15205        0.243107 
        4.38255         1.14776        0.240979 
        4.39825         1.14364        0.238873 
        4.41398         1.13532        0.236788 
         4.4297         1.12829         0.23473 
        4.44541         1.12391        0.232697 
        4.46111         1.12046         0.23069 
        4.47683          1.1151        0.228706 
        4.49251         1.10819        0.226749 
        4.50819         1.10245        0.224815 
         4.5239         1.09561        0.222902 
        4.53962         1.09223        0.221008 
        4.55535         1.08526        0.219136 
        4.57106         1.08271        0.217289 
        4.58678         1.07641        0.215462 
         4.6025         1.07225        0.213656 
        4.61821         1.06868        0.211871 
        4.63391            1.06         0.21011 
         4.6496         1.05469        0.208369 
        4.66532         1.05286        0.206645 
        4.68103         1.04689        0.204941 
        4.69673         1.04426        0.203259 
        4.71241         1.03787        0.201597 
        4.72811         1.03634        0.199952 
        4.74384         1.02895        0.198322 
        4.75955         1.02482        0.196714 
        4.77525         1.01986        0.195124 
        4.79096          1.0165         0.19355 
        4.80669         1.01517        0.191993 
         4.8224         1.00982        0.190455 
        4.83809         1.00552        0.188935 
        4.85379         1.00258        0.187432 
         4.8695         0.99954        0.185943 
        4.88521        0.992937        0.184472 
        4.90093        0.991725        0.183016 
        4.91663        0.989367        0.181577 
        4.93234        0.981658        0.180153 
        4.94807        0.979698        0.178743 
        4.96377         0.97699         0.17735 
        4.97943        0.973445        0.175976 
        4.99514        0.969717        0.174613 
        5.01086        0.967717        0.173263 
        5.02654        0.964283        0.171931 
        5.04227        0.958516        0.170609 
          5.058        0.956756        0.169301 
        5.07371        0.953904        0.168009 
        5.08942        0.951111         0.16673 
        5.10513        0.948696        0.165465 
        5.12084        0.946389        0.164212 
        5.13656        0.942752        0.162973 
        5.15225        0.941498        0.161748 
        5.16796        0.935075        0.160535 
        5.18369        0.933183        0.159332 
         5.1994        0.931012        0.158145 
        5.21509        0.929233         0.15697 
        5.23079        0.927272        0.155807 
        5.24649        0.925183        0.154656 
        5.26217         0.91969        0.153517 
        5.27788        0.919212        0.152389 
        5.29359        0.916753        0.151271 
        5.30933        0.914384        0.150164 
        5.32504        0.912183        0.149069 
        5.34073        0.909679        0.147987 
        5.35646        0.907137        0.146913 
        5.37218         0.90559         0.14585 
        5.38789        0.903952        0.144799 
        5.40357        0.898683         0.14376 
        5.41929             0.9        0.142728 
        5.43502        0.896486        0.141707 
         5.4507        0.896214        0.140698 
        5.46639        0.892824        0.139699 
        5.48212        0.888325        0.138708 
        5.49786        0.888123        0.137725 
        5.51353        0.883968        0.136756 
        5.52921        0.885085        0.135796 
        5.54495        0.882308        0.134842 
        5.56066        0.879732        0.133899 
        5.57637        0.879867        0.132965 
        5.59207        0.876838         0.13204 
        5.60778         0.87434        0.131124 
        5.62346        0.874374        0.130219 
        5.63916        0.870936         0.12932 
        5.65487        0.869265         0.12843 
         5.6706        0.871019        0.127548 
        5.68633        0.866813        0.126673 
        5.70203        0.864007        0.125809 
        5.71773        0.863298        0.124952 
        5.73344        0.859033        0.124104 
        5.74916        0.862133        0.123262 
        5.76486        0.857925         0.12243 
        5.78054        0.856335        0.121606 
        5.79626        0.854901        0.120788 
          5.812        0.853952        0.119976 
         5.8277         0.85187        0.119175 
        5.84339        0.850348        0.118381 
        5.85911        0.847883        0.117592 
        5.87484        0.847667        0.116811 
        5.89053        0.845415        0.116039 
        5.90623        0.843999        0.115273 
        5.92195        0.841233        0.114513 
        5.93767        0.840418        0.113761 
        5.95336        0.839495        0.113016 
        5.96905        0.836703        0.112278 
        5.98476        0.835732        0.111546 
        6.00048        0.835962        0.110821 
        6.01617        0.832655        0.110102 
        6.03185        0.830695        0.109391 
        6.04756        0.830896        0.108685 
        6.06331        0.829961        0.107984 
        6.07903        0.827483         0.10729 
        6.09473        0.827015        0.106603 
        6.11044         0.82554        0.105921 
        6.12616        0.823329        0.105245 
        6.14186        0.822624        0.104577 
        6.15755        0.821215        0.103914 
        6.17326        0.820637        0.103256 
        6.18898         0.81896        0.102603 
        6.20467        0.819026        0.101958 
        6.22036        0.814728        0.101318 
         6.2361        0.814963        0.100682 
         6.2518         0.81346        0.100053 
        6.26748        0.812585         0.09943 
        6.28319        0.811931        0.098811 
        6.29893        0.808551       0.0981967 
        6.31463         0.80841       0.0975887 
        6.33033        0.807688       0.0969861 
        6.34604         0.80631       0.0963882 
        6.36177        0.804629       0.0957948 
        6.37747        0.804691       0.0952076 
