# k  (h/Mpc)    Pcb(k)  (Mpc/h)^3    Pcb_linear(k) (Mpc/h)^3   ShotnoiseSubtracted = true
      0.0200456         722.264         731.458 
      0.0350414         479.182         471.854 
      0.0492313         325.991         324.229 
      0.0637834         268.258         270.733 
      0.0800726         206.532         208.686 
       0.096163         145.273         142.752 
       0.111083         115.753         113.574 
       0.126058         102.282         102.986 
       0.142273         84.3756         84.9686 
       0.158546         65.1352         64.5502 
        0.17375         55.7771         54.9481 
       0.188953         50.8116          50.593 
       0.204907         43.2963          43.926 
       0.220756          36.588          36.246 
        0.23588         32.0095         31.7412 
         0.2514         29.3281         29.1814 
       0.267535         26.4101         26.1135 
       0.283568         22.9528         22.6688 
       0.299022         20.5889         20.2416 
       0.314451         19.2074         18.6363 
       0.330372         17.3225         17.0014 
       0.346141         15.6116         15.2826 
       0.361624         14.1613         13.8818 
       0.377134          13.013         12.8197 
       0.392932         12.3354         11.8367 
       0.408854         11.1029         10.8499 
       0.424564          10.444         9.98385 
       0.440253         9.56645         9.26777 
       0.455999         8.78051         8.62711 
       0.471626         8.19371         8.02102 
        0.48727         7.79621          7.4648 
       0.502856         7.30693         6.97943 
       0.518488         6.72036         6.54152 
       0.534347         6.26496         6.12842 
       0.550082         5.98263         5.74854 
       0.565732         5.69781         5.40703 
       0.581496         5.33171         5.09369 
       0.597222         5.01855         4.80473 
       0.612804         4.71842         4.53831 
       0.628434         4.51237         4.29218 
       0.644267         4.28236         4.06268 
       0.660051         4.05262         3.85063 
       0.675724         3.81914         3.65489 
       0.691403         3.65605          3.4726 
       0.707174         3.47078         3.30172 
       0.722871         3.37659         3.14302 
        0.73838          3.1475         2.99646 
       0.754018         3.00114         2.85815 
       0.769845         2.84192         2.72709 
        0.78569         2.76026         2.60415 
       0.801365         2.63946         2.49003 
       0.817031         2.53696         2.38287 
       0.832809         2.40402         2.28137 
       0.848511         2.32329         2.18628 
       0.864097         2.23722         2.09729 
       0.879701         2.16651         2.01319 
       0.895507         2.05715         1.93274 
       0.911279         1.98878         1.85687 
        0.92691         1.92879         1.78573 
       0.942635         1.82926         1.71794 
       0.958396         1.77223         1.65354 
       0.974128          1.7145         1.59258 
       0.989692         1.64298          1.5353 
        1.00528         1.58804         1.48078 
        1.02113         1.54349         1.42805 
        1.03692         1.50179         1.37811 
        1.05264         1.43108         1.33079 
        1.06832         1.39136         1.28578 
        1.08405         1.33681         1.24274 
        1.09979         1.30397         1.20165 
        1.11537         1.25679         1.16284 
        1.13105         1.20826         1.12552 
        1.14679         1.17967          1.0897 
        1.16256         1.14173         1.05538 
        1.17828         1.11658         1.02265 
        1.19395          1.0765        0.991431 
         1.2097         1.04223        0.961361 
        1.22537         1.00675        0.932688 
          1.241        0.982786        0.905277 
        1.25666        0.962557        0.878904 
        1.27241        0.932244        0.853462 
        1.28819        0.897316        0.828989 
        1.30392        0.875878        0.805551 
        1.31957        0.855521        0.783127 
        1.33529        0.823459        0.761478 
        1.35108        0.805182        0.740565 
        1.36674        0.781948         0.72059 
         1.3824        0.769351        0.701372 
        1.39811         0.74483        0.682795 
        1.41389        0.725533        0.664822 
        1.42964        0.706147        0.647528 
        1.44531        0.689262        0.630937 
        1.46101          0.6684        0.614894 
        1.47667        0.655722        0.599458 
        1.49229         0.63418        0.584595 
        1.50793        0.620314        0.570222 
        1.52367        0.603968         0.55624 
        1.53953        0.587828        0.542636 
        1.55526        0.578385        0.529596 
        1.57092        0.568694        0.517041 
        1.58662        0.557011        0.504864 
        1.60235        0.539364        0.493057 
        1.61809        0.525904        0.481622 
        1.63369        0.510845        0.470653 
        1.64941        0.503113        0.459949 
        1.66519        0.493425        0.449539 
        1.68085         0.47942        0.439527 
        1.69652        0.469401        0.429818 
        1.71228         0.45798        0.420348 
        1.72806        0.449298        0.411157 
        1.74368        0.439325        0.402333 
        1.75933        0.431032        0.393752 
        1.77505        0.423101        0.385381 
        1.79081        0.409288         0.37724 
         1.8065        0.405381        0.369369 
        1.82218        0.393738        0.361731 
        1.83797        0.382725        0.354257 
        1.85367        0.379763        0.347036 
        1.86928        0.370569         0.34006 
        1.88497        0.361091        0.333238 
        1.90073        0.356982        0.326579 
        1.91647        0.347697        0.320108 
        1.93218        0.342043        0.313827 
        1.94787        0.334793        0.307723 
        1.96363        0.328655        0.301759 
        1.97935        0.321516        0.295965 
        1.99499        0.315643        0.290357 
        2.01064        0.309864        0.284886 
         2.0264        0.302343        0.279522 
        2.04216        0.296792        0.274299 
        2.05781        0.292168        0.269242 
        2.07353        0.286017        0.264296 
        2.08928        0.282211        0.259463 
        2.10499        0.275723        0.254765 
        2.12065        0.271022        0.250197 
        2.13633        0.266379        0.245737 
        2.15211        0.260886        0.241358 
        2.16785        0.256988        0.237097 
        2.18349        0.252215        0.232967 
        2.19916        0.246988        0.228926 
        2.21489        0.242145        0.224969 
        2.23063        0.238311        0.221102 
         2.2463        0.234227        0.217343 
        2.26194        0.230601        0.213682 
        2.27765        0.226377        0.210086 
        2.29341         0.22227        0.206564 
        2.30914         0.21747         0.20313 
        2.32486         0.21442        0.199777 
        2.34061        0.210338        0.196493 
        2.35635        0.207272        0.193287 
        2.37203         0.20489        0.190163 
        2.38768         0.20115        0.187115 
        2.40339        0.197195        0.184122 
        2.41914        0.194587        0.181189 
        2.43483        0.190866        0.178329 
         2.4505        0.187601        0.175537 
        2.46622        0.184921        0.172794 
        2.48195        0.181263         0.17011 
        2.49759        0.179899        0.167498 
        2.51328        0.175577        0.164934 
        2.52906        0.172906        0.162407 
        2.54479        0.170338        0.159943 
        2.56049        0.167164        0.157535 
        2.57618        0.165522        0.155178 
        2.59189        0.162122        0.152866 
        2.60758        0.160621        0.150605 
        2.62325        0.157934        0.148393 
        2.63898           0.156        0.146217 
        2.65468         0.15224         0.14409 
        2.67044         0.15058        0.141996 
        2.68618        0.148159        0.139948 
        2.70184        0.146234         0.13795 
        2.71755        0.143688        0.135985 
        2.73329        0.142388        0.134055 
        2.74897        0.139317         0.13217 
        2.76462           0.138        0.130324 
        2.78034        0.135555        0.128507 
        2.79607        0.134034        0.126722 
        2.81179        0.130945        0.124973 
        2.82749        0.129931         0.12326 
        2.84321        0.128189        0.121576 
        2.85893        0.126007        0.119925 
        2.87462        0.124319        0.118307 
        2.89033        0.122508        0.116717 
        2.90605        0.121031        0.115155 
        2.92176        0.119686        0.113623 
        2.93747        0.117662         0.11212 
        2.95318        0.116305        0.110643 
        2.96891        0.114892        0.109192 
        2.98456        0.113551        0.107774 
        3.00023        0.111498        0.106379 
        3.01596        0.110047        0.105005 
        3.03164        0.108483        0.103658 
        3.04738        0.107431        0.102331 
         3.0631        0.105909        0.101028 
        3.07883        0.104379        0.099748 
        3.09456        0.103251       0.0984901 
        3.11026        0.101619       0.0972558 
        3.12596        0.100378       0.0960429 
        3.14163       0.0993416       0.0948534 
        3.15734       0.0983678       0.0936814 
        3.17308       0.0969404       0.0925263 
        3.18879       0.0956776       0.0913939 
        3.20447       0.0943309       0.0902821 
         3.2202       0.0935144       0.0891855 
         3.2359       0.0921886       0.0881089 
        3.25157        0.090878       0.0870528 
        3.26729       0.0901119       0.0860107 
        3.28304       0.0892289       0.0849838 
        3.29877         0.08768       0.0839749 
        3.31446       0.0871536       0.0829846 
        3.33014       0.0860068       0.0820112 
        3.34585       0.0846737        0.081052 
        3.36158        0.083792       0.0801066 
        3.37727       0.0830859       0.0791793 
        3.39294       0.0823027       0.0782676 
        3.40867        0.081174        0.077367 
        3.42439       0.0804974        0.076481 
        3.44008       0.0796935       0.0756106 
        3.45578       0.0789053       0.0747532 
        3.47153          0.0781       0.0739072 
        3.48724       0.0772244       0.0730758 
        3.50292       0.0766347       0.0722591 
        3.51859       0.0756841       0.0714553 
        3.53431       0.0748742       0.0706612 
        3.55007       0.0741653       0.0698773 
        3.56577       0.0737331       0.0691084 
        3.58146       0.0727279       0.0683514 
        3.59719        0.071915        0.067604 
        3.61292       0.0712333        0.066868 
        3.62859       0.0708533       0.0661458 
        3.64429       0.0697444       0.0654329 
        3.66003       0.0695293       0.0647283 
        3.67578       0.0687574       0.0640343 
        3.69146       0.0682121       0.0633532 
        3.70712        0.067526       0.0626832 
        3.72284       0.0668249       0.0620204 
        3.73853       0.0664561       0.0613684 
        3.75422       0.0657131       0.0607255 
        3.76993       0.0651954       0.0600913 
        3.78564       0.0647666       0.0594664 
        3.80137       0.0642821       0.0588493 
        3.81707       0.0633554       0.0582424 
        3.83279       0.0630555       0.0576435 
        3.84853       0.0624542        0.057052 
        3.86424       0.0619077       0.0564701 
        3.87992       0.0615068       0.0558971 
        3.89561       0.0609155        0.055332 
        3.91134       0.0603011       0.0547737 
        3.92704        0.059751       0.0542236 
        3.94273       0.0591929       0.0536817 
        3.95845       0.0586311       0.0531462 
        3.97418       0.0583254       0.0526179 
        3.98988       0.0573426       0.0520975 
        4.00554       0.0570395       0.0515855 
        4.02125       0.0565303        0.051079 
        4.03698       0.0556778       0.0505785 
        4.05268        0.055136       0.0500859 
        4.06839       0.0543307       0.0495994 
         4.0841       0.0534975       0.0491196 
        4.09983       0.0528502       0.0486454 
        4.11555       0.0520716       0.0481778 
        4.13124       0.0514138       0.0477175 
        4.14693       0.0507131       0.0472629 
        4.16266         0.05015       0.0468131 
        4.17839       0.0494884       0.0463695 
        4.19408       0.0488235       0.0459326 
        4.20977       0.0483044       0.0455012 
        4.22551       0.0477437       0.0450743 
        4.24123       0.0472155       0.0446533 
        4.25691       0.0467984       0.0442389 
        4.27259       0.0463094       0.0438295 
        4.28831       0.0459359       0.0434246 
        4.30404       0.0452876       0.0430243 
        4.31974       0.0449403         0.04263 
        4.33543        0.044614       0.0422409 
        4.35116        0.044314       0.0418557 
        4.36688       0.0438043       0.0414754 
        4.38255       0.0434977       0.0411013 
        4.39825       0.0432238        0.040731 
        4.41398         0.04284       0.0403645 
         4.4297       0.0426373       0.0400029 
        4.44541       0.0423593       0.0396459 
        4.46111       0.0420869       0.0392934 
        4.47683       0.0418579        0.038945 
        4.49251       0.0416741       0.0386015 
        4.50819        0.041566       0.0382623 
         4.5239       0.0413009       0.0379266 
        4.53962       0.0411681       0.0375946 
        4.55535       0.0410933       0.0372664 
        4.57106       0.0409065       0.0369426 
        4.58678       0.0408582       0.0366225 
         4.6025       0.0407126       0.0363062 
        4.61821       0.0407448       0.0359937 
        4.63391       0.0406516       0.0356852 
         4.6496       0.0405995       0.0353805 
        4.66532       0.0405855       0.0350789 
        4.68103       0.0406506        0.034781 
        4.69673       0.0405876       0.0344867 
        4.71241       0.0407319       0.0341962 
        4.72811       0.0405642       0.0339086 
        4.74384       0.0406823       0.0336239 
        4.75955       0.0407825       0.0333429 
        4.77525       0.0408823       0.0330653 
        4.79096       0.0410862       0.0327905 
        4.80669       0.0411133       0.0325187 
         4.8224       0.0412774       0.0322502 
        4.83809        0.041403       0.0319851 
        4.85379       0.0416515       0.0317229 
         4.8695       0.0419144       0.0314633 
        4.88521       0.0420014       0.0312068 
        4.90093       0.0423696       0.0309531 
        4.91663       0.0425781       0.0307024 
        4.93234       0.0427763       0.0304543 
        4.94807       0.0430769       0.0302087 
        4.96377       0.0433338       0.0299663 
        4.97943       0.0438929       0.0297271 
        4.99514       0.0440503       0.0294898 
        5.01086       0.0444163        0.029255 
        5.02654       0.0448721       0.0290233 
        5.04227       0.0452443       0.0287935 
          5.058       0.0455431       0.0285661 
        5.07371       0.0461166       0.0283415 
        5.08942       0.0466373       0.0281193 
        5.10513       0.0469897       0.0278995 
        5.12084       0.0474639        0.027682 
        5.13656       0.0480204       0.0274668 
        5.15225       0.0487091       0.0272542 
        5.16796       0.0491952       0.0270436 
        5.18369       0.0497993        0.026835 
         5.1994       0.0503092        0.026629 
        5.21509       0.0510887       0.0264253 
        5.23079       0.0517019       0.0262236 
        5.24649       0.0523974        0.026024 
        5.26217       0.0530695       0.0258267 
        5.27788       0.0540322       0.0256312 
        5.29359       0.0548673       0.0254377 
        5.30933       0.0552892       0.0252459 
        5.32504       0.0562521       0.0250564 
        5.34073       0.0568348        0.024869 
        5.35646       0.0579103       0.0246832 
        5.37218       0.0587449       0.0244992 
        5.38789       0.0597648       0.0243174 
        5.40357       0.0607239       0.0241377 
        5.41929       0.0617083       0.0239594 
        5.43502       0.0630512       0.0237829 
         5.4507       0.0637217       0.0236086 
        5.46639       0.0648408        0.023436 
        5.48212       0.0657951       0.0232647 
        5.49786       0.0672319       0.0230949 
        5.51353       0.0686897       0.0229277 
        5.52921       0.0693947       0.0227619 
        5.54495       0.0709749       0.0225973 
        5.56066       0.0720675       0.0224346 
        5.57637       0.0735727       0.0222734 
        5.59207       0.0744685        0.022114 
        5.60778       0.0759172        0.021956 
        5.62346       0.0775705       0.0217999 
        5.63916       0.0789294       0.0216451 
        5.65487       0.0811948       0.0214917 
         5.6706        0.081574       0.0213396 
        5.68633       0.0835777        0.021189 
        5.70203       0.0853541       0.0210401 
        5.71773       0.0872743       0.0208927 
        5.73344       0.0892405       0.0207466 
        5.74916       0.0911733       0.0206018 
        5.76486       0.0927492       0.0204585 
        5.78054        0.094784       0.0203169 
        5.79626        0.096601       0.0201762 
          5.812       0.0984579       0.0200366 
         5.8277        0.100548       0.0198988 
        5.84339        0.102535       0.0197623 
        5.85911        0.104523       0.0196269 
        5.87484        0.106671       0.0194927 
        5.89053        0.109378         0.01936 
        5.90623        0.112327       0.0192285 
        5.92195        0.113653        0.019098 
        5.93767        0.116387       0.0189688 
        5.95336        0.119093        0.018841 
        5.96905        0.122116       0.0187144 
        5.98476        0.123906       0.0185889 
        6.00048        0.126614       0.0184644 
        6.01617        0.129438       0.0183412 
        6.03185        0.132266       0.0182193 
        6.04756        0.134036       0.0180982 
        6.06331        0.138266        0.017978 
        6.07903        0.141199       0.0178591 
        6.09473        0.143455       0.0177414 
        6.11044        0.148461       0.0176246 
        6.12616        0.149658        0.017509 
        6.14186         0.15373       0.0173944 
        6.15755        0.156823       0.0172809 
        6.17326        0.160768       0.0171684 
        6.18898        0.163564       0.0170568 
        6.20467        0.167457       0.0169463 
        6.22036        0.171108       0.0168369 
         6.2361        0.173656       0.0167281 
         6.2518        0.179156       0.0166205 
        6.26748        0.183082       0.0165141 
        6.28319        0.187011       0.0164082 
        6.29893        0.190916       0.0163033 
        6.31463        0.195327       0.0161994 
        6.33033         0.19829       0.0160965 
        6.34604        0.203361       0.0159944 
        6.36177        0.206711        0.015893 
        6.37747        0.210971       0.0157928 
