# k  (h/Mpc)    Pcb(k)  (Mpc/h)^3    Pcb_linear(k) (Mpc/h)^3   ShotnoiseSubtracted = true
      0.0200456         14495.6         14715.6 
      0.0350414          9833.4         9492.84 
      0.0492313         6482.33          6522.9 
      0.0637834         5254.18         5446.65 
      0.0800726         4028.76         4198.37 
       0.096163         3032.25         2871.92 
       0.111083         2446.01         2284.91 
       0.126058            2066         2071.88 
       0.142273         1751.45         1709.41 
       0.158546         1400.23         1298.63 
        0.17375         1229.01         1105.46 
       0.188953         1150.94         1017.84 
       0.204907         971.327          883.71 
       0.220756         862.231         729.203 
        0.23588         766.145         638.575 
         0.2514         685.082         587.077 
       0.267535         661.577         525.356 
       0.283568          574.69         456.054 
       0.299022         546.503         407.224 
       0.314451         553.785         374.929 
       0.330372         473.201         342.038 
       0.346141         436.552         307.459 
       0.361624         415.677         279.276 
       0.377134         389.071         257.909 
       0.392932         374.675         238.133 
       0.408854         356.678         218.281 
       0.424564         344.082         200.857 
       0.440253         310.879         186.451 
       0.455999         296.107         173.562 
       0.471626         297.312         161.368 
        0.48727         280.395         150.178 
       0.502856         258.042         140.413 
       0.518488         257.906         131.603 
       0.534347         240.104         123.293 
       0.550082         231.712          115.65 
       0.565732         230.463          108.78 
       0.581496         217.797         102.476 
       0.597222         211.491         96.6623 
       0.612804         204.668         91.3024 
       0.628434         198.036         86.3508 
       0.644267         188.708         81.7337 
       0.660051         185.742         77.4677 
       0.675724         182.204         73.5298 
       0.691403         177.925         69.8624 
       0.707174         171.129         66.4245 
       0.722871         168.054         63.2318 
        0.73838         166.269         60.2833 
       0.754018         157.691         57.5008 
       0.769845         157.612          54.864 
        0.78569         152.648         52.3907 
       0.801365         147.678         50.0949 
       0.817031         145.107          47.939 
       0.832809         142.006         45.8971 
       0.848511         138.402         43.9839 
       0.864097         135.206         42.1936 
       0.879701         134.061         40.5017 
       0.895507         130.777         38.8831 
       0.911279         126.959         37.3569 
        0.92691         124.497         35.9256 
       0.942635         122.442         34.5618 
       0.958396         120.535         33.2662 
       0.974128         118.222         32.0398 
       0.989692         114.469         30.8875 
        1.00528          113.68         29.7905 
        1.02113         110.827         28.7298 
        1.03692         109.496          27.725 
        1.05264         108.042          26.773 
        1.06832         105.948         25.8675 
        1.08405         103.825         25.0016 
        1.09979         103.035         24.1751 
        1.11537         100.669         23.3942 
        1.13105         99.2293         22.6434 
        1.14679         97.7194         21.9228 
        1.16256         95.6508         21.2323 
        1.17828         94.7661         20.5739 
        1.19395         92.7455         19.9458 
         1.2097         91.5771         19.3408 
        1.22537          90.268          18.764 
          1.241         88.9439         18.2125 
        1.25666         86.8886         17.6819 
        1.27241         85.4574         17.1701 
        1.28819         84.9001         16.6777 
        1.30392         83.5893         16.2062 
        1.31957         82.2533         15.7551 
        1.33529         80.9946         15.3195 
        1.35108         80.3444         14.8988 
        1.36674         78.9222         14.4969 
         1.3824         78.3429         14.1103 
        1.39811         76.7062         13.7366 
        1.41389         75.6214          13.375 
        1.42964         74.2498         13.0271 
        1.44531         73.7709         12.6933 
        1.46101         72.7801         12.3705 
        1.47667         72.0308           12.06 
        1.49229         71.1249          11.761 
        1.50793         69.9732         11.4718 
        1.52367         69.2659         11.1905 
        1.53953         68.6127         10.9168 
        1.55526         67.1843         10.6545 
        1.57092         66.8494         10.4019 
        1.58662         66.0149         10.1569 
        1.60235         65.1718          9.9194 
        1.61809         64.0318         9.68936 
        1.63369         63.3457         9.46868 
        1.64941         63.1121         9.25333 
        1.66519         61.7842         9.04391 
        1.68085          60.796         8.84249 
        1.69652         60.0052         8.64716 
        1.71228         59.2871         8.45664 
        1.72806         59.1264         8.27172 
        1.74368         57.9658         8.09421 
        1.75933         57.4667         7.92157 
        1.77505         56.9307         7.75317 
        1.79081         55.9313         7.58938 
         1.8065         55.5632         7.43104 
        1.82218         54.6205         7.27736 
        1.83797         53.9907           7.127 
        1.85367         53.3903         6.98172 
        1.86928         52.7575         6.84138 
        1.88497         52.2133         6.70414 
        1.90073         51.5246         6.57017 
        1.91647          51.113         6.43999 
        1.93218         50.3724         6.31362 
        1.94787          49.754         6.19083 
        1.96363         49.1919         6.07084 
        1.97935         48.6776         5.95428 
        1.99499         48.0512         5.84144 
        2.01064         47.5527         5.73138 
         2.0264         47.1069         5.62346 
        2.04216         46.4286         5.51839 
        2.05781          45.829         5.41667 
        2.07353         45.3171         5.31715 
        2.08928         44.9315         5.21993 
        2.10499         44.3443          5.1254 
        2.12065         43.9523          5.0335 
        2.13633         43.5275         4.94378 
        2.15211         42.9958         4.85568 
        2.16785          42.265         4.76997 
        2.18349         41.8411         4.68687 
        2.19916         41.4906         4.60558 
        2.21489         41.1506         4.52596 
        2.23063         40.6604         4.44816 
         2.2463         40.1542         4.37255 
        2.26194         39.8942         4.29889 
        2.27765         39.3015         4.22656 
        2.29341         38.7765          4.1557 
        2.30914         38.2627         4.08661 
        2.32486         37.9777         4.01914 
        2.34061         37.6155         3.95308 
        2.35635         37.1396         3.88857 
        2.37203         36.5447         3.82573 
        2.38768         36.4955          3.7644 
        2.40339         36.0123          3.7042 
        2.41914         35.6554         3.64518 
        2.43483         35.1518         3.58766 
         2.4505         34.9992         3.53148 
        2.46622         34.5145         3.47631 
        2.48195         34.1139         3.42231 
        2.49759         33.7575         3.36975 
        2.51328         33.4156         3.31817 
        2.52906         33.1519         3.26733 
        2.54479         32.9383         3.21776 
        2.56049         32.2485         3.16931 
        2.57618         32.0707          3.1219 
        2.59189         31.8286         3.07539 
        2.60758         31.2705         3.02991 
        2.62325         31.2751          2.9854 
        2.63898         30.8215         2.94163 
        2.65468         30.4059         2.89883 
        2.67044         30.3255          2.8567 
        2.68618         29.9405         2.81551 
        2.70184         29.4922         2.77529 
        2.71755         29.2486         2.73576 
        2.73329         28.9254         2.69695 
        2.74897         28.6891         2.65901 
        2.76462         28.3047         2.62189 
        2.78034          28.161         2.58532 
        2.79607         27.7986         2.54942 
        2.81179           27.49         2.51423 
        2.82749         27.3202         2.47976 
        2.84321         26.9443         2.44589 
        2.85893         26.6921         2.41266 
        2.87462         26.4414         2.38011 
        2.89033         26.2179         2.34814 
        2.90605         25.9274         2.31672 
        2.92176         25.8096         2.28589 
        2.93747         25.5343         2.25564 
        2.95318         25.3003         2.22594 
        2.96891         24.9808         2.19675 
        2.98456         24.8201         2.16822 
        3.00023         24.5629         2.14015 
        3.01596         24.2487          2.1125 
        3.03164         23.9738         2.08541 
        3.04738         23.8049         2.05872 
         3.0631         23.6262         2.03251 
        3.07883         23.2753         2.00675 
        3.09456         23.0641         1.98144 
        3.11026          22.825         1.95661 
        3.12596         22.6248         1.93221 
        3.14163         22.4074         1.90828 
        3.15734         22.2263          1.8847 
        3.17308         21.9559         1.86146 
        3.18879         21.8068         1.83868 
        3.20447         21.6242         1.81631 
         3.2202         21.3723         1.79425 
         3.2359         21.1401         1.77259 
        3.25157         20.9678         1.75134 
        3.26729          20.882         1.73038 
        3.28304         20.5173         1.70972 
        3.29877         20.4079         1.68942 
        3.31446         20.2174          1.6695 
        3.33014         19.9783         1.64992 
        3.34585         19.8358         1.63062 
        3.36158         19.6462          1.6116 
        3.37727         19.4463         1.59294 
        3.39294         19.3041          1.5746 
        3.40867         19.1086         1.55648 
        3.42439         18.9368         1.53866 
        3.44008         18.7389         1.52115 
        3.45578         18.5716          1.5039 
        3.47153         18.4243         1.48688 
        3.48724         18.2394         1.47015 
        3.50292         18.0952         1.45372 
        3.51859         17.9421         1.43755 
        3.53431         17.7699         1.42157 
        3.55007         17.6161          1.4058 
        3.56577         17.4234         1.39033 
        3.58146         17.2786          1.3751 
        3.59719         17.1253         1.36007 
        3.61292         17.0033         1.34526 
        3.62859         16.7608         1.33073 
        3.64429         16.5878         1.31639 
        3.66003         16.5692         1.30221 
        3.67578         16.3346         1.28825 
        3.69146         16.2782         1.27455 
        3.70712         16.0668         1.26107 
        3.72284         15.9009         1.24774 
        3.73853         15.8159         1.23462 
        3.75422         15.6233         1.22169 
        3.76993         15.4955         1.20893 
        3.78564         15.3725         1.19635 
        3.80137         15.2484         1.18394 
        3.81707         15.0903         1.17173 
        3.83279         14.9732         1.15968 
        3.84853          14.768         1.14778 
        3.86424         14.7014         1.13607 
        3.87992         14.5982         1.12455 
        3.89561         14.4324         1.11318 
        3.91134         14.3499         1.10195 
        3.92704         14.2255         1.09088 
        3.94273         14.0711         1.07998 
        3.95845         13.9813          1.0692 
        3.97418         13.8313         1.05858 
        3.98988         13.7207         1.04811 
        4.00554          13.604         1.03781 
        4.02125         13.4675         1.02762 
        4.03698         13.3446         1.01755 
        4.05268         13.2282         1.00764 
        4.06839         13.1083         0.99785 
         4.0841         13.0248        0.988197 
        4.09983         12.9172        0.978658 
        4.11555         12.8016        0.969249 
        4.13124          12.687        0.959989 
        4.14693         12.6396        0.950842 
        4.16266           12.52        0.941794 
        4.17839         12.3756         0.93287 
        4.19408         12.2553        0.924081 
        4.20977         12.1867        0.915401 
        4.22551          12.089        0.906812 
        4.24123         11.9499        0.898343 
        4.25691         11.8423        0.890005 
        4.27259         11.7776         0.88177 
        4.28831         11.7187        0.873623 
        4.30404         11.5764        0.865571 
        4.31974         11.4997        0.857638 
        4.33543         11.3981        0.849809 
        4.35116           11.29         0.84206 
        4.36688         11.1597        0.834409 
        4.38255         11.1133        0.826883 
        4.39825          11.024        0.819433 
        4.41398         10.9126         0.81206 
         4.4297         10.8295        0.804786 
        4.44541         10.7197        0.797602 
        4.46111         10.6747        0.790512 
        4.47683         10.5569        0.783502 
        4.49251         10.4748        0.776592 
        4.50819         10.3749        0.769767 
         4.5239         10.2996        0.763015 
        4.53962         10.2219        0.756335 
        4.55535         10.1488        0.749732 
        4.57106         10.0865        0.743217 
        4.58678          9.9826        0.736778 
         4.6025         9.90731        0.730415 
        4.61821          9.8173        0.724127 
        4.63391         9.74875        0.717922 
         4.6496         9.66437        0.711792 
        4.66532         9.60275        0.705724 
        4.68103         9.50144        0.699729 
        4.69673          9.4499         0.69381 
        4.71241         9.35512        0.687966 
        4.72811          9.3033        0.682179 
        4.74384          9.2217        0.676451 
        4.75955         9.12495        0.670798 
        4.77525         9.08511        0.665213 
        4.79096         9.01229        0.659684 
        4.80669         8.93957        0.654216 
         4.8224         8.86207        0.648816 
        4.83809         8.81083        0.643483 
        4.85379         8.71285        0.638206 
         4.8695         8.65217        0.632984 
        4.88521         8.58139        0.627823 
        4.90093         8.53155        0.622719 
        4.91663         8.43342        0.617676 
        4.93234          8.4133        0.612684 
        4.94807         8.31578        0.607744 
        4.96377         8.26042        0.602867 
        4.97943         8.19912        0.598054 
        4.99514         8.13772        0.593281 
        5.01086         8.06706        0.588557 
        5.02654          8.0179        0.583897 
        5.04227         7.95004        0.579273 
          5.058         7.89657        0.574697 
        5.07371         7.83119        0.570179 
        5.08942         7.76058         0.56571 
        5.10513         7.72939        0.561288 
        5.12084         7.66698        0.556911 
        5.13656         7.60982        0.552582 
        5.15225         7.53724        0.548306 
        5.16796         7.48858        0.544068 
        5.18369         7.42725        0.539871 
         5.1994         7.38568        0.535727 
        5.21509         7.32327        0.531629 
        5.23079         7.26082         0.52757 
        5.24649         7.22443        0.523556 
        5.26217         7.16089        0.519587 
        5.27788         7.10877        0.515653 
        5.29359         7.06432         0.51176 
        5.30933         7.02197        0.507901 
        5.32504         6.96707        0.504088 
        5.34073         6.89901        0.500319 
        5.35646         6.84911        0.496581 
        5.37218         6.81473         0.49288 
        5.38789          6.7747        0.489223 
        5.40357         6.71569        0.485607 
        5.41929         6.66623         0.48202 
        5.43502         6.61056        0.478468 
         5.4507         6.57905        0.474961 
        5.46639         6.51067        0.471489 
        5.48212           6.471        0.468043 
        5.49786         6.43067        0.464627 
        5.51353         6.38054        0.461263 
        5.52921         6.34589        0.457928 
        5.54495         6.31167        0.454617 
        5.56066         6.23462        0.451342 
        5.57637         6.21228          0.4481 
        5.59207         6.17798        0.444893 
        5.60778         6.11899        0.441715 
        5.62346         6.08329        0.438574 
        5.63916         6.03914        0.435459 
        5.65487          6.0101        0.432374 
         5.6706          5.9531        0.429315 
        5.68633         5.93059        0.426284 
        5.70203         5.87588        0.423289 
        5.71773         5.85314        0.420323 
        5.73344         5.79508        0.417384 
        5.74916         5.75266         0.41447 
        5.76486         5.71098        0.411588 
        5.78054         5.68094        0.408739 
        5.79626         5.64303        0.405908 
          5.812         5.59947        0.403101 
         5.8277         5.56448        0.400328 
        5.84339         5.52528        0.397582 
        5.85911         5.48242        0.394857 
        5.87484         5.44042        0.392157 
        5.89053         5.42292        0.389488 
        5.90623         5.38135        0.386843 
        5.92195         5.34469        0.384218 
        5.93767         5.29861        0.381618 
        5.95336         5.27206        0.379047 
        5.96905         5.23663        0.376501 
        5.98476         5.20139        0.373974 
        6.00048         5.16389         0.37147 
        6.01617         5.13705        0.368992 
        6.03185         5.09493        0.366539 
        6.04756         5.06703        0.364103 
        6.06331         5.03675        0.361684 
        6.07903         4.99256        0.359293 
        6.09473         4.95949        0.356924 
        6.11044         4.93867        0.354576 
        6.12616         4.90233        0.352248 
        6.14186          4.8738        0.349944 
        6.15755          4.8411        0.347661 
        6.17326         4.81166        0.345396 
        6.18898         4.78031        0.343151 
        6.20467         4.74535        0.340929 
        6.22036         4.71897        0.338728 
         6.2361         4.68587        0.336539 
         6.2518         4.65533        0.334374 
        6.26748         4.63048        0.332233 
        6.28319          4.5965        0.330104 
        6.29893         4.57174        0.327992 
        6.31463         4.54439        0.325902 
        6.33033         4.52044        0.323832 
        6.34604         4.48505        0.321777 
        6.36177         4.46212        0.319739 
        6.37747         4.42264        0.317722 
