# k  (h/Mpc)    Pcb(k)  (Mpc/h)^3    Pcb_linear(k) (Mpc/h)^3   ShotnoiseSubtracted = true
      0.0200456         8216.54         8330.22 
      0.0350414         5536.05         5373.72 
      0.0492313         3689.67         3692.49 
      0.0637834         3000.97         3083.25 
      0.0800726         2304.76         2376.62 
       0.096163         1697.15         1625.74 
       0.111083         1365.19         1293.44 
       0.126058         1166.82         1172.86 
       0.142273         976.765         967.667 
       0.158546         774.948         735.132 
        0.17375         673.568         625.778 
       0.188953         622.839          576.18 
       0.204907         522.746         500.252 
       0.220756         459.183         412.788 
        0.23588          405.97         361.485 
         0.2514         364.568         332.333 
       0.267535          346.63         297.394 
       0.283568         299.283         258.164 
       0.299022         281.677         230.522 
       0.314451         275.518          212.24 
       0.330372          237.72         193.621 
       0.346141         218.714         174.047 
       0.361624         205.655         158.093 
       0.377134         188.683         145.998 
       0.392932         182.675         134.803 
       0.408854         172.266         123.565 
       0.424564         164.002         113.701 
       0.440253         148.275         105.546 
       0.455999         138.277           98.25 
       0.471626         135.018         91.3476 
        0.48727         129.253          85.013 
       0.502856         117.903         79.4854 
       0.518488         116.104         74.4983 
       0.534347         108.356         69.7936 
       0.550082         105.556         65.4674 
       0.565732         103.123         61.5781 
       0.581496         94.5823         58.0096 
       0.597222          92.246         54.7187 
       0.612804         88.6686         51.6846 
       0.628434         86.5041         48.8815 
       0.644267          81.745         46.2679 
       0.660051         79.2626          43.853 
       0.675724         77.2775         41.6238 
       0.691403         75.5654         39.5478 
       0.707174          72.644         37.6017 
       0.722871         71.0951         35.7944 
        0.73838         68.8476         34.1252 
       0.754018         64.6941         32.5501 
       0.769845         64.2087         31.0575 
        0.78569         62.1904         29.6574 
       0.801365         60.0536         28.3578 
       0.817031          58.023         27.1374 
       0.832809         56.8687         25.9815 
       0.848511         55.5227         24.8985 
       0.864097         54.3967          23.885 
       0.879701         53.1544         22.9272 
       0.895507         51.1628          22.011 
       0.911279         50.1621          21.147 
        0.92691         49.0193         20.3368 
       0.942635         47.7453         19.5648 
       0.958396         47.5702         18.8314 
       0.974128          46.333         18.1371 
       0.989692         44.9697         17.4848 
        1.00528         44.0764         16.8638 
        1.02113          43.031         16.2634 
        1.03692         42.7902         15.6946 
        1.05264         41.7916         15.1557 
        1.06832         40.7035         14.6431 
        1.08405         39.9269         14.1529 
        1.09979         39.5862          13.685 
        1.11537          38.502          13.243 
        1.13105         37.5538          12.818 
        1.14679         37.0784         12.4101 
        1.16256          36.526         12.0192 
        1.17828         36.0796         11.6465 
        1.19395         35.0276         11.2909 
         1.2097         35.0072         10.9485 
        1.22537          34.055         10.6219 
          1.241         33.6861         10.3098 
        1.25666         32.7822         10.0094 
        1.27241         32.6718         9.71967 
        1.28819         31.8788         9.44096 
        1.30392         31.4369         9.17404 
        1.31957         31.1855         8.91866 
        1.33529         30.6138         8.67211 
        1.35108         30.0637         8.43394 
        1.36674         29.5857         8.20645 
         1.3824         29.1421         7.98759 
        1.39811         28.6138         7.77602 
        1.41389         28.2292         7.57133 
        1.42964          28.106         7.37439 
        1.44531         27.4682         7.18544 
        1.46101         27.2017         7.00273 
        1.47667         26.8611         6.82694 
        1.49229         26.3214         6.65768 
        1.50793         26.1584         6.49398 
        1.52367         25.6229         6.33475 
        1.53953         25.5539         6.17982 
        1.55526         25.0669         6.03132 
        1.57092         24.8024         5.88833 
        1.58662         24.4377         5.74965 
        1.60235         24.1047         5.61518 
        1.61809         23.8349         5.48497 
        1.63369         23.5582         5.36004 
        1.64941         23.2225         5.23813 
        1.66519         22.9701         5.11959 
        1.68085           22.54         5.00557 
        1.69652         22.3189         4.89499 
        1.71228         22.2404         4.78714 
        1.72806         21.8352         4.68247 
        1.74368         21.5152         4.58198 
        1.75933         21.3936         4.48425 
        1.77505         21.1579         4.38892 
        1.79081         20.8746          4.2962 
         1.8065         20.6524         4.20657 
        1.82218         20.3828         4.11958 
        1.83797         20.2809         4.03446 
        1.85367         19.9995         3.95222 
        1.86928         19.9305         3.87278 
        1.88497          19.568         3.79509 
        1.90073         19.3852         3.71925 
        1.91647         19.1414         3.64555 
        1.93218         19.0879         3.57402 
        1.94787         18.8325         3.50451 
        1.96363         18.5936         3.43659 
        1.97935         18.3578          3.3706 
        1.99499         18.2334         3.30673 
        2.01064         17.9378         3.24443 
         2.0264          17.835         3.18334 
        2.04216         17.7685         3.12386 
        2.05781         17.4718         3.06627 
        2.07353         17.3416         3.00994 
        2.08928         17.0756          2.9549 
        2.10499         16.8781         2.90139 
        2.12065         16.7508         2.84937 
        2.13633         16.6468         2.79858 
        2.15211         16.3852         2.74871 
        2.16785         16.3577         2.70019 
        2.18349         16.1412         2.65315 
        2.19916         15.9627         2.60713 
        2.21489         15.7601         2.56206 
        2.23063         15.6808         2.51802 
         2.2463         15.5143         2.47522 
        2.26194         15.3234         2.43352 
        2.27765         15.1612         2.39257 
        2.29341         14.9898         2.35246 
        2.30914         14.8579         2.31335 
        2.32486          14.802         2.27516 
        2.34061         14.6148         2.23777 
        2.35635         14.4306         2.20125 
        2.37203         14.3344         2.16567 
        2.38768          14.182         2.13096 
        2.40339         14.1514         2.09688 
        2.41914         13.9919         2.06347 
        2.43483         13.8133         2.03091 
         2.4505          13.644          1.9991 
        2.46622         13.5708         1.96787 
        2.48195         13.4422         1.93731 
        2.49759         13.2832         1.90755 
        2.51328         13.1799         1.87835 
        2.52906         13.0722         1.84958 
        2.54479         12.9587         1.82151 
        2.56049         12.8232         1.79409 
        2.57618         12.7786         1.76725 
        2.59189          12.613         1.74092 
        2.60758         12.4546         1.71517 
        2.62325         12.3712         1.68998 
        2.63898         12.3262          1.6652 
        2.65468         12.1504         1.64097 
        2.67044         12.0714         1.61712 
        2.68618         11.9533         1.59381 
        2.70184          11.869         1.57104 
        2.71755         11.7281         1.54866 
        2.73329         11.6645         1.52669 
        2.74897         11.5483         1.50522 
        2.76462         11.4553          1.4842 
        2.78034           11.35          1.4635 
        2.79607          11.255         1.44318 
        2.81179         11.1998         1.42326 
        2.82749         11.0777         1.40374 
        2.84321         10.9939         1.38457 
        2.85893         10.8604         1.36576 
        2.87462         10.8046         1.34734 
        2.89033         10.6829         1.32924 
        2.90605         10.6212         1.31145 
        2.92176         10.5375           1.294 
        2.93747          10.448         1.27688 
        2.95318         10.3756         1.26006 
        2.96891         10.2566         1.24354 
        2.98456         10.1784         1.22739 
        3.00023         10.1167          1.2115 
        3.01596         10.0453         1.19585 
        3.03164         9.94116         1.18051 
        3.04738         9.85975          1.1654 
         3.0631         9.74145         1.15056 
        3.07883         9.69213         1.13598 
        3.09456         9.59294         1.12166 
        3.11026         9.52135          1.1076 
        3.12596         9.47739         1.09379 
        3.14163         9.36951         1.08024 
        3.15734         9.32006         1.06689 
        3.17308         9.25008         1.05374 
        3.18879         9.15997         1.04084 
        3.20447         9.10375         1.02818 
         3.2202         9.01217         1.01569 
         3.2359         8.92333         1.00343 
        3.25157         8.87864        0.991402 
        3.26729         8.78831        0.979535 
        3.28304         8.70982        0.967839 
        3.29877         8.67633         0.95635 
        3.31446         8.60591        0.945072 
        3.33014         8.53878        0.933987 
        3.34585         8.42415        0.923062 
        3.36158         8.40139        0.912296 
        3.37727         8.33417        0.901735 
        3.39294         8.26803        0.891352 
        3.40867         8.22073        0.881095 
        3.42439         8.12997        0.871005 
        3.44008         8.07721        0.861093 
        3.45578         8.00339        0.851328 
        3.47153         7.95688        0.841694 
        3.48724         7.87549        0.832225 
        3.50292         7.81156        0.822924 
        3.51859         7.76571         0.81377 
        3.53431         7.68841        0.804727 
        3.55007         7.62263        0.795799 
        3.56577         7.55033        0.787042 
        3.58146         7.51755        0.778421 
        3.59719         7.44227        0.769909 
        3.61292         7.40901        0.761528 
        3.62859         7.36417        0.753303 
        3.64429         7.29409        0.745183 
        3.66003         7.23632        0.737159 
        3.67578         7.19318        0.729256 
        3.69146         7.13894        0.721499 
        3.70712         7.07655        0.713869 
        3.72284         7.03075        0.706321 
        3.73853         6.98489        0.698895 
        3.75422         6.93907        0.691573 
        3.76993         6.86488        0.684351 
        3.78564         6.83176        0.677234 
        3.80137         6.76094        0.670207 
        3.81707         6.70566        0.663294 
        3.83279         6.65966        0.656474 
        3.84853           6.613        0.649738 
        3.86424         6.55955        0.643111 
        3.87992         6.53861        0.636585 
        3.89561         6.47057         0.63015 
        3.91134         6.41841        0.623791 
        3.92704         6.36115        0.617527 
        3.94273         6.32685        0.611355 
        3.95845         6.27374        0.605256 
        3.97418         6.23133         0.59924 
        3.98988         6.18605        0.593313 
        4.00554         6.14125        0.587483 
        4.02125         6.10393        0.581714 
        4.03698         6.04929        0.576015 
        4.05268         6.00022        0.570404 
        4.06839         5.93555        0.564864 
         4.0841         5.91538        0.559399 
        4.09983         5.85031           0.554 
        4.11555         5.82299        0.548673 
        4.13124         5.78112        0.543432 
        4.14693         5.73478        0.538254 
        4.16266         5.69682        0.533132 
        4.17839         5.64817         0.52808 
        4.19408         5.62213        0.523105 
        4.20977         5.56782        0.518191 
        4.22551         5.53971        0.513329 
        4.24123         5.48938        0.508535 
        4.25691          5.4508        0.503815 
        4.27259         5.39771        0.499153 
        4.28831         5.36561        0.494541 
        4.30404         5.31916        0.489983 
        4.31974          5.2829        0.485493 
        4.33543         5.23856        0.481061 
        4.35116         5.20975        0.476674 
        4.36688         5.17453        0.472343 
        4.38255         5.14545        0.468083 
        4.39825         5.10221        0.463866 
        4.41398         5.05075        0.459692 
         4.4297         5.02266        0.455574 
        4.44541         4.99527        0.451508 
        4.46111         4.96488        0.447494 
        4.47683         4.93283        0.443526 
        4.49251         4.89605        0.439614 
        4.50819          4.8643        0.435751 
         4.5239         4.81111        0.431928 
        4.53962         4.79697        0.428147 
        4.55535         4.74922        0.424409 
        4.57106         4.72942        0.420721 
        4.58678         4.68229        0.417076 
         4.6025         4.66192        0.413474 
        4.61821         4.63684        0.409915 
        4.63391         4.59565        0.406402 
         4.6496         4.56198        0.402932 
        4.66532         4.51834        0.399497 
        4.68103         4.49878        0.396104 
        4.69673         4.47216        0.392753 
        4.71241         4.44351        0.389444 
        4.72811         4.40459        0.386169 
        4.74384         4.38187        0.382926 
        4.75955         4.34019        0.379726 
        4.77525         4.31444        0.376564 
        4.79096         4.29481        0.373435 
        4.80669         4.26541        0.370339 
         4.8224         4.23337        0.367282 
        4.83809         4.20269        0.364263 
        4.85379         4.17777        0.361276 
         4.8695         4.14287         0.35832 
        4.88521         4.12237        0.355399 
        4.90093         4.08784         0.35251 
        4.91663         4.06022        0.349655 
        4.93234         4.03721        0.346829 
        4.94807         4.00963        0.344032 
        4.96377         3.98615        0.341272 
        4.97943         3.95491        0.338547 
        4.99514         3.94215        0.335845 
        5.01086         3.90671        0.333171 
        5.02654         3.88165        0.330533 
        5.04227          3.8621        0.327915 
          5.058         3.82523        0.325325 
        5.07371         3.80226        0.322768 
        5.08942         3.78496        0.320238 
        5.10513         3.75824        0.317734 
        5.12084         3.74716        0.315257 
        5.13656         3.70574        0.312806 
        5.15225         3.68772        0.310385 
        5.16796         3.66501        0.307987 
        5.18369         3.63728        0.305611 
         5.1994         3.61148        0.303265 
        5.21509         3.59787        0.300945 
        5.23079         3.56772        0.298647 
        5.24649         3.55079        0.296375 
        5.26217         3.52277        0.294128 
        5.27788         3.50539        0.291902 
        5.29359         3.47498        0.289698 
        5.30933         3.46576        0.287513 
        5.32504         3.43821        0.285355 
        5.34073         3.42281        0.283221 
        5.35646         3.40174        0.281105 
        5.37218         3.37788         0.27901 
        5.38789         3.35634         0.27694 
        5.40357         3.33208        0.274893 
        5.41929          3.3108        0.272862 
        5.43502          3.2949        0.270852 
         5.4507         3.26825        0.268866 
        5.46639         3.25071        0.266901 
        5.48212         3.23687         0.26495 
        5.49786         3.20494        0.263017 
        5.51353         3.19062        0.261112 
        5.52921         3.17451        0.259225 
        5.54495         3.15746         0.25735 
        5.56066         3.13839        0.255496 
        5.57637         3.11134        0.253661 
        5.59207         3.10013        0.251845 
        5.60778         3.07957        0.250047 
        5.62346         3.06802        0.248268 
        5.63916         3.04547        0.246505 
        5.65487         3.02335        0.244759 
         5.6706         3.00845        0.243027 
        5.68633         2.98859        0.241311 
        5.70203         2.97206        0.239616 
        5.71773         2.95038        0.237937 
        5.73344         2.93599        0.236273 
        5.74916         2.91733        0.234624 
        5.76486         2.90312        0.232992 
        5.78054           2.882        0.231379 
        5.79626         2.87024        0.229777 
          5.812           2.856        0.228188 
         5.8277         2.82763        0.226618 
        5.84339         2.81925        0.225064 
        5.85911         2.80667        0.223521 
        5.87484         2.78403        0.221993 
        5.89053         2.76659        0.220482 
        5.90623          2.7564        0.218985 
        5.92195         2.73947        0.217498 
        5.93767         2.72494        0.216027 
        5.95336          2.7057        0.214571 
        5.96905         2.69618         0.21313 
        5.98476         2.67409          0.2117 
        6.00048          2.6618        0.210282 
        6.01617         2.64566        0.208879 
        6.03185         2.63758        0.207491 
        6.04756         2.61605        0.206112 
        6.06331         2.60337        0.204743 
        6.07903         2.58423        0.203389 
        6.09473         2.57167        0.202048 
        6.11044         2.55511        0.200719 
        6.12616         2.54713        0.199401 
        6.14186         2.52985        0.198097 
        6.15755         2.51935        0.196804 
        6.17326         2.50035        0.195522 
        6.18898         2.48836        0.194251 
        6.20467         2.47881        0.192994 
        6.22036         2.46235        0.191747 
         6.2361         2.44758        0.190509 
         6.2518         2.43298        0.189283 
        6.26748         2.42662        0.188071 
        6.28319         2.41374        0.186866 
        6.29893         2.39801         0.18567 
        6.31463         2.38408        0.184487 
        6.33033         2.37199        0.183315 
        6.34604         2.36165        0.182152 
        6.36177         2.34656        0.180998 
        6.37747         2.33718        0.179856 
