# k  (h/Mpc)    Pcb(k)  (Mpc/h)^3    Pcb_linear(k) (Mpc/h)^3   ShotnoiseSubtracted = true
      0.0200456           22766         23152.6 
      0.0350414         15548.6         14935.5 
      0.0492313         10127.7         10262.7 
      0.0637834         8191.76         8569.43 
      0.0800726         6270.85         6605.46 
       0.096163         4824.37          4518.5 
       0.111083         3896.37         3594.93 
       0.126058         3263.52         3259.78 
       0.142273         2805.64         2689.49 
       0.158546         2249.03         2043.19 
        0.17375         2002.99         1739.26 
       0.188953         1901.86         1601.41 
       0.204907         1615.39         1390.38 
       0.220756          1449.5         1147.28 
        0.23588         1289.98         1004.69 
         0.2514         1160.58          923.67 
       0.267535            1119         826.563 
       0.283568         987.423         717.528 
       0.299022         937.281         640.701 
       0.314451         974.318          589.89 
       0.330372         846.334         538.142 
       0.346141         776.145         483.737 
       0.361624         742.537         439.395 
       0.377134         709.278         405.779 
       0.392932         673.166         374.664 
       0.408854          645.43          343.43 
       0.424564         627.987         316.016 
       0.440253         576.732          293.35 
       0.455999         549.697         273.071 
       0.471626         560.381         253.887 
        0.48727         525.301         236.281 
       0.502856         500.718         220.918 
       0.518488         486.543         207.057 
       0.534347         465.059         193.981 
       0.550082         442.302         181.957 
       0.565732         436.304         171.147 
       0.581496         425.026         161.229 
       0.597222         414.198         152.083 
       0.612804         402.744          143.65 
       0.628434         386.829         135.859 
       0.644267         373.818         128.595 
       0.660051         369.544         121.883 
       0.675724         360.056         115.687 
       0.691403          352.47         109.917 
       0.707174         339.538         104.508 
       0.722871         335.546         99.4851 
        0.73838         327.757          94.846 
       0.754018          317.49         90.4682 
       0.769845             316         86.3197 
        0.78569         307.424         82.4284 
       0.801365         296.947         78.8162 
       0.817031         295.705         75.4243 
       0.832809         289.225         72.2117 
       0.848511           284.3         69.2016 
       0.864097         275.178         66.3847 
       0.879701         274.865         63.7229 
       0.895507         265.687         61.1763 
       0.911279         260.391          58.775 
        0.92691         257.975         56.5231 
       0.942635         254.328         54.3774 
       0.958396          247.07          52.339 
       0.974128         244.673         50.4094 
       0.989692         236.203         48.5965 
        1.00528         234.909         46.8706 
        1.02113         232.362         45.2018 
        1.03692         227.677         43.6208 
        1.05264          223.34         42.1231 
        1.06832         220.502         40.6983 
        1.08405         217.075          39.336 
        1.09979         213.302         38.0356 
        1.11537         210.122          36.807 
        1.13105         205.953         35.6257 
        1.14679         204.198         34.4919 
        1.16256         201.447         33.4055 
        1.17828          198.58         32.3697 
        1.19395         193.619         31.3815 
         1.2097         193.226         30.4297 
        1.22537         190.798         29.5221 
          1.241         184.554         28.6545 
        1.25666         184.217         27.8197 
        1.27241         181.132         27.0144 
        1.28819         178.452         26.2397 
        1.30392         176.877         25.4979 
        1.31957         172.424         24.7881 
        1.33529         169.275         24.1028 
        1.35108          169.09         23.4409 
        1.36674          164.16         22.8086 
         1.3824         163.341         22.2003 
        1.39811         162.108         21.6123 
        1.41389         158.146         21.0434 
        1.42964         155.447          20.496 
        1.44531         154.949         19.9709 
        1.46101         151.956          19.463 
        1.47667         150.715         18.9745 
        1.49229         148.922          18.504 
        1.50793          145.93         18.0491 
        1.52367         143.991         17.6065 
        1.53953         141.619         17.1759 
        1.55526         140.408         16.7632 
        1.57092         139.377         16.3657 
        1.58662         136.299         15.9803 
        1.60235         135.019         15.6066 
        1.61809         132.775         15.2446 
        1.63369         130.544         14.8974 
        1.64941         129.709         14.5586 
        1.66519         127.467         14.2291 
        1.68085          125.68         13.9122 
        1.69652         124.577         13.6049 
        1.71228         122.278         13.3052 
        1.72806          121.61         13.0142 
        1.74368         120.198         12.7349 
        1.75933         118.793         12.4633 
        1.77505         117.272         12.1984 
        1.79081         115.194         11.9407 
         1.8065         113.376         11.6915 
        1.82218         111.864         11.4498 
        1.83797         111.053         11.2132 
        1.85367         109.853         10.9846 
        1.86928         108.802         10.7638 
        1.88497         107.135         10.5479 
        1.90073         106.331         10.3371 
        1.91647         104.345         10.1323 
        1.93218          103.22         9.93346 
        1.94787          101.47         9.74028 
        1.96363         100.977         9.55148 
        1.97935         99.7814          9.3681 
        1.99499         98.6599         9.19057 
        2.01064         96.9637          9.0174 
         2.0264         95.7698         8.84761 
        2.04216         94.5909         8.68229 
        2.05781          93.354         8.52225 
        2.07353         92.7032         8.36568 
        2.08928         91.3015         8.21271 
        2.10499          90.693         8.06399 
        2.12065          89.167          7.9194 
        2.13633          88.449         7.77824 
        2.15211         86.9876         7.63962 
        2.16785         85.9979         7.50477 
        2.18349         84.5313         7.37403 
        2.19916         84.2962         7.24614 
        2.21489         83.1747         7.12086 
        2.23063         81.6473         6.99847 
         2.2463         80.9401         6.87951 
        2.26194         80.3642         6.76362 
        2.27765         78.8573          6.6498 
        2.29341         78.0975         6.53832 
        2.30914         76.9785         6.42963 
        2.32486         76.0241         6.32347 
        2.34061         75.0395         6.21954 
        2.35635         74.5911         6.11804 
        2.37203          73.367         6.01916 
        2.38768         72.6724         5.92268 
        2.40339         71.7164         5.82797 
        2.41914         70.9483         5.73511 
        2.43483         70.2458          5.6446 
         2.4505         69.2281         5.55621 
        2.46622         68.4679         5.46941 
        2.48195         68.0636         5.38446 
        2.49759          66.888         5.30177 
        2.51328         65.9571          5.2206 
        2.52906         65.2712         5.14062 
        2.54479          64.671         5.06262 
        2.56049         63.7386          4.9864 
        2.57618         63.1114         4.91181 
        2.59189         62.3108         4.83863 
        2.60758         61.5442         4.76707 
        2.62325         60.9227         4.69704 
        2.63898         60.5514         4.62818 
        2.65468         59.7277         4.56084 
        2.67044         59.0633         4.49456 
        2.68618         58.7204         4.42975 
        2.70184         57.7698         4.36648 
        2.71755         57.1989         4.30428 
        2.73329         56.3431         4.24321 
        2.74897         55.9409         4.18352 
        2.76462          55.257         4.12512 
        2.78034         54.5922         4.06759 
        2.79607         54.2686          4.0111 
        2.81179         53.6347         3.95574 
        2.82749         53.2096          3.9015 
        2.84321         52.5094         3.84821 
        2.85893         51.8582         3.79594 
        2.87462         51.4981         3.74473 
        2.89033         50.7396         3.69441 
        2.90605         50.2351         3.64498 
        2.92176         49.7076         3.59648 
        2.93747         49.3966         3.54889 
        2.95318         48.7461         3.50215 
        2.96891         48.0803         3.45623 
        2.98456          47.506         3.41134 
        3.00023         47.2303         3.36719 
        3.01596         46.5024         3.32368 
        3.03164         46.0177         3.28106 
        3.04738          45.625         3.23906 
         3.0631          45.107         3.19782 
        3.07883         44.4852         3.15729 
        3.09456         44.0966         3.11748 
        3.11026         43.8164         3.07841 
        3.12596          43.244         3.04002 
        3.14163         42.7846         3.00237 
        3.15734         42.2802         2.96527 
        3.17308         41.9823         2.92871 
        3.18879         41.6046         2.89286 
        3.20447         41.2632         2.85767 
         3.2202         40.6512         2.82296 
         3.2359         40.3099         2.78889 
        3.25157         40.0029         2.75546 
        3.26729         39.4402         2.72247 
        3.28304         39.1098         2.68997 
        3.29877         38.6529         2.65803 
        3.31446         38.3065         2.62669 
        3.33014         37.9652         2.59588 
        3.34585         37.4363         2.56551 
        3.36158         37.2129         2.53559 
        3.37727         36.6686         2.50624 
        3.39294         36.4692         2.47738 
        3.40867         36.1032         2.44887 
        3.42439         35.7671         2.42083 
        3.44008         35.3718         2.39328 
        3.45578         35.0165         2.36614 
        3.47153         34.6155         2.33936 
        3.48724         34.2667         2.31305 
        3.50292          33.989          2.2872 
        3.51859         33.6585         2.26175 
        3.53431         33.3821         2.23662 
        3.55007         33.0346         2.21181 
        3.56577         32.7818         2.18747 
        3.58146         32.4155         2.16351 
        3.59719         32.1257         2.13985 
        3.61292         31.7992         2.11655 
        3.62859         31.5114         2.09369 
        3.64429          31.186         2.07113 
        3.66003         31.0294         2.04882 
        3.67578         30.6363         2.02686 
        3.69146         30.3392          2.0053 
        3.70712         29.9816         1.98409 
        3.72284         29.7498         1.96311 
        3.73853         29.5695         1.94247 
        3.75422         29.1482         1.92213 
        3.76993          28.991         1.90205 
        3.78564         28.7079         1.88227 
        3.80137         28.4865         1.86274 
        3.81707          28.124         1.84353 
        3.83279         27.9944         1.82457 
        3.84853         27.5907         1.80585 
        3.86424         27.4182         1.78743 
        3.87992           27.18         1.76929 
        3.89561         26.8591         1.75141 
        3.91134         26.6016         1.73373 
        3.92704         26.3886         1.71632 
        3.94273         26.0971         1.69917 
        3.95845         25.9255         1.68222 
        3.97418          25.628          1.6655 
        3.98988         25.3727         1.64903 
        4.00554         25.2369         1.63282 
        4.02125         24.9835         1.61679 
        4.03698         24.7174         1.60095 
        4.05268         24.5697         1.58535 
        4.06839          24.286         1.56996 
         4.0841         24.0973         1.55477 
        4.09983         23.8285         1.53976 
        4.11555         23.6239         1.52496 
        4.13124         23.4285         1.51039 
        4.14693         23.2165           1.496 
        4.16266          22.987         1.48176 
        4.17839         22.8702         1.46772 
        4.19408         22.6814         1.45389 
        4.20977         22.4468         1.44024 
        4.22551         22.2517         1.42672 
        4.24123         22.0428          1.4134 
        4.25691         21.8104         1.40028 
        4.27259         21.7296         1.38732 
        4.28831         21.4767          1.3745 
        4.30404         21.3199         1.36184 
        4.31974         21.1087         1.34936 
        4.33543         20.9316         1.33704 
        4.35116         20.7582         1.32484 
        4.36688           20.66         1.31281 
        4.38255         20.3991         1.30097 
        4.39825         20.2273         1.28925 
        4.41398         20.0357         1.27765 
         4.4297         19.9149          1.2662 
        4.44541         19.7319          1.2549 
        4.46111         19.5448         1.24374 
        4.47683         19.4114         1.23271 
        4.49251         19.1984         1.22184 
        4.50819         19.1072          1.2111 
         4.5239         18.9105         1.20048 
        4.53962         18.7852         1.18997 
        4.55535         18.5927         1.17958 
        4.57106         18.4673         1.16933 
        4.58678          18.258          1.1592 
         4.6025         18.1591         1.14919 
        4.61821         17.9851          1.1393 
        4.63391         17.8669         1.12953 
         4.6496         17.7037         1.11989 
        4.66532         17.5351         1.11034 
        4.68103         17.4222         1.10091 
        4.69673         17.2376          1.0916 
        4.71241         17.1693          1.0824 
        4.72811         16.9487          1.0733 
        4.74384         16.8497         1.06429 
        4.75955         16.7494         1.05539 
        4.77525         16.5949          1.0466 
        4.79096         16.4834         1.03791 
        4.80669         16.3146          1.0293 
         4.8224         16.1902         1.02081 
        4.83809         16.0386         1.01242 
        4.85379         15.9266         1.00411 
         4.8695         15.8542        0.995899 
        4.88521         15.6614        0.987779 
        4.90093         15.5572        0.979748 
        4.91663         15.4488        0.971814 
        4.93234         15.3204        0.963959 
        4.94807         15.2102        0.956186 
        4.96377         15.0985        0.948514 
        4.97943         14.9935        0.940942 
        4.99514         14.8658        0.933433 
        5.01086          14.713           0.926 
        5.02654         14.6361        0.918667 
        5.04227         14.4995        0.911392 
          5.058         14.3889        0.904193 
        5.07371         14.2957        0.897085 
        5.08942         14.2139        0.890053 
        5.10513         14.0896        0.883096 
        5.12084          13.987        0.876209 
        5.13656         13.8476        0.869398 
        5.15225         13.7535         0.86267 
        5.16796         13.6311        0.856003 
        5.18369         13.5783        0.849401 
         5.1994         13.4201         0.84288 
        5.21509         13.3568        0.836433 
        5.23079         13.2495        0.830046 
        5.24649         13.1427        0.823731 
        5.26217         13.0359        0.817486 
        5.27788         12.9424        0.811297 
        5.29359         12.8414        0.805171 
        5.30933         12.7523          0.7991 
        5.32504         12.6828        0.793101 
        5.34073         12.5735        0.787171 
        5.35646         12.4819        0.781289 
        5.37218         12.3879        0.775467 
        5.38789         12.2988        0.769713 
        5.40357         12.2055        0.764024 
        5.41929         12.1185         0.75838 
        5.43502         12.0006        0.752792 
         5.4507         11.9241        0.747274 
        5.46639         11.8514        0.741811 
        5.48212         11.7595         0.73639 
        5.49786         11.6485        0.731016 
        5.51353         11.6031        0.725723 
        5.52921         11.5037        0.720476 
        5.54495         11.3894        0.715267 
        5.56066          11.338        0.710114 
        5.57637          11.246        0.705013 
        5.59207         11.1681        0.699967 
        5.60778         11.0737        0.694968 
        5.62346          11.014        0.690025 
        5.63916         10.9429        0.685125 
        5.65487         10.8419        0.680271 
         5.6706         10.7783        0.675458 
        5.68633         10.7228        0.670689 
        5.70203         10.6407        0.665977 
        5.71773         10.5512         0.66131 
        5.73344         10.4773        0.656686 
        5.74916         10.4112        0.652102 
        5.76486         10.3659        0.647568 
        5.78054         10.2684        0.643084 
        5.79626         10.1684         0.63863 
          5.812         10.1299        0.634214 
         5.8277         10.0439        0.629852 
        5.84339         9.96527        0.625532 
        5.85911         9.91192        0.621243 
        5.87484         9.82335        0.616996 
        5.89053         9.74991        0.612797 
        5.90623         9.71856        0.608635 
        5.92195         9.62657        0.604504 
        5.93767         9.54574        0.600415 
        5.95336         9.50718        0.596369 
        5.96905         9.42896        0.592363 
        5.98476          9.3852        0.588388 
        6.00048         9.30628        0.584447 
        6.01617         9.24766        0.580549 
        6.03185         9.18223         0.57669 
        6.04756         9.13291        0.572858 
        6.06331         9.05636        0.569052 
        6.07903         9.00098        0.565289 
        6.09473         8.93964        0.561563 
        6.11044         8.86867        0.557868 
        6.12616           8.796        0.554206 
        6.14186         8.74964        0.550581 
        6.15755         8.69882        0.546989 
        6.17326         8.63908        0.543425 
        6.18898         8.59573        0.539892 
        6.20467         8.53055        0.536397 
        6.22036         8.46775        0.532933 
         6.2361         8.42783         0.52949 
         6.2518          8.3575        0.526084 
        6.26748         8.29658        0.522714 
        6.28319         8.24684        0.519365 
        6.29893         8.18862        0.516043 
        6.31463         8.12637        0.512755 
        6.33033         8.09861        0.509497 
        6.34604         8.03695        0.506265 
        6.36177          7.9962        0.503058 
        6.37747         7.94038        0.499884 
