# k  (h/Mpc)    Pcb(k)  (Mpc/h)^3    Pcb_linear(k) (Mpc/h)^3   ShotnoiseSubtracted = true
      0.0200456         34069.9         34830.6 
      0.0350414         27631.6         26858.1 
      0.0492313         19522.9         20442.6 
      0.0637834         15908.9         17255.7 
      0.0800726         12462.1         13717.8 
       0.096163         10392.7         10207.6 
       0.111083         8636.48         8394.44 
       0.126058         7163.08         7454.09 
       0.142273         6321.61          6233.1 
       0.158546          5220.1         5000.89 
        0.17375          4835.5         4330.63 
       0.188953         4726.48         3922.23 
       0.204907          4072.5         3422.34 
       0.220756         3744.19         2917.26 
        0.23588         3366.34         2590.85 
         0.2514         3099.31         2364.31 
       0.267535         2957.96         2118.04 
       0.283568         2706.83         1871.52 
       0.299022         2581.98         1690.57 
       0.314451         2661.54         1553.93 
       0.330372         2480.62          1418.6 
       0.346141         2322.74         1287.26 
       0.361624         2192.44         1179.02 
       0.377134         2165.08         1090.82 
       0.392932         2021.55          1008.3 
       0.408854         1976.72         929.071 
       0.424564         1926.44         859.848 
       0.440253          1862.1         800.468 
       0.455999         1771.12         746.472 
       0.471626         1747.14         696.268 
        0.48727         1686.52          650.56 
       0.502856         1665.18         609.937 
       0.518488         1578.17          572.86 
       0.534347          1528.8         537.991 
       0.550082          1501.1         506.105 
       0.565732          1454.5         477.214 
       0.581496         1418.69         450.496 
       0.597222          1409.6         425.788 
       0.612804         1351.64         403.075 
       0.628434          1314.4         382.002 
       0.644267          1302.2         362.267 
       0.660051         1254.45         343.994 
       0.675724          1244.3         327.091 
       0.691403         1189.06         311.317 
       0.707174         1163.59           296.5 
       0.722871         1161.41         282.712 
        0.73838         1108.09         269.953 
       0.754018         1115.81         257.889 
       0.769845         1072.35         246.435 
        0.78569         1045.64          235.67 
       0.801365         1028.29         225.659 
       0.817031         1011.27         216.241 
       0.832809         987.694         207.305 
       0.848511         949.032          198.92 
       0.864097         942.862          191.06 
       0.879701         926.385         183.621 
       0.895507          909.63         176.494 
       0.911279          893.06         169.764 
        0.92691         879.245         163.443 
       0.942635         847.414         157.412 
       0.958396          848.59         151.675 
       0.974128         824.642         146.237 
       0.989692          810.95         141.122 
        1.00528         787.282         136.246 
        1.02113          771.69         131.526 
        1.03692         752.642         127.048 
        1.05264         746.455         122.801 
        1.06832         735.831         118.757 
        1.08405         717.047         114.886 
        1.09979         707.803         111.186 
        1.11537          688.72         107.687 
        1.13105         675.812         104.319 
        1.14679         668.418         101.083 
        1.16256         653.147         97.9791 
        1.17828         646.462         95.0167 
        1.19395         633.348         92.1878 
         1.2097         620.739         89.4605 
        1.22537         606.001         86.8576 
          1.241         596.843         84.3669 
        1.25666         581.277         81.9683 
        1.27241         573.697         79.6524 
        1.28819         562.905         77.4228 
        1.30392         554.055         75.2856 
        1.31957         545.068         73.2392 
        1.33529         533.267         71.2619 
        1.35108         527.621         69.3504 
        1.36674         518.282         67.5231 
         1.3824         512.801         65.7637 
        1.39811         499.663         64.0617 
        1.41389          496.58         62.4138 
        1.42964         481.543          60.827 
        1.44531         475.998         59.3036 
        1.46101         466.334         57.8294 
        1.47667         461.103         56.4101 
        1.49229         455.867         55.0425 
        1.50793         443.689         53.7191 
        1.52367         439.098         52.4308 
        1.53953         429.186         51.1765 
        1.55526         419.836         49.9735 
        1.57092         414.814         48.8144 
        1.58662         408.463         47.6895 
        1.60235         400.971         46.5982 
        1.61809         393.364         45.5406 
        1.63369         387.542         44.5254 
        1.64941          383.54         43.5342 
        1.66519         377.207         42.5697 
        1.68085         371.037         41.6415 
        1.69652         362.599         40.7408 
        1.71228         360.848         39.8618 
        1.72806         351.377         39.0083 
        1.74368         347.856         38.1884 
        1.75933          339.33         37.3906 
        1.77505         337.909          36.612 
        1.79081         332.412         35.8543 
         1.8065         326.269         35.1214 
        1.82218         322.322         34.4097 
        1.83797         317.919          33.713 
        1.85367         311.693         33.0396 
        1.86928         306.832         32.3887 
        1.88497         301.177         31.7519 
        1.90073         297.828         31.1299 
        1.91647         293.556         30.5253 
        1.93218         288.438          29.938 
        1.94787         287.196         29.3672 
        1.96363         280.513         28.8091 
        1.97935         276.828         28.2667 
        1.99499         272.496         27.7414 
        2.01064         270.977         27.2288 
         2.0264         265.715         26.7259 
        2.04216         259.529         26.2361 
        2.05781         255.359         25.7617 
        2.07353         252.909         25.2974 
        2.08928         249.854         24.8436 
        2.10499         246.152         24.4022 
        2.12065           241.2         23.9729 
        2.13633         239.746         23.5536 
        2.15211         235.292         23.1417 
        2.16785         231.922         22.7408 
        2.18349         230.631          22.352 
        2.19916         226.825         21.9715 
        2.21489         223.824         21.5987 
        2.23063         220.745         21.2343 
         2.2463         218.517         20.8799 
        2.26194         214.141         20.5346 
        2.27765          211.19         20.1954 
        2.29341         208.705          19.863 
        2.30914         206.352         19.5387 
        2.32486         203.881          19.222 
        2.34061         200.434         18.9117 
        2.35635         198.517         18.6087 
        2.37203         195.122         18.3133 
        2.38768         192.189          18.025 
        2.40339         189.705         17.7419 
        2.41914         188.262         17.4642 
        2.43483         185.705         17.1935 
         2.4505         183.243          16.929 
        2.46622          180.76         16.6692 
        2.48195         178.585         16.4148 
        2.49759         175.696         16.1671 
        2.51328          174.39         15.9239 
        2.52906         171.671         15.6842 
        2.54479         168.958         15.4504 
        2.56049         167.055         15.2218 
        2.57618         165.658          14.998 
        2.59189         163.167         14.7785 
        2.60758         160.385         14.5636 
        2.62325         158.982         14.3534 
        2.63898         156.535         14.1465 
        2.65468         155.676         13.9442 
        2.67044         153.333          13.745 
        2.68618         151.644         13.5502 
        2.70184         150.059         13.3599 
        2.71755          147.59         13.1729 
        2.73329         146.146         12.9891 
        2.74897          144.52         12.8094 
        2.76462          142.56         12.6336 
        2.78034           140.7         12.4604 
        2.79607         139.382         12.2902 
        2.81179          138.17         12.1234 
        2.82749         136.439         11.9599 
        2.84321         134.463         11.7993 
        2.85893         132.464         11.6417 
        2.87462         131.825         11.4872 
        2.89033         129.854         11.3354 
        2.90605         128.096         11.1862 
        2.92176         126.941         11.0398 
        2.93747         125.907         10.8961 
        2.95318         123.483          10.755 
        2.96891         122.406         10.6163 
        2.98456         120.985         10.4806 
        3.00023         119.921         10.3471 
        3.01596         118.842         10.2156 
        3.03164         117.201         10.0867 
        3.04738         115.775          9.9597 
         3.0631          114.79         9.83492 
        3.07883          113.35         9.71228 
        3.09456         111.864         9.59176 
        3.11026         110.359         9.47347 
        3.12596         109.893          9.3572 
        3.14163         108.413         9.24316 
        3.15734         107.639         9.13076 
        3.17308         106.185         9.01996 
        3.18879         104.531         8.91132 
        3.20447         103.658         8.80462 
         3.2202         102.702         8.69935 
         3.2359          101.23           8.596 
        3.25157         100.146         8.49457 
        3.26729         99.4533         8.39448 
        3.28304         98.6456         8.29582 
        3.29877         97.3361         8.19887 
        3.31446         96.2692         8.10369 
        3.33014         95.1536         8.01011 
        3.34585         93.9569         7.91787 
        3.36158         93.2157         7.82695 
        3.37727         92.2217         7.73774 
        3.39294         91.1093         7.65002 
        3.40867         90.0981         7.56334 
        3.42439         89.0966         7.47806 
        3.44008         88.3916         7.39426 
        3.45578         87.4908         7.31169 
        3.47153         86.5658         7.23021 
        3.48724         85.7408         7.15011 
        3.50292         84.5546         7.07141 
        3.51859          84.309         6.99395 
        3.53431         82.9049          6.9174 
        3.55007         82.2311         6.84182 
        3.56577         81.3557         6.76767 
        3.58146          80.499         6.69465 
        3.59719         79.9627         6.62255 
        3.61292         78.9059         6.55154 
        3.62859         78.1769         6.48184 
        3.64429         77.4332         6.41302 
        3.66003         76.7906         6.34499 
        3.67578         75.6886         6.27798 
        3.69146         75.2213          6.2122 
        3.70712         74.3185         6.14748 
        3.72284         73.6543         6.08344 
        3.73853         73.0946         6.02043 
        3.75422         72.2872         5.95829 
        3.76993         71.5688         5.89698 
        3.78564         70.8743         5.83656 
        3.80137         70.1223         5.77689 
        3.81707         69.3641         5.71818 
        3.83279          68.801         5.66025 
        3.84853         68.1008         5.60302 
        3.86424         67.4349          5.5467 
        3.87992         67.0354         5.49124 
        3.89561         66.0604         5.43654 
        3.91134         65.4151         5.38247 
        3.92704          64.898         5.32921 
        3.94273         64.2032         5.27672 
        3.95845         63.7157         5.22484 
        3.97418         63.1646         5.17365 
        3.98988         62.3041         5.12322 
        4.00554         62.0813         5.07361 
        4.02125         61.4262          5.0245 
        4.03698         60.7339         4.97598 
        4.05268         60.1831          4.9282 
        4.06839         59.6267         4.88103 
         4.0841         59.1582         4.83448 
        4.09983         58.5461         4.78848 
        4.11555         58.0631          4.7431 
        4.13124         57.6625         4.69843 
        4.14693         57.0496          4.6543 
        4.16266         56.3919         4.61064 
        4.17839         55.9666         4.56757 
        4.19408         55.3845         4.52514 
        4.20977         54.9387         4.48324 
        4.22551         54.5311         4.44177 
        4.24123         53.9609         4.40087 
        4.25691         53.5581         4.36059 
        4.27259         52.9936         4.32081 
        4.28831         52.4804         4.28145 
        4.30404         52.0092         4.24254 
        4.31974         51.5314          4.2042 
        4.33543         51.1789         4.16636 
        4.35116         50.6767          4.1289 
        4.36688          50.295         4.09191 
        4.38255         49.7701         4.05551 
        4.39825         49.3243         4.01948 
        4.41398         48.7936         3.98381 
         4.4297         48.5915         3.94862 
        4.44541         48.0375         3.91386 
        4.46111         47.6495         3.87955 
        4.47683         47.2529         3.84562 
        4.49251         46.8158         3.81217 
        4.50819          46.341         3.77913 
         4.5239         46.1104         3.74644 
        4.53962         45.4617         3.71409 
        4.55535         45.2449         3.68211 
        4.57106          44.831         3.65055 
        4.58678         44.4369         3.61935 
         4.6025         44.0714         3.58852 
        4.61821          43.653         3.55805 
        4.63391         43.3112         3.52797 
         4.6496         42.9024         3.49826 
        4.66532         42.5589         3.46884 
        4.68103         42.1953         3.43978 
        4.69673         41.8068         3.41107 
        4.71241         41.5193         3.38273 
        4.72811          41.155         3.35466 
        4.74384         40.7588         3.32687 
        4.75955         40.4044         3.29944 
        4.77525         40.2039         3.27234 
        4.79096         39.7049         3.24551 
        4.80669         39.5196         3.21897 
         4.8224         39.0515         3.19275 
        4.83809         38.7829         3.16686 
        4.85379           38.42         3.14124 
         4.8695         38.1584         3.11588 
        4.88521         37.8356         3.09081 
        4.90093         37.6312         3.06602 
        4.91663         37.2812         3.04152 
        4.93234         36.9688         3.01726 
        4.94807         36.6369         2.99326 
        4.96377         36.3564         2.96956 
        4.97943         35.9866         2.94616 
        4.99514         35.7177         2.92296 
        5.01086         35.5154             2.9 
        5.02654          35.195         2.87734 
        5.04227         34.8935         2.85485 
          5.058         34.6381          2.8326 
        5.07371         34.3625         2.81062 
        5.08942          34.021         2.78888 
        5.10513         33.8059         2.76737 
        5.12084         33.5728         2.74607 
        5.13656          33.226           2.725 
        5.15225         33.0012         2.70419 
        5.16796         32.7132         2.68356 
        5.18369         32.5442         2.66313 
         5.1994         32.1947         2.64296 
        5.21509         31.9807         2.62301 
        5.23079         31.6691         2.60324 
        5.24649         31.4119         2.58369 
        5.26217         31.1892         2.56436 
        5.27788         30.9801         2.54519 
        5.29359         30.7084         2.52622 
        5.30933         30.4458         2.50742 
        5.32504         30.2324         2.48884 
        5.34073         29.9879         2.47047 
        5.35646         29.7774         2.45225 
        5.37218         29.6522         2.43421 
        5.38789         29.3424         2.41638 
        5.40357         29.1174         2.39875 
        5.41929         28.8797         2.38126 
        5.43502         28.5905         2.36394 
         5.4507         28.4963         2.34684 
        5.46639         28.2118          2.3299 
        5.48212         27.9895         2.31309 
        5.49786         27.8013         2.29643 
        5.51353         27.5812         2.28001 
        5.52921          27.361         2.26374 
        5.54495         27.1544         2.24758 
        5.56066         27.0043         2.23159 
        5.57637         26.7718         2.21577 
        5.59207         26.5308         2.20011 
        5.60778         26.3515         2.18459 
        5.62346         26.1917         2.16925 
        5.63916         25.9432         2.15405 
        5.65487         25.7904         2.13898 
         5.6706         25.5515         2.12403 
        5.68633         25.3725         2.10923 
        5.70203         25.2213         2.09459 
        5.71773         25.0536          2.0801 
        5.73344         24.8242         2.06574 
        5.74916         24.6522          2.0515 
        5.76486         24.4368         2.03742 
        5.78054         24.2717         2.02349 
        5.79626         24.0362         2.00965 
          5.812         23.8866         1.99593 
         5.8277         23.7394         1.98237 
        5.84339         23.5584         1.96894 
        5.85911         23.3788         1.95561 
        5.87484         23.2351         1.94241 
        5.89053         23.0438         1.92936 
        5.90623         22.9085         1.91642 
        5.92195         22.6814         1.90357 
        5.93767         22.5298         1.89085 
        5.95336         22.3475         1.87827 
        5.96905         22.2162         1.86581 
        5.98476         22.0358         1.85345 
        6.00048         21.8935         1.84119 
        6.01617         21.7319         1.82906 
        6.03185         21.5977         1.81705 
        6.04756         21.4251         1.80513 
        6.06331         21.3011         1.79328 
        6.07903         21.0974         1.78157 
        6.09473         20.9648         1.76997 
        6.11044         20.8178         1.75847 
        6.12616         20.6444         1.74707 
        6.14186         20.5173         1.73578 
        6.15755         20.3927         1.72459 
        6.17326         20.2761          1.7135 
        6.18898         20.0896         1.70249 
        6.20467         19.9025         1.69161 
        6.22036         19.8161         1.68082 
         6.2361         19.6917         1.67009 
         6.2518         19.5311         1.65948 
        6.26748         19.3841         1.64898 
        6.28319         19.2933         1.63854 
        6.29893         19.1365         1.62819 
        6.31463          19.039         1.61794 
        6.33033         18.8818         1.60779 
        6.34604         18.7518         1.59771 
        6.36177         18.5968         1.58771 
        6.37747         18.4875         1.57782 
