# k  (h/Mpc)    Pcb(k)  (Mpc/h)^3    Pcb_linear(k) (Mpc/h)^3   ShotnoiseSubtracted = true
      0.0200456         4362.44          4422.2 
      0.0350414         3468.07         3409.98 
      0.0492313          2587.8         2595.45 
      0.0637834         2140.62         2190.83 
      0.0800726         1696.36         1741.66 
       0.096163         1323.08         1295.99 
       0.111083         1100.56         1065.78 
       0.126058         934.661         946.395 
       0.142273         787.672         791.373 
       0.158546         649.403         634.928 
        0.17375         572.394         549.831 
       0.188953         519.738         497.978 
       0.204907         439.199         434.511 
       0.220756         391.938         370.384 
        0.23588         349.397         328.943 
         0.2514         316.138          300.18 
       0.267535         297.416         268.913 
       0.283568         260.488         237.613 
       0.299022         244.095          214.64 
       0.314451         235.815         197.292 
       0.330372         206.835         180.109 
       0.346141         190.927         163.434 
       0.361624         179.113         149.692 
       0.377134         164.118         138.494 
       0.392932         160.097         128.016 
       0.408854           149.4         117.958 
       0.424564         142.865         109.169 
       0.440253         130.021          101.63 
       0.455999         121.009         94.7743 
       0.471626          116.23         88.4003 
        0.48727         113.044         82.5971 
       0.502856         104.234         77.4394 
       0.518488         100.705         72.7321 
       0.534347         95.1637          68.305 
       0.550082         92.2116         64.2567 
       0.565732         89.6181         60.5886 
       0.581496         83.2362         57.1964 
       0.597222         80.3298         54.0594 
       0.612804         77.8545         51.1756 
       0.628434         76.0291         48.5001 
       0.644267         72.0585         45.9945 
       0.660051         69.3208         43.6745 
       0.675724         67.2416         41.5285 
       0.691403         66.1119         39.5258 
       0.707174         63.9847         37.6446 
       0.722871          62.067          35.894 
        0.73838         59.5333         34.2741 
       0.754018         56.6035         32.7424 
       0.769845         55.8773         31.2881 
        0.78569         53.8751         29.9214 
       0.801365         52.5765         28.6503 
       0.817031         50.6214         27.4546 
       0.832809         49.8431         26.3201 
       0.848511         48.3139         25.2555 
       0.864097         47.3281         24.2576 
       0.879701         46.4293         23.3131 
       0.895507         44.7983         22.4082 
       0.911279         43.6765         21.5537 
        0.92691         42.7044         20.7512 
       0.942635         41.9037         19.9855 
       0.958396         41.2719         19.2571 
       0.974128         40.1427         18.5667 
       0.989692         38.8705         17.9173 
        1.00528          38.435         17.2982 
        1.02113         37.4905         16.6989 
        1.03692         36.9095         16.1304 
        1.05264         36.1022         15.5913 
        1.06832         35.4666         15.0778 
        1.08405         34.4898         14.5862 
        1.09979         34.2502         14.1165 
        1.11537          33.202         13.6723 
        1.13105         32.6019         13.2446 
        1.14679         31.9048         12.8338 
        1.16256         31.4793         12.4397 
        1.17828         31.0295         12.0636 
        1.19395          30.466         11.7044 
         1.2097         29.8537         11.3582 
        1.22537         29.3639         11.0277 
          1.241         28.8486         10.7115 
        1.25666         28.4995         10.4069 
        1.27241         28.0266         10.1129 
        1.28819         26.9991         9.82983 
        1.30392         27.3544         9.55849 
        1.31957         26.6482         9.29867 
        1.33529         26.1095         9.04763 
        1.35108         25.9031         8.80493 
        1.36674         25.4929         8.57293 
         1.3824         25.0097         8.34956 
        1.39811         24.4739         8.13347 
        1.41389         24.2474         7.92424 
        1.42964         23.9773         7.72279 
        1.44531         23.5617         7.52936 
        1.46101         23.2524          7.3422 
        1.47667         22.9778           7.162 
        1.49229          22.511         6.98837 
        1.50793         22.3007         6.82033 
        1.52367         22.0025         6.65678 
        1.53953          21.703         6.49753 
        1.55526         21.3257         6.34479 
        1.57092         21.2597         6.19763 
        1.58662         20.9735         6.05481 
        1.60235          20.564         5.91624 
        1.61809         20.4169         5.78197 
        1.63369         20.1118         5.65309 
        1.64941         19.9138         5.52723 
        1.66519         19.5126         5.40478 
        1.68085         19.1962         5.28693 
        1.69652         19.2501         5.17258 
        1.71228         18.8285         5.06098 
        1.72806         18.5742         4.95261 
        1.74368         18.4206         4.84851 
        1.75933         18.2267         4.74722 
        1.77505         18.0019         4.64837 
        1.79081         17.7908         4.55217 
         1.8065         17.6244         4.45912 
        1.82218         17.4493         4.36876 
        1.83797         17.3082         4.28031 
        1.85367         17.1678         4.19481 
        1.86928         16.9315         4.11217 
        1.88497         16.7454         4.03131 
        1.90073         16.5032         3.95235 
        1.91647         16.1783         3.87558 
        1.93218         16.1958         3.80102 
        1.94787         15.8868         3.72855 
        1.96363         15.8504         3.65769 
        1.97935         15.6222         3.58882 
        1.99499         15.4265         3.52213 
        2.01064         15.3094         3.45705 
         2.0264         15.0543          3.3932 
        2.04216         15.0774         3.33102 
        2.05781         14.8914         3.27079 
        2.07353         14.7061         3.21184 
        2.08928         14.5098         3.15422 
        2.10499         14.3295         3.09818 
        2.12065         14.2445         3.04367 
        2.13633          14.102         2.99044 
        2.15211         13.9504         2.93814 
        2.16785         13.8108         2.88725 
        2.18349         13.6444         2.83788 
        2.19916         13.5007         2.78957 
        2.21489         13.4002         2.74223 
        2.23063         13.3174         2.69597 
         2.2463         13.0964         2.65098 
        2.26194         13.0089         2.60714 
        2.27765         12.8381         2.56407 
        2.29341          12.688         2.52186 
        2.30914         12.6196          2.4807 
        2.32486         12.5132         2.44048 
        2.34061         12.4194         2.40109 
        2.35635         12.2721         2.36261 
        2.37203         12.1149         2.32511 
        2.38768         11.9824         2.28851 
        2.40339          11.948         2.25256 
        2.41914         11.7796         2.21731 
        2.43483         11.6917         2.18294 
         2.4505         11.6101         2.14935 
        2.46622          11.484         2.11637 
        2.48195         11.4345         2.08407 
        2.49759         11.2346         2.05263 
        2.51328         11.2124         2.02175 
        2.52906         11.0731         1.99132 
        2.54479         10.9433         1.96163 
        2.56049         10.8537         1.93261 
        2.57618          10.787          1.9042 
        2.59189         10.7574         1.87632 
        2.60758         10.5823         1.84904 
        2.62325         10.5058         1.82235 
        2.63898         10.4553         1.79609 
        2.65468         10.3166          1.7704 
        2.67044         10.2437         1.74511 
        2.68618         10.1346         1.72037 
        2.70184         10.0799         1.69622 
        2.71755         9.98071         1.67247 
        2.73329         9.84876         1.64913 
        2.74897         9.79477         1.62633 
        2.76462         9.74695           1.604 
        2.78034         9.62919         1.58201 
        2.79607         9.57663          1.5604 
        2.81179         9.47042         1.53923 
        2.82749          9.4043         1.51847 
        2.84321         9.32762         1.49808 
        2.85893         9.27296         1.47806 
        2.87462         9.18567         1.45845 
        2.89033         9.08139         1.43918 
        2.90605         9.02766         1.42024 
        2.92176         8.94333         1.40165 
        2.93747         8.86824         1.38341 
        2.95318         8.78828         1.36548 
        2.96891         8.72536         1.34787 
        2.98456         8.65926         1.33065 
        3.00023         8.59251          1.3137 
        3.01596         8.46916           1.297 
        3.03164         8.45954         1.28064 
        3.04738         8.36595         1.26451 
         3.0631         8.28212         1.24867 
        3.07883         8.24767          1.2331 
        3.09456         8.14944          1.2178 
        3.11026         8.10976         1.20278 
        3.12596         8.02573         1.18802 
        3.14163         7.99752         1.17354 
        3.15734         7.90505         1.15927 
        3.17308         7.86584          1.1452 
        3.18879         7.79433         1.13141 
        3.20447         7.71717         1.11786 
         3.2202          7.6757          1.1045 
         3.2359         7.60455         1.09137 
        3.25157         7.56194          1.0785 
        3.26729         7.49402         1.06579 
        3.28304         7.43507         1.05326 
        3.29877         7.38712         1.04095 
        3.31446         7.35152         1.02887 
        3.33014         7.26866         1.01699 
        3.34585         7.22507         1.00528 
        3.36158         7.16871        0.993733 
        3.37727         7.11228        0.982407 
        3.39294         7.04783         0.97127 
        3.40867         7.01715        0.960265 
        3.42439         6.92758        0.949437 
        3.44008         6.87876        0.938798 
        3.45578         6.84148        0.928315 
        3.47153         6.77329        0.917969 
        3.48724          6.7323        0.907799 
        3.50292         6.68088        0.897808 
        3.51859         6.64511        0.887973 
        3.53431         6.58377        0.878254 
        3.55007         6.53544        0.868659 
        3.56577         6.46863        0.859244 
        3.58146         6.44437        0.849974 
        3.59719         6.39097        0.840819 
        3.61292         6.33805        0.831803 
        3.62859         6.29612        0.822954 
        3.64429         6.25414        0.814216 
        3.66003         6.20441         0.80558 
        3.67578         6.16453        0.797072 
        3.69146         6.11795         0.78872 
        3.70712         6.07344        0.780502 
        3.72284         6.02512        0.772372 
        3.73853          5.9834        0.764372 
        3.75422         5.93389        0.756483 
        3.76993         5.90291        0.748699 
        3.78564         5.86184        0.741028 
        3.80137         5.82201        0.733452 
        3.81707         5.75217        0.725998 
        3.83279         5.73371        0.718642 
        3.84853         5.67534        0.711377 
        3.86424         5.62462        0.704226 
        3.87992         5.61034        0.697185 
        3.89561          5.5741         0.69024 
        3.91134         5.52597        0.683375 
        3.92704         5.47915        0.676613 
        3.94273         5.43911        0.669948 
        3.95845         5.41214        0.663362 
        3.97418         5.36139        0.656863 
        3.98988         5.32224         0.65046 
        4.00554          5.2984         0.64416 
        4.02125         5.24695        0.637926 
        4.03698          5.2187        0.631765 
        4.05268         5.17277          0.6257 
        4.06839         5.13341         0.61971 
         4.0841         5.09622          0.6138 
        4.09983         5.06356         0.60796 
        4.11555         5.00947        0.602198 
        4.13124         4.99095        0.596527 
        4.14693         4.97612        0.590924 
        4.16266         4.92501        0.585381 
        4.17839         4.89702        0.579912 
        4.19408         4.86036        0.574526 
        4.20977         4.81652        0.569206 
        4.22551         4.78559         0.56394 
        4.24123         4.74239        0.558747 
        4.25691         4.71719        0.553634 
        4.27259         4.68016        0.548584 
        4.28831          4.6374        0.543586 
        4.30404         4.60573        0.538646 
        4.31974          4.5712        0.533778 
        4.33543          4.5412        0.528974 
        4.35116         4.51949        0.524217 
        4.36688         4.49552        0.519521 
        4.38255         4.46151          0.5149 
        4.39825         4.43601        0.510325 
        4.41398         4.40451        0.505797 
         4.4297          4.3751        0.501329 
        4.44541         4.34543        0.496916 
        4.46111         4.31137        0.492559 
        4.47683         4.27468        0.488252 
        4.49251          4.2533        0.484005 
        4.50819         4.23071         0.47981 
         4.5239         4.19727        0.475659 
        4.53962         4.15805        0.471552 
        4.55535         4.14123        0.467491 
        4.57106         4.11241        0.463485 
        4.58678         4.07675        0.459524 
         4.6025          4.0626        0.455609 
        4.61821         4.02187        0.451741 
        4.63391         3.99292        0.447922 
         4.6496         3.97077        0.444149 
        4.66532         3.93967        0.440415 
        4.68103         3.92226        0.436724 
        4.69673         3.90051         0.43308 
        4.71241         3.86584        0.429481 
        4.72811         3.85024        0.425917 
        4.74384         3.82526        0.422389 
        4.75955         3.79532        0.418907 
        4.77525         3.76801        0.415466 
        4.79096          3.7493        0.412059 
        4.80669         3.71872         0.40869 
         4.8224         3.69626        0.405361 
        4.83809         3.67851        0.402074 
        4.85379         3.64251        0.398821 
         4.8695         3.62442        0.395601 
        4.88521         3.60893        0.392419 
        4.90093          3.5823        0.389271 
        4.91663         3.55647        0.386161 
        4.93234           3.535        0.383081 
        4.94807         3.52121        0.380033 
        4.96377         3.49012        0.377024 
        4.97943         3.47218        0.374054 
        4.99514         3.45181        0.371108 
        5.01086         3.42327        0.368192 
        5.02654         3.40361        0.365315 
        5.04227         3.38186         0.36246 
          5.058         3.37503        0.359635 
        5.07371         3.33927        0.356845 
        5.08942          3.3131        0.354085 
        5.10513          3.2988        0.351353 
        5.12084         3.27454        0.348649 
        5.13656         3.25819        0.345974 
        5.15225         3.24561        0.343332 
        5.16796         3.22058        0.340713 
        5.18369         3.19448         0.33812 
         5.1994         3.17396        0.335558 
        5.21509         3.15549        0.333025 
        5.23079          3.1391        0.330515 
        5.24649         3.12058        0.328033 
        5.26217         3.09834        0.325578 
        5.27788         3.08435        0.323146 
        5.29359         3.06569        0.320737 
        5.30933         3.05184         0.31835 
        5.32504         3.03205        0.315991 
        5.34073          3.0091        0.313659 
        5.35646         2.99085        0.311345 
        5.37218         2.97773        0.309055 
        5.38789         2.96278        0.306791 
        5.40357         2.94021        0.304553 
        5.41929         2.92545        0.302332 
        5.43502         2.90915        0.300133 
         5.4507         2.88261        0.297962 
        5.46639         2.87031        0.295811 
        5.48212         2.85383        0.293677 
        5.49786         2.83964        0.291561 
        5.51353         2.82063        0.289477 
        5.52921         2.80458        0.287411 
        5.54495         2.79087        0.285359 
        5.56066         2.76886         0.28333 
        5.57637         2.75694         0.28132 
        5.59207         2.73851        0.279332 
        5.60778         2.72495        0.277363 
        5.62346          2.7077        0.275415 
        5.63916         2.69942        0.273484 
        5.65487         2.67189        0.271571 
         5.6706         2.66838        0.269674 
        5.68633         2.64826        0.267794 
        5.70203         2.63444        0.265936 
        5.71773         2.61978        0.264096 
        5.73344         2.60272        0.262273 
        5.74916         2.58714        0.260465 
        5.76486         2.57823        0.258677 
        5.78054         2.55706        0.256908 
        5.79626         2.54829        0.255151 
          5.812          2.5261        0.253409 
         5.8277         2.51076        0.251688 
        5.84339         2.50524        0.249983 
        5.85911         2.49001        0.248291 
        5.87484         2.47689        0.246614 
        5.89053         2.46098        0.244957 
        5.90623         2.44631        0.243314 
        5.92195         2.43742        0.241683 
        5.93767         2.42358        0.240069 
        5.95336         2.41068        0.238471 
        5.96905         2.39449        0.236889 
        5.98476         2.37707        0.235319 
        6.00048         2.37091        0.233763 
        6.01617         2.35381        0.232223 
        6.03185         2.34303        0.230698 
        6.04756          2.3321        0.229184 
        6.06331         2.31906        0.227681 
        6.07903         2.30376        0.226193 
        6.09473         2.29227        0.224721 
        6.11044         2.28221         0.22326 
        6.12616         2.27201        0.221813 
        6.14186         2.26173         0.22038 
        6.15755         2.25188         0.21896 
        6.17326         2.23522        0.217551 
        6.18898          2.2236        0.216154 
        6.20467         2.21024        0.214772 
        6.22036         2.20328        0.213402 
         6.2361         2.19061         0.21204 
         6.2518          2.1807        0.210692 
        6.26748         2.16677        0.209359 
        6.28319         2.15413        0.208034 
        6.29893         2.14649         0.20672 
        6.31463         2.13519        0.205419 
        6.33033         2.12458        0.204129 
        6.34604         2.10969         0.20285 
        6.36177         2.10376        0.201581 
        6.37747           2.093        0.200325 
